m1=64174.730, m2=30.561, gsp=2.041, rhosp=262.691
fGW[Hz],dPh[rad]
2.21848e-03,1.55884e+02
2.25705e-03,1.48847e+02
2.29630e-03,1.42112e+02
2.33623e-03,1.35665e+02
2.37685e-03,1.29496e+02
2.41818e-03,1.23592e+02
2.46023e-03,1.17943e+02
2.50301e-03,1.12538e+02
2.54653e-03,1.07368e+02
2.59081e-03,1.02422e+02
2.63586e-03,9.76908e+01
2.68169e-03,9.31664e+01
2.72832e-03,8.88398e+01
2.77576e-03,8.47029e+01
2.82402e-03,8.07476e+01
2.87313e-03,7.69666e+01
2.92309e-03,7.33524e+01
2.97391e-03,6.98982e+01
3.02562e-03,6.65972e+01
3.07823e-03,6.34431e+01
3.13176e-03,6.04296e+01
3.18621e-03,5.75509e+01
3.24162e-03,5.48012e+01
3.29798e-03,5.21752e+01
3.35533e-03,4.96675e+01
3.41367e-03,4.72731e+01
3.47303e-03,4.49873e+01
3.53342e-03,4.28054e+01
3.59486e-03,4.07229e+01
3.65736e-03,3.87357e+01
3.72096e-03,3.68396e+01
3.78566e-03,3.50307e+01
3.85149e-03,3.33053e+01
3.91846e-03,3.16597e+01
3.98659e-03,3.00904e+01
4.05591e-03,2.85942e+01
4.12643e-03,2.71679e+01
4.19818e-03,2.58085e+01
4.27118e-03,2.45129e+01
4.34545e-03,2.32784e+01
4.42101e-03,2.21023e+01
4.49788e-03,2.09821e+01
4.57609e-03,1.99152e+01
4.65566e-03,1.88992e+01
4.73662e-03,1.79320e+01
4.81898e-03,1.70113e+01
4.90277e-03,1.61350e+01
4.98802e-03,1.53012e+01
5.07475e-03,1.45079e+01
5.16299e-03,1.37532e+01
5.25277e-03,1.30355e+01
5.34410e-03,1.23531e+01
5.43703e-03,1.17043e+01
5.53156e-03,1.10875e+01
5.62775e-03,1.05014e+01
5.72560e-03,9.94445e+00
5.82516e-03,9.41535e+00
5.92645e-03,8.91278e+00
6.02950e-03,8.43552e+00
6.13434e-03,7.98237e+00
6.24101e-03,7.55219e+00
6.34953e-03,7.14391e+00
6.45993e-03,6.75647e+00
6.57226e-03,6.38890e+00
6.68654e-03,6.04023e+00
6.80280e-03,5.70956e+00
6.92109e-03,5.39602e+00
7.04144e-03,5.09878e+00
7.16387e-03,4.81705e+00
7.28844e-03,4.55008e+00
7.41517e-03,4.29714e+00
7.54411e-03,4.05754e+00
7.67528e-03,3.83062e+00
7.80874e-03,3.61576e+00
7.94452e-03,3.41235e+00
8.08266e-03,3.21982e+00
8.22321e-03,3.03762e+00
8.36619e-03,2.86525e+00
8.51166e-03,2.70218e+00
8.65967e-03,2.54797e+00
8.81024e-03,2.40214e+00
8.96343e-03,2.26429e+00
9.11929e-03,2.13398e+00
9.27786e-03,2.01084e+00
9.43918e-03,1.89449e+00
9.60331e-03,1.78458e+00
9.77030e-03,1.68078e+00
9.94018e-03,1.58276e+00
1.01130e-02,1.49021e+00
1.02889e-02,1.40285e+00
1.04678e-02,1.32041e+00
1.06498e-02,1.24262e+00
1.08350e-02,1.16923e+00
1.10234e-02,1.10001e+00
1.12150e-02,1.03473e+00
1.14101e-02,9.73175e-01
1.16085e-02,9.15147e-01
1.18103e-02,8.60453e-01
1.20157e-02,8.08910e-01
1.22246e-02,7.60345e-01
1.24372e-02,7.14594e-01
1.26534e-02,6.71501e-01
1.28734e-02,6.30918e-01
1.30973e-02,5.92706e-01
1.33250e-02,5.56732e-01
1.35567e-02,5.22871e-01
1.37924e-02,4.91003e-01
1.40323e-02,4.61017e-01
1.42763e-02,4.32805e-01
1.45245e-02,4.06266e-01
1.47770e-02,3.81306e-01
1.50340e-02,3.57833e-01
1.52954e-02,3.35763e-01
1.55614e-02,3.15015e-01
1.58319e-02,2.95511e-01
1.61072e-02,2.77182e-01
1.63873e-02,2.59957e-01
1.66722e-02,2.43773e-01
1.69621e-02,2.28568e-01
1.72571e-02,2.14287e-01
1.75572e-02,2.00873e-01
1.78624e-02,1.88277e-01
1.81730e-02,1.76449e-01
1.84890e-02,1.65345e-01
1.88105e-02,1.54921e-01
1.91376e-02,1.45137e-01
1.94704e-02,1.35954e-01
1.98089e-02,1.27338e-01
2.01534e-02,1.19253e-01
2.05038e-02,1.11668e-01
2.08603e-02,1.04552e-01
2.12230e-02,9.78779e-02
2.15921e-02,9.16183e-02
2.19675e-02,8.57482e-02
2.23495e-02,8.02439e-02
2.27381e-02,7.50830e-02
2.31335e-02,7.02448e-02
2.35357e-02,6.57093e-02
2.39449e-02,6.14582e-02
2.43613e-02,5.74738e-02
2.47849e-02,5.37399e-02
2.52159e-02,5.02409e-02
2.56543e-02,4.69625e-02
2.61004e-02,4.38908e-02
2.65542e-02,4.10132e-02
2.70160e-02,3.83176e-02
2.74857e-02,3.57927e-02
2.79636e-02,3.34279e-02
2.84499e-02,3.12131e-02
2.89446e-02,2.91390e-02
2.94479e-02,2.71968e-02
2.99599e-02,2.53783e-02
3.04808e-02,2.36757e-02
3.10109e-02,2.20817e-02
3.15501e-02,2.05895e-02
3.20987e-02,1.91927e-02
3.26568e-02,1.78852e-02
3.32246e-02,1.66614e-02
3.38024e-02,1.55161e-02
3.43901e-02,1.44442e-02
3.49881e-02,1.34412e-02
3.55965e-02,1.25026e-02
3.62154e-02,1.16243e-02
3.68451e-02,1.08026e-02
3.74858e-02,1.00338e-02
3.81376e-02,9.31448e-03
3.88008e-02,8.64159e-03
3.94754e-02,8.01213e-03
4.01618e-02,7.42332e-03
4.08602e-02,6.87256e-03
4.15707e-02,6.35741e-03
4.22935e-02,5.87560e-03
4.30289e-02,5.42498e-03
4.37771e-02,5.00356e-03
4.45383e-02,4.60945e-03
4.53127e-02,4.24091e-03
4.61006e-02,3.89628e-03
4.69022e-02,3.57403e-03
4.77178e-02,3.27271e-03
4.85475e-02,2.99097e-03
4.93916e-02,2.72756e-03
5.02505e-02,2.48129e-03
5.11242e-02,2.25104e-03
5.20132e-02,2.03579e-03
5.29176e-02,1.83456e-03
5.38377e-02,1.64645e-03
5.47739e-02,1.47060e-03
5.57263e-02,1.30623e-03
5.66953e-02,1.15258e-03
5.76811e-02,1.00896e-03
5.86840e-02,8.74726e-04
5.97044e-02,7.49258e-04
6.07426e-02,6.31991e-04
6.17988e-02,5.22390e-04
6.28734e-02,4.19957e-04
6.39666e-02,3.24226e-04
6.50789e-02,2.34760e-04
6.62105e-02,1.51150e-04
6.73617e-02,7.30160e-05
6.85330e-02,0.00000e+00
