m1=27786.957, m2=4.315, gsp=2.460, rhosp=1121.120
fGW[Hz],dPh[rad]
5.69821e-03,1.02337e+06
5.79419e-03,9.77155e+05
5.89179e-03,9.32875e+05
5.99103e-03,8.90454e+05
6.09194e-03,8.49822e+05
6.19455e-03,8.10909e+05
6.29890e-03,7.73650e+05
6.40499e-03,7.37979e+05
6.51288e-03,7.03835e+05
6.62258e-03,6.71157e+05
6.73413e-03,6.39890e+05
6.84756e-03,6.09976e+05
6.96290e-03,5.81362e+05
7.08019e-03,5.53997e+05
7.19945e-03,5.27830e+05
7.32072e-03,5.02814e+05
7.44403e-03,4.78903e+05
7.56941e-03,4.56051e+05
7.69691e-03,4.34216e+05
7.82656e-03,4.13356e+05
7.95839e-03,3.93432e+05
8.09244e-03,3.74405e+05
8.22875e-03,3.56238e+05
8.36736e-03,3.38895e+05
8.50830e-03,3.22342e+05
8.65161e-03,3.06547e+05
8.79734e-03,2.91476e+05
8.94552e-03,2.77100e+05
9.09620e-03,2.63389e+05
9.24942e-03,2.50315e+05
9.40521e-03,2.37851e+05
9.56364e-03,2.25970e+05
9.72473e-03,2.14648e+05
9.88853e-03,2.03859e+05
1.00551e-02,1.93582e+05
1.02245e-02,1.83793e+05
1.03967e-02,1.74470e+05
1.05718e-02,1.65595e+05
1.07499e-02,1.57146e+05
1.09309e-02,1.49104e+05
1.11151e-02,1.41452e+05
1.13023e-02,1.34172e+05
1.14927e-02,1.27247e+05
1.16863e-02,1.20661e+05
1.18831e-02,1.14398e+05
1.20833e-02,1.08445e+05
1.22868e-02,1.02785e+05
1.24937e-02,9.74070e+04
1.27042e-02,9.22966e+04
1.29182e-02,8.74417e+04
1.31358e-02,8.28303e+04
1.33570e-02,7.84510e+04
1.35820e-02,7.42927e+04
1.38108e-02,7.03451e+04
1.40434e-02,6.65982e+04
1.42800e-02,6.30422e+04
1.45205e-02,5.96681e+04
1.47651e-02,5.64671e+04
1.50138e-02,5.34308e+04
1.52667e-02,5.05513e+04
1.55238e-02,4.78208e+04
1.57853e-02,4.52321e+04
1.60512e-02,4.27782e+04
1.63216e-02,4.04525e+04
1.65965e-02,3.82486e+04
1.68761e-02,3.61604e+04
1.71603e-02,3.41822e+04
1.74494e-02,3.23085e+04
1.77433e-02,3.05340e+04
1.80421e-02,2.88537e+04
1.83461e-02,2.72628e+04
1.86551e-02,2.57568e+04
1.89693e-02,2.43314e+04
1.92888e-02,2.29825e+04
1.96137e-02,2.17060e+04
1.99441e-02,2.04983e+04
2.02800e-02,1.93559e+04
2.06216e-02,1.82753e+04
2.09690e-02,1.72534e+04
2.13222e-02,1.62870e+04
2.16813e-02,1.53733e+04
2.20465e-02,1.45095e+04
2.24179e-02,1.36930e+04
2.27955e-02,1.29212e+04
2.31795e-02,1.21919e+04
2.35699e-02,1.15027e+04
2.39669e-02,1.08515e+04
2.43706e-02,1.02364e+04
2.47811e-02,9.65526e+03
2.51985e-02,9.10640e+03
2.56230e-02,8.58804e+03
2.60546e-02,8.09855e+03
2.64934e-02,7.63636e+03
2.69397e-02,7.19998e+03
2.73935e-02,6.78803e+03
2.78549e-02,6.39917e+03
2.83241e-02,6.03213e+03
2.88012e-02,5.68574e+03
2.92863e-02,5.35885e+03
2.97796e-02,5.05039e+03
3.02812e-02,4.75936e+03
3.07913e-02,4.48478e+03
3.13099e-02,4.22576e+03
3.18373e-02,3.98142e+03
3.23736e-02,3.75096e+03
3.29189e-02,3.53361e+03
3.34733e-02,3.32863e+03
3.40372e-02,3.13533e+03
3.46105e-02,2.95307e+03
3.51935e-02,2.78122e+03
3.57863e-02,2.61920e+03
3.63891e-02,2.46646e+03
3.70020e-02,2.32248e+03
3.76253e-02,2.18676e+03
3.82590e-02,2.05884e+03
3.89035e-02,1.93828e+03
3.95587e-02,1.82466e+03
4.02251e-02,1.71759e+03
4.09026e-02,1.61669e+03
4.15916e-02,1.52162e+03
4.22922e-02,1.43205e+03
4.30045e-02,1.34765e+03
4.37289e-02,1.26814e+03
4.44655e-02,1.19324e+03
4.52145e-02,1.12268e+03
4.59760e-02,1.05622e+03
4.67505e-02,9.93619e+02
4.75379e-02,9.34655e+02
4.83387e-02,8.79122e+02
4.91529e-02,8.26821e+02
4.99808e-02,7.77567e+02
5.08227e-02,7.31185e+02
5.16788e-02,6.87508e+02
5.25492e-02,6.46381e+02
5.34344e-02,6.07656e+02
5.43344e-02,5.71195e+02
5.52496e-02,5.36866e+02
5.61803e-02,5.04546e+02
5.71266e-02,4.74118e+02
5.80888e-02,4.45473e+02
5.90673e-02,4.18508e+02
6.00622e-02,3.93123e+02
6.10739e-02,3.69229e+02
6.21026e-02,3.46737e+02
6.31487e-02,3.25566e+02
6.42124e-02,3.05640e+02
6.52939e-02,2.86885e+02
6.63938e-02,2.69234e+02
6.75121e-02,2.52621e+02
6.86493e-02,2.36986e+02
6.98056e-02,2.22272e+02
7.09814e-02,2.08426e+02
7.21770e-02,1.95395e+02
7.33928e-02,1.83133e+02
7.46290e-02,1.71594e+02
7.58861e-02,1.60737e+02
7.71643e-02,1.50520e+02
7.84641e-02,1.40907e+02
7.97857e-02,1.31862e+02
8.11296e-02,1.23351e+02
8.24962e-02,1.15343e+02
8.38857e-02,1.07809e+02
8.52987e-02,1.00721e+02
8.67355e-02,9.40520e+01
8.81965e-02,8.77778e+01
8.96820e-02,8.18752e+01
9.11927e-02,7.63221e+01
9.27287e-02,7.10979e+01
9.42906e-02,6.61834e+01
9.58789e-02,6.15601e+01
9.74939e-02,5.72110e+01
9.91360e-02,5.31197e+01
1.00806e-01,4.92711e+01
1.02504e-01,4.56509e+01
1.04230e-01,4.22455e+01
1.05986e-01,3.90422e+01
1.07771e-01,3.60291e+01
1.09587e-01,3.31949e+01
1.11433e-01,3.05290e+01
1.13310e-01,2.80215e+01
1.15218e-01,2.56630e+01
1.17159e-01,2.34446e+01
1.19132e-01,2.13581e+01
1.21139e-01,1.93957e+01
1.23179e-01,1.75499e+01
1.25254e-01,1.58139e+01
1.27364e-01,1.41811e+01
1.29509e-01,1.26454e+01
1.31691e-01,1.12012e+01
1.33909e-01,9.84282e+00
1.36165e-01,8.56532e+00
1.38458e-01,7.36386e+00
1.40790e-01,6.23392e+00
1.43162e-01,5.17126e+00
1.45573e-01,4.17187e+00
1.48025e-01,3.23200e+00
1.50519e-01,2.34811e+00
1.53054e-01,1.51687e+00
1.55632e-01,7.35145e-01
1.58253e-01,0.00000e+00
