m1=487853.347, m2=58.827, gsp=2.138, rhosp=45.817
fGW[Hz],dPh[rad]
1.04509e-03,2.34862e+02
1.05646e-03,2.25851e+02
1.06797e-03,2.17176e+02
1.07959e-03,2.08825e+02
1.09134e-03,2.00786e+02
1.10322e-03,1.93047e+02
1.11523e-03,1.85599e+02
1.12737e-03,1.78431e+02
1.13965e-03,1.71532e+02
1.15205e-03,1.64893e+02
1.16460e-03,1.58504e+02
1.17727e-03,1.52357e+02
1.19009e-03,1.46441e+02
1.20304e-03,1.40750e+02
1.21614e-03,1.35275e+02
1.22938e-03,1.30007e+02
1.24276e-03,1.24939e+02
1.25629e-03,1.20065e+02
1.26997e-03,1.15376e+02
1.28379e-03,1.10866e+02
1.29777e-03,1.06528e+02
1.31190e-03,1.02356e+02
1.32618e-03,9.83440e+01
1.34062e-03,9.44857e+01
1.35521e-03,9.07756e+01
1.36996e-03,8.72079e+01
1.38488e-03,8.37776e+01
1.39995e-03,8.04793e+01
1.41519e-03,7.73082e+01
1.43060e-03,7.42596e+01
1.44617e-03,7.13287e+01
1.46191e-03,6.85112e+01
1.47783e-03,6.58028e+01
1.49392e-03,6.31995e+01
1.51018e-03,6.06971e+01
1.52662e-03,5.82920e+01
1.54324e-03,5.59804e+01
1.56004e-03,5.37587e+01
1.57702e-03,5.16236e+01
1.59419e-03,4.95718e+01
1.61154e-03,4.76001e+01
1.62909e-03,4.57054e+01
1.64682e-03,4.38849e+01
1.66475e-03,4.21356e+01
1.68287e-03,4.04548e+01
1.70119e-03,3.88400e+01
1.71971e-03,3.72885e+01
1.73843e-03,3.57980e+01
1.75736e-03,3.43661e+01
1.77649e-03,3.29905e+01
1.79583e-03,3.16691e+01
1.81538e-03,3.03998e+01
1.83514e-03,2.91806e+01
1.85512e-03,2.80095e+01
1.87531e-03,2.68847e+01
1.89573e-03,2.58043e+01
1.91636e-03,2.47667e+01
1.93723e-03,2.37702e+01
1.95831e-03,2.28132e+01
1.97963e-03,2.18941e+01
2.00118e-03,2.10115e+01
2.02297e-03,2.01640e+01
2.04499e-03,1.93501e+01
2.06725e-03,1.85686e+01
2.08976e-03,1.78182e+01
2.11251e-03,1.70977e+01
2.13550e-03,1.64059e+01
2.15875e-03,1.57417e+01
2.18225e-03,1.51040e+01
2.20601e-03,1.44918e+01
2.23002e-03,1.39040e+01
2.25430e-03,1.33397e+01
2.27884e-03,1.27979e+01
2.30365e-03,1.22779e+01
2.32872e-03,1.17787e+01
2.35408e-03,1.12995e+01
2.37970e-03,1.08394e+01
2.40561e-03,1.03979e+01
2.43180e-03,9.97406e+00
2.45827e-03,9.56724e+00
2.48503e-03,9.17677e+00
2.51208e-03,8.80199e+00
2.53943e-03,8.44228e+00
2.56707e-03,8.09705e+00
2.59502e-03,7.76572e+00
2.62327e-03,7.44773e+00
2.65183e-03,7.14255e+00
2.68069e-03,6.84968e+00
2.70988e-03,6.56862e+00
2.73938e-03,6.29890e+00
2.76920e-03,6.04006e+00
2.79934e-03,5.79169e+00
2.82982e-03,5.55334e+00
2.86062e-03,5.32464e+00
2.89176e-03,5.10518e+00
2.92324e-03,4.89460e+00
2.95507e-03,4.69254e+00
2.98724e-03,4.49866e+00
3.01976e-03,4.31263e+00
3.05263e-03,4.13415e+00
3.08586e-03,3.96290e+00
3.11945e-03,3.79859e+00
3.15341e-03,3.64095e+00
3.18774e-03,3.48970e+00
3.22244e-03,3.34459e+00
3.25752e-03,3.20538e+00
3.29298e-03,3.07182e+00
3.32883e-03,2.94369e+00
3.36507e-03,2.82077e+00
3.40170e-03,2.70285e+00
3.43873e-03,2.58972e+00
3.47617e-03,2.48120e+00
3.51401e-03,2.37709e+00
3.55226e-03,2.27722e+00
3.59093e-03,2.18142e+00
3.63003e-03,2.08952e+00
3.66954e-03,2.00137e+00
3.70949e-03,1.91681e+00
3.74987e-03,1.83570e+00
3.79069e-03,1.75789e+00
3.83196e-03,1.68326e+00
3.87367e-03,1.61168e+00
3.91584e-03,1.54301e+00
3.95847e-03,1.47716e+00
4.00156e-03,1.41399e+00
4.04513e-03,1.35340e+00
4.08916e-03,1.29528e+00
4.13368e-03,1.23954e+00
4.17868e-03,1.18608e+00
4.22417e-03,1.13481e+00
4.27015e-03,1.08563e+00
4.31664e-03,1.03847e+00
4.36363e-03,9.93233e-01
4.41113e-03,9.49848e-01
4.45915e-03,9.08240e-01
4.50769e-03,8.68335e-01
4.55677e-03,8.30064e-01
4.60637e-03,7.93361e-01
4.65652e-03,7.58161e-01
4.70721e-03,7.24404e-01
4.75845e-03,6.92030e-01
4.81025e-03,6.60983e-01
4.86262e-03,6.31209e-01
4.91555e-03,6.02656e-01
4.96906e-03,5.75274e-01
5.02316e-03,5.49016e-01
5.07784e-03,5.23834e-01
5.13312e-03,4.99686e-01
5.18900e-03,4.76529e-01
5.24549e-03,4.54323e-01
5.30259e-03,4.33028e-01
5.36031e-03,4.12608e-01
5.41867e-03,3.93026e-01
5.47765e-03,3.74249e-01
5.53729e-03,3.56243e-01
5.59756e-03,3.38977e-01
5.65850e-03,3.22420e-01
5.72010e-03,3.06544e-01
5.78237e-03,2.91321e-01
5.84532e-03,2.76723e-01
5.90895e-03,2.62725e-01
5.97328e-03,2.49303e-01
6.03830e-03,2.36434e-01
6.10404e-03,2.24093e-01
6.17048e-03,2.12260e-01
6.23766e-03,2.00914e-01
6.30556e-03,1.90035e-01
6.37420e-03,1.79604e-01
6.44359e-03,1.69601e-01
6.51374e-03,1.60011e-01
6.58465e-03,1.50815e-01
6.65633e-03,1.41998e-01
6.72879e-03,1.33544e-01
6.80204e-03,1.25439e-01
6.87609e-03,1.17667e-01
6.95094e-03,1.10215e-01
7.02661e-03,1.03070e-01
7.10311e-03,9.62195e-02
7.18043e-03,8.96513e-02
7.25860e-03,8.33537e-02
7.33762e-03,7.73156e-02
7.41749e-03,7.15264e-02
7.49824e-03,6.59758e-02
7.57987e-03,6.06541e-02
7.66238e-03,5.55517e-02
7.74580e-03,5.06596e-02
7.83012e-03,4.59693e-02
7.91536e-03,4.14724e-02
8.00153e-03,3.71610e-02
8.08863e-03,3.30273e-02
8.17669e-03,2.90642e-02
8.26570e-03,2.52645e-02
8.35568e-03,2.16216e-02
8.44664e-03,1.81290e-02
8.53859e-03,1.47805e-02
8.63155e-03,1.15701e-02
8.72551e-03,8.49224e-03
8.82050e-03,5.54138e-03
8.91652e-03,2.71231e-03
9.01358e-03,0.00000e+00
