m1=44629.306, m2=5.870, gsp=2.463, rhosp=1594.435
fGW[Hz],dPh[rad]
4.50998e-03,8.64336e+05
4.58042e-03,8.25689e+05
4.65196e-03,7.88655e+05
4.72462e-03,7.53172e+05
4.79841e-03,7.19181e+05
4.87336e-03,6.86625e+05
4.94947e-03,6.55448e+05
5.02678e-03,6.25595e+05
5.10529e-03,5.97017e+05
5.18502e-03,5.69662e+05
5.26601e-03,5.43482e+05
5.34825e-03,5.18432e+05
5.43178e-03,4.94465e+05
5.51662e-03,4.71540e+05
5.60278e-03,4.49614e+05
5.69029e-03,4.28648e+05
5.77916e-03,4.08602e+05
5.86943e-03,3.89439e+05
5.96110e-03,3.71123e+05
6.05420e-03,3.53620e+05
6.14876e-03,3.36897e+05
6.24479e-03,3.20920e+05
6.34233e-03,3.05660e+05
6.44139e-03,2.91087e+05
6.54199e-03,2.77171e+05
6.64417e-03,2.63885e+05
6.74794e-03,2.51203e+05
6.85333e-03,2.39100e+05
6.96037e-03,2.27550e+05
7.06908e-03,2.16530e+05
7.17949e-03,2.06018e+05
7.29163e-03,1.95991e+05
7.40551e-03,1.86428e+05
7.52117e-03,1.77311e+05
7.63864e-03,1.68618e+05
7.75795e-03,1.60332e+05
7.87912e-03,1.52435e+05
8.00218e-03,1.44910e+05
8.12716e-03,1.37739e+05
8.25409e-03,1.30909e+05
8.38301e-03,1.24402e+05
8.51394e-03,1.18206e+05
8.64692e-03,1.12305e+05
8.78197e-03,1.06687e+05
8.91913e-03,1.01339e+05
9.05843e-03,9.62485e+04
9.19991e-03,9.14038e+04
9.34360e-03,8.67937e+04
9.48954e-03,8.24074e+04
9.63775e-03,7.82347e+04
9.78828e-03,7.42656e+04
9.94116e-03,7.04908e+04
1.00964e-02,6.69012e+04
1.02541e-02,6.34881e+04
1.04143e-02,6.02433e+04
1.05769e-02,5.71588e+04
1.07421e-02,5.42272e+04
1.09099e-02,5.14411e+04
1.10803e-02,4.87937e+04
1.12534e-02,4.62783e+04
1.14291e-02,4.38887e+04
1.16076e-02,4.16188e+04
1.17889e-02,3.94629e+04
1.19730e-02,3.74155e+04
1.21600e-02,3.54714e+04
1.23500e-02,3.36254e+04
1.25428e-02,3.18730e+04
1.27388e-02,3.02094e+04
1.29377e-02,2.86304e+04
1.31398e-02,2.71319e+04
1.33450e-02,2.57098e+04
1.35534e-02,2.43604e+04
1.37651e-02,2.30801e+04
1.39801e-02,2.18655e+04
1.41985e-02,2.07134e+04
1.44202e-02,1.96205e+04
1.46454e-02,1.85840e+04
1.48742e-02,1.76011e+04
1.51065e-02,1.66690e+04
1.53424e-02,1.57853e+04
1.55821e-02,1.49474e+04
1.58254e-02,1.41530e+04
1.60726e-02,1.34001e+04
1.63236e-02,1.26864e+04
1.65786e-02,1.20099e+04
1.68375e-02,1.13689e+04
1.71005e-02,1.07614e+04
1.73676e-02,1.01857e+04
1.76388e-02,9.64033e+03
1.79143e-02,9.12360e+03
1.81941e-02,8.63408e+03
1.84783e-02,8.17035e+03
1.87669e-02,7.73111e+03
1.90600e-02,7.31507e+03
1.93577e-02,6.92104e+03
1.96600e-02,6.54788e+03
1.99671e-02,6.19451e+03
2.02790e-02,5.85990e+03
2.05957e-02,5.54307e+03
2.09174e-02,5.24310e+03
2.12441e-02,4.95910e+03
2.15759e-02,4.69023e+03
2.19128e-02,4.43572e+03
2.22551e-02,4.19480e+03
2.26027e-02,3.96676e+03
2.29557e-02,3.75092e+03
2.33142e-02,3.54665e+03
2.36784e-02,3.35332e+03
2.40482e-02,3.17037e+03
2.44238e-02,2.99725e+03
2.48052e-02,2.83343e+03
2.51927e-02,2.67842e+03
2.55861e-02,2.53175e+03
2.59858e-02,2.39299e+03
2.63916e-02,2.26171e+03
2.68038e-02,2.13751e+03
2.72225e-02,2.02002e+03
2.76476e-02,1.90888e+03
2.80794e-02,1.80374e+03
2.85180e-02,1.70430e+03
2.89634e-02,1.61024e+03
2.94158e-02,1.52128e+03
2.98752e-02,1.43713e+03
3.03418e-02,1.35756e+03
3.08157e-02,1.28230e+03
3.12970e-02,1.21113e+03
3.17858e-02,1.14383e+03
3.22823e-02,1.08019e+03
3.27865e-02,1.02001e+03
3.32986e-02,9.63101e+02
3.38186e-02,9.09295e+02
3.43468e-02,8.58421e+02
3.48833e-02,8.10321e+02
3.54281e-02,7.64844e+02
3.59814e-02,7.21849e+02
3.65434e-02,6.81201e+02
3.71142e-02,6.42773e+02
3.76938e-02,6.06444e+02
3.82826e-02,5.72102e+02
3.88805e-02,5.39638e+02
3.94877e-02,5.08950e+02
4.01045e-02,4.79942e+02
4.07309e-02,4.52522e+02
4.13670e-02,4.26604e+02
4.20131e-02,4.02106e+02
4.26693e-02,3.78951e+02
4.33357e-02,3.57066e+02
4.40126e-02,3.36381e+02
4.47000e-02,3.16832e+02
4.53981e-02,2.98355e+02
4.61072e-02,2.80893e+02
4.68273e-02,2.64390e+02
4.75587e-02,2.48794e+02
4.83015e-02,2.34055e+02
4.90559e-02,2.20126e+02
4.98221e-02,2.06963e+02
5.06002e-02,1.94524e+02
5.13905e-02,1.82770e+02
5.21931e-02,1.71663e+02
5.30083e-02,1.61167e+02
5.38362e-02,1.51249e+02
5.46771e-02,1.41877e+02
5.55311e-02,1.33021e+02
5.63984e-02,1.24654e+02
5.72792e-02,1.16747e+02
5.81739e-02,1.09277e+02
5.90824e-02,1.02218e+02
6.00052e-02,9.55489e+01
6.09424e-02,8.92475e+01
6.18943e-02,8.32937e+01
6.28610e-02,7.76686e+01
6.38427e-02,7.23539e+01
6.48399e-02,6.73326e+01
6.58526e-02,6.25885e+01
6.68811e-02,5.81065e+01
6.79257e-02,5.38720e+01
6.89866e-02,4.98714e+01
7.00641e-02,4.60919e+01
7.11584e-02,4.25212e+01
7.22698e-02,3.91479e+01
7.33985e-02,3.59611e+01
7.45449e-02,3.29505e+01
7.57092e-02,3.01063e+01
7.68916e-02,2.74194e+01
7.80926e-02,2.48811e+01
7.93123e-02,2.24833e+01
8.05510e-02,2.02181e+01
8.18091e-02,1.80782e+01
8.30868e-02,1.60568e+01
8.43845e-02,1.41472e+01
8.57025e-02,1.23434e+01
8.70410e-02,1.06394e+01
8.84005e-02,9.02971e+00
8.97812e-02,7.50918e+00
9.11834e-02,6.07285e+00
9.26076e-02,4.71606e+00
9.40540e-02,3.43443e+00
9.55230e-02,2.22379e+00
9.70149e-02,1.08021e+00
9.85301e-02,0.00000e+00
