m1=44429.684, m2=11.126, gsp=2.317, rhosp=195.047
fGW[Hz],dPh[rad]
3.55247e-03,3.42712e+04
3.61237e-03,3.27505e+04
3.67328e-03,3.12927e+04
3.73521e-03,2.98953e+04
3.79819e-03,2.85559e+04
3.86223e-03,2.72724e+04
3.92734e-03,2.60426e+04
3.99356e-03,2.48644e+04
4.06089e-03,2.37358e+04
4.12936e-03,2.26549e+04
4.19899e-03,2.16198e+04
4.26978e-03,2.06288e+04
4.34177e-03,1.96800e+04
4.41498e-03,1.87718e+04
4.48942e-03,1.79027e+04
4.56511e-03,1.70710e+04
4.64208e-03,1.62753e+04
4.72035e-03,1.55142e+04
4.79993e-03,1.47862e+04
4.88086e-03,1.40900e+04
4.96316e-03,1.34244e+04
5.04684e-03,1.27881e+04
5.13193e-03,1.21800e+04
5.21846e-03,1.15988e+04
5.30644e-03,1.10435e+04
5.39591e-03,1.05130e+04
5.48689e-03,1.00063e+04
5.57940e-03,9.52238e+03
5.67347e-03,9.06036e+03
5.76913e-03,8.61929e+03
5.86640e-03,8.19830e+03
5.96531e-03,7.79655e+03
6.06589e-03,7.41323e+03
6.16816e-03,7.04755e+03
6.27216e-03,6.69877e+03
6.37791e-03,6.36618e+03
6.48545e-03,6.04907e+03
6.59479e-03,5.74678e+03
6.70598e-03,5.45867e+03
6.81905e-03,5.18413e+03
6.93402e-03,4.92257e+03
7.05093e-03,4.67341e+03
7.16982e-03,4.43613e+03
7.29070e-03,4.21018e+03
7.41363e-03,3.99508e+03
7.53862e-03,3.79034e+03
7.66573e-03,3.59550e+03
7.79498e-03,3.41011e+03
7.92640e-03,3.23374e+03
8.06005e-03,3.06600e+03
8.19594e-03,2.90649e+03
8.33413e-03,2.75483e+03
8.47465e-03,2.61066e+03
8.61753e-03,2.47365e+03
8.76283e-03,2.34345e+03
8.91057e-03,2.21975e+03
9.06081e-03,2.10226e+03
9.21358e-03,1.99068e+03
9.36893e-03,1.88472e+03
9.52689e-03,1.78414e+03
9.68752e-03,1.68866e+03
9.85085e-03,1.59806e+03
1.00169e-02,1.51209e+03
1.01858e-02,1.43053e+03
1.03576e-02,1.35317e+03
1.05322e-02,1.27981e+03
1.07098e-02,1.21026e+03
1.08904e-02,1.14432e+03
1.10740e-02,1.08182e+03
1.12607e-02,1.02260e+03
1.14505e-02,9.66478e+02
1.16436e-02,9.13315e+02
1.18399e-02,8.62961e+02
1.20395e-02,8.15274e+02
1.22425e-02,7.70121e+02
1.24490e-02,7.27374e+02
1.26589e-02,6.86912e+02
1.28723e-02,6.48618e+02
1.30893e-02,6.12382e+02
1.33100e-02,5.78100e+02
1.35344e-02,5.45669e+02
1.37626e-02,5.14997e+02
1.39947e-02,4.85990e+02
1.42306e-02,4.58563e+02
1.44706e-02,4.32635e+02
1.47145e-02,4.08125e+02
1.49626e-02,3.84961e+02
1.52149e-02,3.63071e+02
1.54714e-02,3.42389e+02
1.57323e-02,3.22850e+02
1.59975e-02,3.04393e+02
1.62673e-02,2.86962e+02
1.65415e-02,2.70500e+02
1.68204e-02,2.54957e+02
1.71040e-02,2.40283e+02
1.73924e-02,2.26431e+02
1.76857e-02,2.13356e+02
1.79839e-02,2.01017e+02
1.82871e-02,1.89374e+02
1.85954e-02,1.78388e+02
1.89089e-02,1.68024e+02
1.92277e-02,1.58247e+02
1.95519e-02,1.49026e+02
1.98816e-02,1.40330e+02
2.02168e-02,1.32129e+02
2.05577e-02,1.24396e+02
2.09043e-02,1.17106e+02
2.12567e-02,1.10234e+02
2.16151e-02,1.03756e+02
2.19796e-02,9.76507e+01
2.23502e-02,9.18968e+01
2.27270e-02,8.64747e+01
2.31102e-02,8.13657e+01
2.34998e-02,7.65523e+01
2.38960e-02,7.20177e+01
2.42989e-02,6.77462e+01
2.47086e-02,6.37228e+01
2.51252e-02,5.99334e+01
2.55489e-02,5.63648e+01
2.59796e-02,5.30042e+01
2.64177e-02,4.98400e+01
2.68631e-02,4.68607e+01
2.73160e-02,4.40559e+01
2.77765e-02,4.14154e+01
2.82449e-02,3.89299e+01
2.87211e-02,3.65904e+01
2.92053e-02,3.43884e+01
2.96978e-02,3.23161e+01
3.01985e-02,3.03660e+01
3.07076e-02,2.85309e+01
3.12254e-02,2.68041e+01
3.17519e-02,2.51795e+01
3.22872e-02,2.36509e+01
3.28316e-02,2.22130e+01
3.33851e-02,2.08602e+01
3.39480e-02,1.95877e+01
3.45204e-02,1.83908e+01
3.51024e-02,1.72650e+01
3.56943e-02,1.62062e+01
3.62961e-02,1.52104e+01
3.69081e-02,1.42740e+01
3.75304e-02,1.33934e+01
3.81631e-02,1.25653e+01
3.88066e-02,1.17867e+01
3.94609e-02,1.10547e+01
4.01262e-02,1.03664e+01
4.08028e-02,9.71924e+00
4.14907e-02,9.11088e+00
4.21903e-02,8.53897e+00
4.29016e-02,8.00136e+00
4.36250e-02,7.49599e+00
4.43605e-02,7.02097e+00
4.51084e-02,6.57448e+00
4.58690e-02,6.15482e+00
4.66424e-02,5.76040e+00
4.74288e-02,5.38971e+00
4.82284e-02,5.04134e+00
4.90416e-02,4.71394e+00
4.98685e-02,4.40628e+00
5.07093e-02,4.11716e+00
5.15642e-02,3.84549e+00
5.24336e-02,3.59021e+00
5.33177e-02,3.35034e+00
5.42167e-02,3.12496e+00
5.51308e-02,2.91319e+00
5.60603e-02,2.71423e+00
5.70055e-02,2.52731e+00
5.79666e-02,2.35169e+00
5.89440e-02,2.18670e+00
5.99378e-02,2.03170e+00
6.09484e-02,1.88608e+00
6.19760e-02,1.74929e+00
6.30210e-02,1.62079e+00
6.40835e-02,1.50009e+00
6.51640e-02,1.38670e+00
6.62627e-02,1.28019e+00
6.73799e-02,1.18015e+00
6.85160e-02,1.08618e+00
6.96712e-02,9.97915e-01
7.08459e-02,9.15013e-01
7.20404e-02,8.37148e-01
7.32550e-02,7.64015e-01
7.44901e-02,6.95329e-01
7.57460e-02,6.30819e-01
7.70232e-02,5.70234e-01
7.83218e-02,5.13334e-01
7.96423e-02,4.59897e-01
8.09852e-02,4.09712e-01
8.23506e-02,3.62583e-01
8.37391e-02,3.18324e-01
8.51509e-02,2.76760e-01
8.65866e-02,2.37729e-01
8.80465e-02,2.01076e-01
8.95310e-02,1.66657e-01
9.10406e-02,1.34336e-01
9.25755e-02,1.03986e-01
9.41364e-02,7.54860e-02
9.57236e-02,4.87246e-02
9.73375e-02,2.35957e-02
9.89787e-02,0.00000e+00
