m1=446216.505, m2=4.021, gsp=2.121, rhosp=123.324
fGW[Hz],dPh[rad]
2.92286e-03,1.16511e+02
2.94076e-03,1.13739e+02
2.95878e-03,1.11033e+02
2.97690e-03,1.08390e+02
2.99514e-03,1.05810e+02
3.01349e-03,1.03290e+02
3.03195e-03,1.00830e+02
3.05052e-03,9.84279e+01
3.06921e-03,9.60823e+01
3.08801e-03,9.37919e+01
3.10692e-03,9.15556e+01
3.12596e-03,8.93719e+01
3.14511e-03,8.72397e+01
3.16437e-03,8.51577e+01
3.18376e-03,8.31248e+01
3.20326e-03,8.11399e+01
3.22288e-03,7.92017e+01
3.24263e-03,7.73091e+01
3.26249e-03,7.54612e+01
3.28248e-03,7.36569e+01
3.30258e-03,7.18951e+01
3.32281e-03,7.01748e+01
3.34317e-03,6.84950e+01
3.36365e-03,6.68549e+01
3.38425e-03,6.52534e+01
3.40499e-03,6.36897e+01
3.42584e-03,6.21629e+01
3.44683e-03,6.06720e+01
3.46795e-03,5.92163e+01
3.48919e-03,5.77950e+01
3.51056e-03,5.64071e+01
3.53207e-03,5.50520e+01
3.55371e-03,5.37288e+01
3.57548e-03,5.24368e+01
3.59738e-03,5.11753e+01
3.61941e-03,4.99436e+01
3.64159e-03,4.87409e+01
3.66389e-03,4.75665e+01
3.68634e-03,4.64199e+01
3.70892e-03,4.53003e+01
3.73164e-03,4.42071e+01
3.75450e-03,4.31397e+01
3.77750e-03,4.20975e+01
3.80064e-03,4.10798e+01
3.82392e-03,4.00862e+01
3.84735e-03,3.91160e+01
3.87092e-03,3.81687e+01
3.89463e-03,3.72437e+01
3.91849e-03,3.63406e+01
3.94249e-03,3.54587e+01
3.96664e-03,3.45977e+01
3.99094e-03,3.37570e+01
4.01539e-03,3.29361e+01
4.03999e-03,3.21346e+01
4.06473e-03,3.13520e+01
4.08963e-03,3.05879e+01
4.11469e-03,2.98418e+01
4.13989e-03,2.91133e+01
4.16525e-03,2.84020e+01
4.19077e-03,2.77075e+01
4.21644e-03,2.70293e+01
4.24227e-03,2.63672e+01
4.26826e-03,2.57207e+01
4.29441e-03,2.50894e+01
4.32071e-03,2.44731e+01
4.34718e-03,2.38713e+01
4.37381e-03,2.32837e+01
4.40060e-03,2.27100e+01
4.42756e-03,2.21498e+01
4.45468e-03,2.16028e+01
4.48197e-03,2.10688e+01
4.50943e-03,2.05473e+01
4.53705e-03,2.00382e+01
4.56485e-03,1.95411e+01
4.59281e-03,1.90557e+01
4.62094e-03,1.85817e+01
4.64925e-03,1.81190e+01
4.67773e-03,1.76672e+01
4.70639e-03,1.72260e+01
4.73522e-03,1.67953e+01
4.76422e-03,1.63747e+01
4.79341e-03,1.59641e+01
4.82277e-03,1.55631e+01
4.85232e-03,1.51717e+01
4.88204e-03,1.47894e+01
4.91195e-03,1.44162e+01
4.94204e-03,1.40518e+01
4.97231e-03,1.36960e+01
5.00277e-03,1.33486e+01
5.03342e-03,1.30094e+01
5.06425e-03,1.26783e+01
5.09528e-03,1.23549e+01
5.12649e-03,1.20392e+01
5.15789e-03,1.17309e+01
5.18949e-03,1.14299e+01
5.22128e-03,1.11360e+01
5.25326e-03,1.08491e+01
5.28544e-03,1.05689e+01
5.31782e-03,1.02954e+01
5.35040e-03,1.00283e+01
5.38317e-03,9.76749e+00
5.41615e-03,9.51286e+00
5.44933e-03,9.26425e+00
5.48271e-03,9.02151e+00
5.51630e-03,8.78451e+00
5.55009e-03,8.55310e+00
5.58409e-03,8.32715e+00
5.61830e-03,8.10654e+00
5.65271e-03,7.89115e+00
5.68734e-03,7.68084e+00
5.72218e-03,7.47549e+00
5.75723e-03,7.27500e+00
5.79250e-03,7.07925e+00
5.82798e-03,6.88811e+00
5.86369e-03,6.70149e+00
5.89961e-03,6.51929e+00
5.93575e-03,6.34138e+00
5.97211e-03,6.16768e+00
6.00869e-03,5.99808e+00
6.04550e-03,5.83248e+00
6.08253e-03,5.67080e+00
6.11980e-03,5.51294e+00
6.15728e-03,5.35880e+00
6.19500e-03,5.20831e+00
6.23295e-03,5.06137e+00
6.27113e-03,4.91791e+00
6.30955e-03,4.77783e+00
6.34820e-03,4.64106e+00
6.38709e-03,4.50753e+00
6.42622e-03,4.37715e+00
6.46558e-03,4.24985e+00
6.50519e-03,4.12555e+00
6.54504e-03,4.00419e+00
6.58513e-03,3.88570e+00
6.62547e-03,3.77001e+00
6.66606e-03,3.65706e+00
6.70689e-03,3.54677e+00
6.74798e-03,3.43909e+00
6.78932e-03,3.33395e+00
6.83091e-03,3.23129e+00
6.87275e-03,3.13107e+00
6.91485e-03,3.03321e+00
6.95721e-03,2.93766e+00
6.99983e-03,2.84437e+00
7.04271e-03,2.75328e+00
7.08586e-03,2.66435e+00
7.12926e-03,2.57752e+00
7.17293e-03,2.49273e+00
7.21688e-03,2.40996e+00
7.26108e-03,2.32914e+00
7.30557e-03,2.25022e+00
7.35032e-03,2.17318e+00
7.39534e-03,2.09795e+00
7.44065e-03,2.02450e+00
7.48623e-03,1.95279e+00
7.53209e-03,1.88277e+00
7.57823e-03,1.81441e+00
7.62465e-03,1.74766e+00
7.67136e-03,1.68249e+00
7.71835e-03,1.61886e+00
7.76563e-03,1.55673e+00
7.81320e-03,1.49608e+00
7.86107e-03,1.43685e+00
7.90922e-03,1.37903e+00
7.95767e-03,1.32257e+00
8.00642e-03,1.26744e+00
8.05547e-03,1.21362e+00
8.10481e-03,1.16107e+00
8.15446e-03,1.10976e+00
8.20442e-03,1.05967e+00
8.25468e-03,1.01076e+00
8.30524e-03,9.63002e-01
8.35612e-03,9.16376e-01
8.40731e-03,8.70851e-01
8.45881e-03,8.26403e-01
8.51063e-03,7.83005e-01
8.56276e-03,7.40632e-01
8.61522e-03,6.99261e-01
8.66799e-03,6.58868e-01
8.72109e-03,6.19430e-01
8.77451e-03,5.80924e-01
8.82827e-03,5.43328e-01
8.88235e-03,5.06620e-01
8.93676e-03,4.70781e-01
8.99150e-03,4.35788e-01
9.04658e-03,4.01622e-01
9.10200e-03,3.68264e-01
9.15776e-03,3.35695e-01
9.21386e-03,3.03895e-01
9.27030e-03,2.72847e-01
9.32709e-03,2.42533e-01
9.38423e-03,2.12935e-01
9.44171e-03,1.84037e-01
9.49955e-03,1.55823e-01
9.55774e-03,1.28275e-01
9.61629e-03,1.01378e-01
9.67520e-03,7.51168e-02
9.73447e-03,4.94765e-02
9.79410e-03,2.44424e-02
9.85410e-03,0.00000e+00
