m1=187477.679, m2=47.090, gsp=2.143, rhosp=1596.281
fGW[Hz],dPh[rad]
1.44291e-03,1.28364e+03
1.46327e-03,1.22901e+03
1.48392e-03,1.17657e+03
1.50486e-03,1.12623e+03
1.52610e-03,1.07792e+03
1.54763e-03,1.03156e+03
1.56947e-03,9.87068e+02
1.59162e-03,9.44386e+02
1.61408e-03,9.03443e+02
1.63685e-03,8.64171e+02
1.65995e-03,8.26508e+02
1.68337e-03,7.90392e+02
1.70713e-03,7.55765e+02
1.73122e-03,7.22569e+02
1.75565e-03,6.90749e+02
1.78042e-03,6.60253e+02
1.80555e-03,6.31028e+02
1.83102e-03,6.03026e+02
1.85686e-03,5.76199e+02
1.88306e-03,5.50501e+02
1.90964e-03,5.25888e+02
1.93658e-03,5.02317e+02
1.96391e-03,4.79747e+02
1.99162e-03,4.58138e+02
2.01973e-03,4.37452e+02
2.04823e-03,4.17653e+02
2.07713e-03,3.98704e+02
2.10644e-03,3.80571e+02
2.13617e-03,3.63222e+02
2.16631e-03,3.46625e+02
2.19688e-03,3.30750e+02
2.22788e-03,3.15566e+02
2.25932e-03,3.01047e+02
2.29120e-03,2.87164e+02
2.32353e-03,2.73891e+02
2.35632e-03,2.61203e+02
2.38957e-03,2.49076e+02
2.42329e-03,2.37487e+02
2.45748e-03,2.26413e+02
2.49216e-03,2.15832e+02
2.52733e-03,2.05725e+02
2.56299e-03,1.96070e+02
2.59916e-03,1.86849e+02
2.63584e-03,1.78044e+02
2.67303e-03,1.69636e+02
2.71075e-03,1.61609e+02
2.74900e-03,1.53946e+02
2.78779e-03,1.46633e+02
2.82713e-03,1.39653e+02
2.86703e-03,1.32992e+02
2.90748e-03,1.26637e+02
2.94851e-03,1.20574e+02
2.99012e-03,1.14790e+02
3.03231e-03,1.09274e+02
3.07510e-03,1.04013e+02
3.11850e-03,9.89960e+01
3.16250e-03,9.42127e+01
3.20713e-03,8.96523e+01
3.25238e-03,8.53052e+01
3.29828e-03,8.11616e+01
3.34482e-03,7.72126e+01
3.39202e-03,7.34494e+01
3.43989e-03,6.98636e+01
3.48843e-03,6.64473e+01
3.53765e-03,6.31928e+01
3.58757e-03,6.00927e+01
3.63820e-03,5.71400e+01
3.68954e-03,5.43280e+01
3.74160e-03,5.16503e+01
3.79440e-03,4.91006e+01
3.84794e-03,4.66732e+01
3.90224e-03,4.43624e+01
3.95731e-03,4.21627e+01
4.01315e-03,4.00691e+01
4.06978e-03,3.80767e+01
4.12721e-03,3.61806e+01
4.18545e-03,3.43764e+01
4.24451e-03,3.26599e+01
4.30440e-03,3.10268e+01
4.36514e-03,2.94734e+01
4.42674e-03,2.79957e+01
4.48921e-03,2.65903e+01
4.55256e-03,2.52538e+01
4.61680e-03,2.39827e+01
4.68195e-03,2.27742e+01
4.74801e-03,2.16251e+01
4.81501e-03,2.05326e+01
4.88296e-03,1.94941e+01
4.95186e-03,1.85069e+01
5.02174e-03,1.75686e+01
5.09260e-03,1.66767e+01
5.16446e-03,1.58292e+01
5.23734e-03,1.50238e+01
5.31125e-03,1.42585e+01
5.38619e-03,1.35314e+01
5.46220e-03,1.28405e+01
5.53928e-03,1.21842e+01
5.61744e-03,1.15607e+01
5.69671e-03,1.09685e+01
5.77710e-03,1.04059e+01
5.85862e-03,9.87168e+00
5.94129e-03,9.36429e+00
6.02513e-03,8.88245e+00
6.11015e-03,8.42489e+00
6.19637e-03,7.99043e+00
6.28381e-03,7.57792e+00
6.37248e-03,7.18627e+00
6.46240e-03,6.81445e+00
6.55360e-03,6.46147e+00
6.64608e-03,6.12641e+00
6.73986e-03,5.80836e+00
6.83497e-03,5.50648e+00
6.93142e-03,5.21997e+00
7.02923e-03,4.94805e+00
7.12842e-03,4.68999e+00
7.22901e-03,4.44510e+00
7.33102e-03,4.21272e+00
7.43447e-03,3.99222e+00
7.53937e-03,3.78300e+00
7.64576e-03,3.58450e+00
7.75365e-03,3.39617e+00
7.86307e-03,3.21750e+00
7.97402e-03,3.04800e+00
8.08655e-03,2.88721e+00
8.20066e-03,2.73469e+00
8.31638e-03,2.59001e+00
8.43373e-03,2.45279e+00
8.55274e-03,2.32263e+00
8.67343e-03,2.19919e+00
8.79582e-03,2.08212e+00
8.91994e-03,1.97109e+00
9.04581e-03,1.86580e+00
9.17346e-03,1.76595e+00
9.30291e-03,1.67127e+00
9.43418e-03,1.58149e+00
9.56731e-03,1.49636e+00
9.70231e-03,1.41565e+00
9.83923e-03,1.33912e+00
9.97807e-03,1.26656e+00
1.01189e-02,1.19777e+00
1.02617e-02,1.13255e+00
1.04065e-02,1.07072e+00
1.05533e-02,1.01211e+00
1.07022e-02,9.56550e-01
1.08533e-02,9.03881e-01
1.10064e-02,8.53955e-01
1.11617e-02,8.06631e-01
1.13192e-02,7.61774e-01
1.14789e-02,7.19257e-01
1.16409e-02,6.78959e-01
1.18052e-02,6.40764e-01
1.19718e-02,6.04565e-01
1.21407e-02,5.70257e-01
1.23120e-02,5.37742e-01
1.24858e-02,5.06928e-01
1.26620e-02,4.77727e-01
1.28406e-02,4.50053e-01
1.30218e-02,4.23828e-01
1.32056e-02,3.98977e-01
1.33919e-02,3.75429e-01
1.35809e-02,3.53114e-01
1.37725e-02,3.31970e-01
1.39669e-02,3.11934e-01
1.41640e-02,2.92950e-01
1.43639e-02,2.74962e-01
1.45665e-02,2.57919e-01
1.47721e-02,2.41771e-01
1.49805e-02,2.26471e-01
1.51919e-02,2.11976e-01
1.54063e-02,1.98242e-01
1.56237e-02,1.85230e-01
1.58442e-02,1.72903e-01
1.60678e-02,1.61225e-01
1.62945e-02,1.50161e-01
1.65244e-02,1.39679e-01
1.67576e-02,1.29750e-01
1.69941e-02,1.20343e-01
1.72339e-02,1.11432e-01
1.74771e-02,1.02990e-01
1.77237e-02,9.49936e-02
1.79738e-02,8.74186e-02
1.82274e-02,8.02430e-02
1.84846e-02,7.34458e-02
1.87455e-02,6.70072e-02
1.90100e-02,6.09084e-02
1.92783e-02,5.51314e-02
1.95503e-02,4.96594e-02
1.98262e-02,4.44762e-02
2.01059e-02,3.95668e-02
2.03897e-02,3.49166e-02
2.06774e-02,3.05122e-02
2.09692e-02,2.63404e-02
2.12651e-02,2.23891e-02
2.15651e-02,1.86466e-02
2.18694e-02,1.51020e-02
2.21780e-02,1.17448e-02
2.24910e-02,8.56506e-03
2.28084e-02,5.55354e-03
2.31302e-02,2.70132e-03
2.34566e-02,0.00000e+00
