m1=317790.847, m2=3.514, gsp=2.132, rhosp=13.213
fGW[Hz],dPh[rad]
3.34644e-03,1.08946e+02
3.37039e-03,1.05951e+02
3.39452e-03,1.03037e+02
3.41882e-03,1.00203e+02
3.44329e-03,9.74459e+01
3.46794e-03,9.47646e+01
3.49276e-03,9.21566e+01
3.51776e-03,8.96199e+01
3.54294e-03,8.71526e+01
3.56830e-03,8.47528e+01
3.59385e-03,8.24187e+01
3.61957e-03,8.01484e+01
3.64548e-03,7.79402e+01
3.67158e-03,7.57924e+01
3.69786e-03,7.37034e+01
3.72433e-03,7.16715e+01
3.75099e-03,6.96953e+01
3.77784e-03,6.77731e+01
3.80488e-03,6.59035e+01
3.83212e-03,6.40851e+01
3.85955e-03,6.23165e+01
3.88717e-03,6.05963e+01
3.91500e-03,5.89232e+01
3.94302e-03,5.72958e+01
3.97125e-03,5.57131e+01
3.99968e-03,5.41737e+01
4.02831e-03,5.26764e+01
4.05714e-03,5.12201e+01
4.08618e-03,4.98037e+01
4.11543e-03,4.84261e+01
4.14489e-03,4.70862e+01
4.17456e-03,4.57830e+01
4.20444e-03,4.45155e+01
4.23454e-03,4.32828e+01
4.26485e-03,4.20837e+01
4.29538e-03,4.09176e+01
4.32613e-03,3.97834e+01
4.35709e-03,3.86803e+01
4.38828e-03,3.76073e+01
4.41970e-03,3.65638e+01
4.45133e-03,3.55489e+01
4.48320e-03,3.45618e+01
4.51529e-03,3.36018e+01
4.54761e-03,3.26680e+01
4.58016e-03,3.17599e+01
4.61295e-03,3.08766e+01
4.64597e-03,3.00175e+01
4.67922e-03,2.91820e+01
4.71272e-03,2.83694e+01
4.74645e-03,2.75791e+01
4.78043e-03,2.68104e+01
4.81465e-03,2.60629e+01
4.84911e-03,2.53358e+01
4.88382e-03,2.46286e+01
4.91878e-03,2.39408e+01
4.95399e-03,2.32719e+01
4.98945e-03,2.26214e+01
5.02517e-03,2.19886e+01
5.06114e-03,2.13733e+01
5.09737e-03,2.07748e+01
5.13386e-03,2.01927e+01
5.17060e-03,1.96266e+01
5.20762e-03,1.90760e+01
5.24489e-03,1.85405e+01
5.28244e-03,1.80197e+01
5.32025e-03,1.75132e+01
5.35833e-03,1.70205e+01
5.39669e-03,1.65414e+01
5.43532e-03,1.60755e+01
5.47423e-03,1.56223e+01
5.51341e-03,1.51815e+01
5.55288e-03,1.47529e+01
5.59263e-03,1.43360e+01
5.63266e-03,1.39305e+01
5.67298e-03,1.35362e+01
5.71359e-03,1.31527e+01
5.75449e-03,1.27797e+01
5.79568e-03,1.24170e+01
5.83717e-03,1.20642e+01
5.87895e-03,1.17210e+01
5.92103e-03,1.13873e+01
5.96341e-03,1.10628e+01
6.00610e-03,1.07472e+01
6.04909e-03,1.04402e+01
6.09240e-03,1.01417e+01
6.13601e-03,9.85132e+00
6.17993e-03,9.56894e+00
6.22417e-03,9.29432e+00
6.26872e-03,9.02723e+00
6.31359e-03,8.76747e+00
6.35879e-03,8.51485e+00
6.40430e-03,8.26916e+00
6.45015e-03,8.03021e+00
6.49632e-03,7.79783e+00
6.54282e-03,7.57182e+00
6.58965e-03,7.35202e+00
6.63682e-03,7.13826e+00
6.68433e-03,6.93036e+00
6.73218e-03,6.72818e+00
6.78037e-03,6.53154e+00
6.82890e-03,6.34031e+00
6.87779e-03,6.15432e+00
6.92702e-03,5.97345e+00
6.97660e-03,5.79754e+00
7.02654e-03,5.62646e+00
7.07684e-03,5.46008e+00
7.12750e-03,5.29827e+00
7.17852e-03,5.14090e+00
7.22990e-03,4.98785e+00
7.28166e-03,4.83901e+00
7.33378e-03,4.69426e+00
7.38628e-03,4.55348e+00
7.43915e-03,4.41657e+00
7.49240e-03,4.28342e+00
7.54603e-03,4.15392e+00
7.60005e-03,4.02799e+00
7.65445e-03,3.90551e+00
7.70924e-03,3.78640e+00
7.76442e-03,3.67056e+00
7.82000e-03,3.55790e+00
7.87598e-03,3.44834e+00
7.93236e-03,3.34178e+00
7.98914e-03,3.23816e+00
8.04633e-03,3.13738e+00
8.10392e-03,3.03937e+00
8.16193e-03,2.94405e+00
8.22036e-03,2.85135e+00
8.27920e-03,2.76120e+00
8.33847e-03,2.67352e+00
8.39815e-03,2.58826e+00
8.45827e-03,2.50533e+00
8.51881e-03,2.42469e+00
8.57979e-03,2.34626e+00
8.64121e-03,2.26998e+00
8.70306e-03,2.19580e+00
8.76536e-03,2.12366e+00
8.82811e-03,2.05351e+00
8.89130e-03,1.98528e+00
8.95495e-03,1.91892e+00
9.01905e-03,1.85439e+00
9.08361e-03,1.79163e+00
9.14863e-03,1.73060e+00
9.21412e-03,1.67124e+00
9.28007e-03,1.61352e+00
9.34650e-03,1.55738e+00
9.41340e-03,1.50278e+00
9.48079e-03,1.44969e+00
9.54865e-03,1.39805e+00
9.61700e-03,1.34784e+00
9.68584e-03,1.29900e+00
9.75518e-03,1.25150e+00
9.82501e-03,1.20532e+00
9.89534e-03,1.16040e+00
9.96617e-03,1.11671e+00
1.00375e-02,1.07423e+00
1.01094e-02,1.03291e+00
1.01817e-02,9.92730e-01
1.02546e-02,9.53653e-01
1.03280e-02,9.15651e-01
1.04019e-02,8.78693e-01
1.04764e-02,8.42751e-01
1.05514e-02,8.07798e-01
1.06269e-02,7.73805e-01
1.07030e-02,7.40746e-01
1.07796e-02,7.08596e-01
1.08568e-02,6.77330e-01
1.09345e-02,6.46924e-01
1.10127e-02,6.17353e-01
1.10916e-02,5.88595e-01
1.11710e-02,5.60628e-01
1.12509e-02,5.33430e-01
1.13315e-02,5.06979e-01
1.14126e-02,4.81256e-01
1.14943e-02,4.56240e-01
1.15766e-02,4.31911e-01
1.16594e-02,4.08251e-01
1.17429e-02,3.85242e-01
1.18269e-02,3.62866e-01
1.19116e-02,3.41104e-01
1.19969e-02,3.19941e-01
1.20827e-02,2.99360e-01
1.21692e-02,2.79345e-01
1.22563e-02,2.59880e-01
1.23441e-02,2.40950e-01
1.24324e-02,2.22540e-01
1.25214e-02,2.04637e-01
1.26111e-02,1.87226e-01
1.27013e-02,1.70294e-01
1.27923e-02,1.53827e-01
1.28838e-02,1.37813e-01
1.29760e-02,1.22239e-01
1.30689e-02,1.07094e-01
1.31625e-02,9.23651e-02
1.32567e-02,7.80412e-02
1.33516e-02,6.41111e-02
1.34472e-02,5.05641e-02
1.35434e-02,3.73895e-02
1.36404e-02,2.45773e-02
1.37380e-02,1.21173e-02
1.38364e-02,0.00000e+00
