m1=592421.489, m2=11.947, gsp=2.332, rhosp=4928.194
fGW[Hz],dPh[rad]
1.81002e-03,1.05012e+04
1.82290e-03,1.02240e+04
1.83588e-03,9.95418e+03
1.84894e-03,9.69137e+03
1.86210e-03,9.43546e+03
1.87535e-03,9.18624e+03
1.88870e-03,8.94355e+03
1.90214e-03,8.70722e+03
1.91567e-03,8.47708e+03
1.92930e-03,8.25298e+03
1.94303e-03,8.03474e+03
1.95686e-03,7.82223e+03
1.97079e-03,7.61529e+03
1.98481e-03,7.41377e+03
1.99894e-03,7.21754e+03
2.01316e-03,7.02645e+03
2.02749e-03,6.84037e+03
2.04192e-03,6.65917e+03
2.05645e-03,6.48272e+03
2.07108e-03,6.31090e+03
2.08582e-03,6.14359e+03
2.10066e-03,5.98067e+03
2.11561e-03,5.82203e+03
2.13067e-03,5.66754e+03
2.14583e-03,5.51711e+03
2.16110e-03,5.37063e+03
2.17648e-03,5.22799e+03
2.19197e-03,5.08910e+03
2.20757e-03,4.95385e+03
2.22328e-03,4.82215e+03
2.23910e-03,4.69391e+03
2.25503e-03,4.56904e+03
2.27108e-03,4.44745e+03
2.28724e-03,4.32905e+03
2.30352e-03,4.21376e+03
2.31991e-03,4.10150e+03
2.33642e-03,3.99218e+03
2.35305e-03,3.88574e+03
2.36979e-03,3.78210e+03
2.38666e-03,3.68118e+03
2.40364e-03,3.58290e+03
2.42075e-03,3.48722e+03
2.43797e-03,3.39404e+03
2.45532e-03,3.30332e+03
2.47280e-03,3.21498e+03
2.49039e-03,3.12896e+03
2.50812e-03,3.04520e+03
2.52597e-03,2.96365e+03
2.54394e-03,2.88423e+03
2.56205e-03,2.80691e+03
2.58028e-03,2.73162e+03
2.59864e-03,2.65831e+03
2.61713e-03,2.58693e+03
2.63576e-03,2.51742e+03
2.65451e-03,2.44974e+03
2.67340e-03,2.38384e+03
2.69243e-03,2.31968e+03
2.71159e-03,2.25720e+03
2.73089e-03,2.19637e+03
2.75032e-03,2.13714e+03
2.76989e-03,2.07946e+03
2.78960e-03,2.02331e+03
2.80946e-03,1.96863e+03
2.82945e-03,1.91538e+03
2.84958e-03,1.86355e+03
2.86986e-03,1.81307e+03
2.89029e-03,1.76392e+03
2.91085e-03,1.71607e+03
2.93157e-03,1.66948e+03
2.95243e-03,1.62411e+03
2.97344e-03,1.57993e+03
2.99460e-03,1.53692e+03
3.01591e-03,1.49505e+03
3.03737e-03,1.45427e+03
3.05899e-03,1.41457e+03
3.08076e-03,1.37591e+03
3.10268e-03,1.33827e+03
3.12476e-03,1.30162e+03
3.14700e-03,1.26594e+03
3.16939e-03,1.23120e+03
3.19195e-03,1.19737e+03
3.21466e-03,1.16443e+03
3.23754e-03,1.13236e+03
3.26058e-03,1.10114e+03
3.28378e-03,1.07074e+03
3.30715e-03,1.04114e+03
3.33069e-03,1.01231e+03
3.35439e-03,9.84251e+02
3.37826e-03,9.56928e+02
3.40230e-03,9.30324e+02
3.42651e-03,9.04422e+02
3.45090e-03,8.79202e+02
3.47546e-03,8.54647e+02
3.50019e-03,8.30738e+02
3.52510e-03,8.07460e+02
3.55018e-03,7.84795e+02
3.57545e-03,7.62727e+02
3.60089e-03,7.41241e+02
3.62652e-03,7.20322e+02
3.65232e-03,6.99953e+02
3.67831e-03,6.80122e+02
3.70449e-03,6.60813e+02
3.73085e-03,6.42013e+02
3.75740e-03,6.23709e+02
3.78414e-03,6.05887e+02
3.81107e-03,5.88535e+02
3.83819e-03,5.71641e+02
3.86551e-03,5.55192e+02
3.89302e-03,5.39176e+02
3.92072e-03,5.23583e+02
3.94862e-03,5.08401e+02
3.97672e-03,4.93619e+02
4.00502e-03,4.79227e+02
4.03352e-03,4.65215e+02
4.06223e-03,4.51572e+02
4.09113e-03,4.38289e+02
4.12025e-03,4.25356e+02
4.14957e-03,4.12764e+02
4.17910e-03,4.00504e+02
4.20884e-03,3.88568e+02
4.23879e-03,3.76946e+02
4.26895e-03,3.65631e+02
4.29933e-03,3.54614e+02
4.32993e-03,3.43888e+02
4.36074e-03,3.33445e+02
4.39178e-03,3.23278e+02
4.42303e-03,3.13378e+02
4.45450e-03,3.03740e+02
4.48620e-03,2.94356e+02
4.51813e-03,2.85219e+02
4.55028e-03,2.76324e+02
4.58266e-03,2.67663e+02
4.61528e-03,2.59231e+02
4.64812e-03,2.51021e+02
4.68120e-03,2.43027e+02
4.71451e-03,2.35245e+02
4.74806e-03,2.27668e+02
4.78185e-03,2.20291e+02
4.81588e-03,2.13109e+02
4.85015e-03,2.06116e+02
4.88467e-03,1.99307e+02
4.91943e-03,1.92679e+02
4.95444e-03,1.86225e+02
4.98969e-03,1.79941e+02
5.02520e-03,1.73824e+02
5.06096e-03,1.67868e+02
5.09698e-03,1.62069e+02
5.13325e-03,1.56423e+02
5.16978e-03,1.50926e+02
5.20657e-03,1.45574e+02
5.24362e-03,1.40363e+02
5.28094e-03,1.35290e+02
5.31852e-03,1.30351e+02
5.35637e-03,1.25542e+02
5.39448e-03,1.20860e+02
5.43287e-03,1.16302e+02
5.47154e-03,1.11864e+02
5.51047e-03,1.07543e+02
5.54969e-03,1.03336e+02
5.58918e-03,9.92404e+01
5.62896e-03,9.52527e+01
5.66901e-03,9.13704e+01
5.70936e-03,8.75905e+01
5.74999e-03,8.39104e+01
5.79091e-03,8.03275e+01
5.83212e-03,7.68392e+01
5.87362e-03,7.34430e+01
5.91542e-03,7.01364e+01
5.95751e-03,6.69171e+01
5.99991e-03,6.37828e+01
6.04261e-03,6.07313e+01
6.08561e-03,5.77604e+01
6.12892e-03,5.48678e+01
6.17253e-03,5.20517e+01
6.21646e-03,4.93099e+01
6.26070e-03,4.66405e+01
6.30525e-03,4.40416e+01
6.35012e-03,4.15114e+01
6.39531e-03,3.90479e+01
6.44082e-03,3.66495e+01
6.48666e-03,3.43144e+01
6.53282e-03,3.20410e+01
6.57931e-03,2.98276e+01
6.62613e-03,2.76727e+01
6.67328e-03,2.55747e+01
6.72077e-03,2.35321e+01
6.76860e-03,2.15434e+01
6.81677e-03,1.96072e+01
6.86528e-03,1.77222e+01
6.91413e-03,1.58870e+01
6.96334e-03,1.41002e+01
7.01289e-03,1.23606e+01
7.06280e-03,1.06670e+01
7.11306e-03,9.01809e+00
7.16368e-03,7.41273e+00
7.21466e-03,5.84977e+00
7.26600e-03,4.32810e+00
7.31770e-03,2.84661e+00
7.36978e-03,1.40426e+00
7.42223e-03,0.00000e+00
