m1=2719.306, m2=6.389, gsp=2.441, rhosp=699.569
fGW[Hz],dPh[rad]
8.79617e-03,1.64487e+05
9.02974e-03,1.55841e+05
9.26951e-03,1.47647e+05
9.51564e-03,1.39881e+05
9.76831e-03,1.32521e+05
1.00277e-02,1.25545e+05
1.02940e-02,1.18933e+05
1.05673e-02,1.12667e+05
1.08479e-02,1.06729e+05
1.11359e-02,1.01101e+05
1.14316e-02,9.57678e+04
1.17352e-02,9.07132e+04
1.20468e-02,8.59230e+04
1.23667e-02,8.13834e+04
1.26951e-02,7.70815e+04
1.30322e-02,7.30046e+04
1.33782e-02,6.91413e+04
1.37334e-02,6.54802e+04
1.40981e-02,6.20110e+04
1.44725e-02,5.87235e+04
1.48567e-02,5.56082e+04
1.52512e-02,5.26563e+04
1.56562e-02,4.98592e+04
1.60719e-02,4.72088e+04
1.64987e-02,4.46975e+04
1.69368e-02,4.23180e+04
1.73865e-02,4.00634e+04
1.78482e-02,3.79272e+04
1.83221e-02,3.59032e+04
1.88086e-02,3.39856e+04
1.93081e-02,3.21689e+04
1.98207e-02,3.04477e+04
2.03471e-02,2.88171e+04
2.08873e-02,2.72723e+04
2.14420e-02,2.58089e+04
2.20113e-02,2.44226e+04
2.25958e-02,2.31094e+04
2.31958e-02,2.18654e+04
2.38117e-02,2.06871e+04
2.44440e-02,1.95710e+04
2.50931e-02,1.85139e+04
2.57594e-02,1.75127e+04
2.64434e-02,1.65644e+04
2.71455e-02,1.56663e+04
2.78663e-02,1.48157e+04
2.86063e-02,1.40102e+04
2.93658e-02,1.32475e+04
3.01456e-02,1.25252e+04
3.09461e-02,1.18413e+04
3.17678e-02,1.11937e+04
3.26113e-02,1.05806e+04
3.34773e-02,1.00002e+04
3.43662e-02,9.45061e+03
3.52787e-02,8.93037e+03
3.62155e-02,8.43791e+03
3.71771e-02,7.97176e+03
3.81643e-02,7.53054e+03
3.91777e-02,7.11295e+03
4.02180e-02,6.71774e+03
4.12859e-02,6.34373e+03
4.23822e-02,5.98982e+03
4.35076e-02,5.65495e+03
4.46629e-02,5.33810e+03
4.58488e-02,5.03835e+03
4.70662e-02,4.75477e+03
4.83160e-02,4.48654e+03
4.95990e-02,4.23282e+03
5.09160e-02,3.99286e+03
5.22680e-02,3.76593e+03
5.36558e-02,3.55135e+03
5.50806e-02,3.34846e+03
5.65432e-02,3.15664e+03
5.80446e-02,2.97530e+03
5.95858e-02,2.80390e+03
6.11680e-02,2.64191e+03
6.27923e-02,2.48881e+03
6.44596e-02,2.34416e+03
6.61712e-02,2.20748e+03
6.79283e-02,2.07837e+03
6.97320e-02,1.95642e+03
7.15836e-02,1.84124e+03
7.34844e-02,1.73247e+03
7.54356e-02,1.62978e+03
7.74387e-02,1.53284e+03
7.94950e-02,1.44133e+03
8.16058e-02,1.35498e+03
8.37727e-02,1.27349e+03
8.59971e-02,1.19662e+03
8.82807e-02,1.12410e+03
9.06248e-02,1.05572e+03
9.30312e-02,9.91231e+02
9.55015e-02,9.30440e+02
9.80373e-02,8.73140e+02
1.00641e-01,8.19143e+02
1.03313e-01,7.68269e+02
1.06056e-01,7.20348e+02
1.08872e-01,6.75217e+02
1.11763e-01,6.32725e+02
1.14731e-01,5.92727e+02
1.17777e-01,5.55085e+02
1.20905e-01,5.19670e+02
1.24115e-01,4.86358e+02
1.27411e-01,4.55032e+02
1.30794e-01,4.25583e+02
1.34267e-01,3.97905e+02
1.37832e-01,3.71900e+02
1.41492e-01,3.47473e+02
1.45249e-01,3.24535e+02
1.49106e-01,3.03003e+02
1.53065e-01,2.82797e+02
1.57130e-01,2.63841e+02
1.61302e-01,2.46063e+02
1.65585e-01,2.29397e+02
1.69982e-01,2.13778e+02
1.74496e-01,1.99145e+02
1.79129e-01,1.85441e+02
1.83886e-01,1.72611e+02
1.88768e-01,1.60606e+02
1.93781e-01,1.49375e+02
1.98926e-01,1.38873e+02
2.04208e-01,1.29056e+02
2.09631e-01,1.19884e+02
2.15197e-01,1.11317e+02
2.20911e-01,1.03320e+02
2.26777e-01,9.58564e+01
2.32799e-01,8.88945e+01
2.38981e-01,8.24033e+01
2.45326e-01,7.63535e+01
2.51840e-01,7.07176e+01
2.58528e-01,6.54696e+01
2.65392e-01,6.05850e+01
2.72439e-01,5.60406e+01
2.79674e-01,5.18147e+01
2.87100e-01,4.78868e+01
2.94723e-01,4.42375e+01
3.02549e-01,4.08486e+01
3.10583e-01,3.77030e+01
3.18830e-01,3.47846e+01
3.27296e-01,3.20782e+01
3.35987e-01,2.95696e+01
3.44908e-01,2.72454e+01
3.54067e-01,2.50930e+01
3.63468e-01,2.31008e+01
3.73120e-01,2.12575e+01
3.83027e-01,1.95529e+01
3.93198e-01,1.79773e+01
4.03638e-01,1.65215e+01
4.14356e-01,1.51771e+01
4.25359e-01,1.39360e+01
4.36654e-01,1.27909e+01
4.48248e-01,1.17347e+01
4.60151e-01,1.07611e+01
4.72369e-01,9.86390e+00
4.84912e-01,9.03750e+00
4.97788e-01,8.27662e+00
5.11006e-01,7.57636e+00
5.24575e-01,6.93216e+00
5.38504e-01,6.33976e+00
5.52803e-01,5.79521e+00
5.67482e-01,5.29484e+00
5.82550e-01,4.83525e+00
5.98019e-01,4.41327e+00
6.13898e-01,4.02596e+00
6.30199e-01,3.67060e+00
6.46933e-01,3.34468e+00
6.64112e-01,3.04585e+00
6.81746e-01,2.77195e+00
6.99848e-01,2.52100e+00
7.18432e-01,2.29114e+00
7.37508e-01,2.08066e+00
7.57092e-01,1.88799e+00
7.77195e-01,1.71168e+00
7.97832e-01,1.55037e+00
8.19017e-01,1.40285e+00
8.40765e-01,1.26796e+00
8.63090e-01,1.14466e+00
8.86008e-01,1.03199e+00
9.09534e-01,9.29042e-01
9.33685e-01,8.35012e-01
9.58478e-01,7.49146e-01
9.83928e-01,6.70752e-01
1.01005e+00,5.99197e-01
1.03688e+00,5.33898e-01
1.06441e+00,4.74320e-01
1.09267e+00,4.19974e-01
1.12169e+00,3.70410e-01
1.15147e+00,3.25215e-01
1.18205e+00,2.84012e-01
1.21343e+00,2.46455e-01
1.24565e+00,2.12228e-01
1.27873e+00,1.81039e-01
1.31268e+00,1.52625e-01
1.34754e+00,1.26742e-01
1.38332e+00,1.03169e-01
1.42005e+00,8.17012e-02
1.45776e+00,6.21547e-02
1.49647e+00,4.43596e-02
1.53620e+00,2.81610e-02
1.57700e+00,1.34175e-02
1.61887e+00,0.00000e+00
