m1=259072.475, m2=22.412, gsp=2.378, rhosp=7446.861
fGW[Hz],dPh[rad]
1.75805e-03,7.15071e+04
1.77819e-03,6.87162e+04
1.79857e-03,6.60313e+04
1.81918e-03,6.34484e+04
1.84003e-03,6.09639e+04
1.86111e-03,5.85741e+04
1.88244e-03,5.62756e+04
1.90401e-03,5.40650e+04
1.92583e-03,5.19390e+04
1.94790e-03,4.98946e+04
1.97022e-03,4.79287e+04
1.99279e-03,4.60383e+04
2.01563e-03,4.42208e+04
2.03873e-03,4.24734e+04
2.06209e-03,4.07934e+04
2.08572e-03,3.91783e+04
2.10962e-03,3.76258e+04
2.13380e-03,3.61334e+04
2.15825e-03,3.46989e+04
2.18298e-03,3.33202e+04
2.20799e-03,3.19950e+04
2.23330e-03,3.07215e+04
2.25889e-03,2.94976e+04
2.28477e-03,2.83215e+04
2.31095e-03,2.71914e+04
2.33744e-03,2.61054e+04
2.36422e-03,2.50620e+04
2.39131e-03,2.40595e+04
2.41872e-03,2.30963e+04
2.44643e-03,2.21710e+04
2.47447e-03,2.12821e+04
2.50282e-03,2.04281e+04
2.53150e-03,1.96079e+04
2.56051e-03,1.88199e+04
2.58985e-03,1.80631e+04
2.61953e-03,1.73362e+04
2.64955e-03,1.66380e+04
2.67991e-03,1.59675e+04
2.71062e-03,1.53236e+04
2.74168e-03,1.47052e+04
2.77310e-03,1.41114e+04
2.80488e-03,1.35412e+04
2.83702e-03,1.29936e+04
2.86953e-03,1.24679e+04
2.90241e-03,1.19630e+04
2.93567e-03,1.14784e+04
2.96931e-03,1.10130e+04
3.00334e-03,1.05663e+04
3.03775e-03,1.01374e+04
3.07256e-03,9.72565e+03
3.10777e-03,9.33040e+03
3.14339e-03,8.95098e+03
3.17941e-03,8.58677e+03
3.21584e-03,8.23718e+03
3.25269e-03,7.90162e+03
3.28996e-03,7.57954e+03
3.32767e-03,7.27042e+03
3.36580e-03,6.97373e+03
3.40437e-03,6.68898e+03
3.44338e-03,6.41571e+03
3.48284e-03,6.15346e+03
3.52275e-03,5.90178e+03
3.56312e-03,5.66026e+03
3.60395e-03,5.42850e+03
3.64524e-03,5.20610e+03
3.68702e-03,4.99270e+03
3.72927e-03,4.78793e+03
3.77200e-03,4.59145e+03
3.81523e-03,4.40293e+03
3.85895e-03,4.22206e+03
3.90317e-03,4.04851e+03
3.94789e-03,3.88201e+03
3.99313e-03,3.72227e+03
4.03889e-03,3.56902e+03
4.08517e-03,3.42199e+03
4.13199e-03,3.28095e+03
4.17934e-03,3.14564e+03
4.22723e-03,3.01583e+03
4.27567e-03,2.89132e+03
4.32466e-03,2.77187e+03
4.37422e-03,2.65730e+03
4.42435e-03,2.54739e+03
4.47505e-03,2.44197e+03
4.52633e-03,2.34086e+03
4.57820e-03,2.24387e+03
4.63066e-03,2.15084e+03
4.68372e-03,2.06161e+03
4.73739e-03,1.97603e+03
4.79168e-03,1.89396e+03
4.84659e-03,1.81524e+03
4.90213e-03,1.73974e+03
4.95830e-03,1.66733e+03
5.01512e-03,1.59789e+03
5.07259e-03,1.53130e+03
5.13072e-03,1.46743e+03
5.18951e-03,1.40618e+03
5.24898e-03,1.34745e+03
5.30913e-03,1.29112e+03
5.36997e-03,1.23711e+03
5.43150e-03,1.18532e+03
5.49374e-03,1.13565e+03
5.55670e-03,1.08802e+03
5.62037e-03,1.04236e+03
5.68478e-03,9.98565e+02
5.74992e-03,9.56575e+02
5.81581e-03,9.16313e+02
5.88246e-03,8.77707e+02
5.94986e-03,8.40691e+02
6.01805e-03,8.05198e+02
6.08701e-03,7.71168e+02
6.15676e-03,7.38539e+02
6.22731e-03,7.07255e+02
6.29867e-03,6.77261e+02
6.37085e-03,6.48503e+02
6.44385e-03,6.20931e+02
6.51770e-03,5.94497e+02
6.59238e-03,5.69153e+02
6.66793e-03,5.44855e+02
6.74434e-03,5.21560e+02
6.82162e-03,4.99228e+02
6.89979e-03,4.77817e+02
6.97886e-03,4.57291e+02
7.05883e-03,4.37613e+02
7.13972e-03,4.18748e+02
7.22154e-03,4.00663e+02
7.30429e-03,3.83326e+02
7.38799e-03,3.66706e+02
7.47265e-03,3.50773e+02
7.55828e-03,3.35499e+02
7.64489e-03,3.20858e+02
7.73250e-03,3.06822e+02
7.82111e-03,2.93367e+02
7.91073e-03,2.80470e+02
8.00138e-03,2.68106e+02
8.09307e-03,2.56254e+02
8.18581e-03,2.44894e+02
8.27961e-03,2.34004e+02
8.37449e-03,2.23565e+02
8.47046e-03,2.13559e+02
8.56752e-03,2.03968e+02
8.66570e-03,1.94774e+02
8.76500e-03,1.85961e+02
8.86544e-03,1.77514e+02
8.96703e-03,1.69418e+02
9.06979e-03,1.61657e+02
9.17372e-03,1.54218e+02
9.27885e-03,1.47088e+02
9.38517e-03,1.40253e+02
9.49272e-03,1.33703e+02
9.60150e-03,1.27424e+02
9.71153e-03,1.21406e+02
9.82281e-03,1.15638e+02
9.93537e-03,1.10109e+02
1.00492e-02,1.04810e+02
1.01644e-02,9.97314e+01
1.02809e-02,9.48635e+01
1.03987e-02,9.01979e+01
1.05178e-02,8.57261e+01
1.06384e-02,8.14401e+01
1.07603e-02,7.73323e+01
1.08836e-02,7.33952e+01
1.10083e-02,6.96218e+01
1.11344e-02,6.60053e+01
1.12620e-02,6.25392e+01
1.13911e-02,5.92171e+01
1.15216e-02,5.60333e+01
1.16536e-02,5.29818e+01
1.17872e-02,5.00573e+01
1.19223e-02,4.72545e+01
1.20589e-02,4.45682e+01
1.21971e-02,4.19937e+01
1.23368e-02,3.95264e+01
1.24782e-02,3.71617e+01
1.26212e-02,3.48955e+01
1.27658e-02,3.27235e+01
1.29121e-02,3.06420e+01
1.30601e-02,2.86471e+01
1.32097e-02,2.67353e+01
1.33611e-02,2.49031e+01
1.35142e-02,2.31471e+01
1.36691e-02,2.14643e+01
1.38257e-02,1.98516e+01
1.39841e-02,1.83060e+01
1.41444e-02,1.68248e+01
1.43065e-02,1.54053e+01
1.44704e-02,1.40450e+01
1.46362e-02,1.27413e+01
1.48039e-02,1.14919e+01
1.49736e-02,1.02946e+01
1.51452e-02,9.14714e+00
1.53187e-02,8.04752e+00
1.54943e-02,6.99372e+00
1.56718e-02,5.98384e+00
1.58514e-02,5.01605e+00
1.60331e-02,4.08859e+00
1.62168e-02,3.19980e+00
1.64026e-02,2.34805e+00
1.65906e-02,1.53181e+00
1.67807e-02,7.49600e-01
1.69730e-02,0.00000e+00
