m1=7409.103, m2=79.606, gsp=2.473, rhosp=39.524
fGW[Hz],dPh[rad]
2.66130e-03,1.93718e+04
2.73468e-03,1.83343e+04
2.81008e-03,1.73522e+04
2.88756e-03,1.64226e+04
2.96717e-03,1.55427e+04
3.04898e-03,1.47098e+04
3.13305e-03,1.39215e+04
3.21943e-03,1.31753e+04
3.30820e-03,1.24690e+04
3.39941e-03,1.18004e+04
3.49314e-03,1.11676e+04
3.58945e-03,1.05687e+04
3.68842e-03,1.00017e+04
3.79012e-03,9.46512e+03
3.89462e-03,8.95720e+03
4.00200e-03,8.47646e+03
4.11234e-03,8.02142e+03
4.22572e-03,7.59073e+03
4.34224e-03,7.18308e+03
4.46196e-03,6.79724e+03
4.58498e-03,6.43204e+03
4.71140e-03,6.08638e+03
4.84130e-03,5.75922e+03
4.97478e-03,5.44957e+03
5.11195e-03,5.15649e+03
5.25289e-03,4.87910e+03
5.39772e-03,4.61655e+03
5.54655e-03,4.36807e+03
5.69948e-03,4.13288e+03
5.85662e-03,3.91030e+03
6.01810e-03,3.69963e+03
6.18403e-03,3.50024e+03
6.35453e-03,3.31154e+03
6.52974e-03,3.13295e+03
6.70978e-03,2.96392e+03
6.89478e-03,2.80396e+03
7.08488e-03,2.65257e+03
7.28022e-03,2.50929e+03
7.48095e-03,2.37369e+03
7.68721e-03,2.24537e+03
7.89916e-03,2.12393e+03
8.11696e-03,2.00900e+03
8.34076e-03,1.90024e+03
8.57072e-03,1.79731e+03
8.80703e-03,1.69991e+03
9.04986e-03,1.60774e+03
9.29938e-03,1.52051e+03
9.55578e-03,1.43798e+03
9.81925e-03,1.35987e+03
1.00900e-02,1.28596e+03
1.03682e-02,1.21603e+03
1.06541e-02,1.14985e+03
1.09478e-02,1.08724e+03
1.12497e-02,1.02799e+03
1.15598e-02,9.71925e+02
1.18786e-02,9.18882e+02
1.22061e-02,8.68695e+02
1.25426e-02,8.21210e+02
1.28884e-02,7.76284e+02
1.32438e-02,7.33780e+02
1.36089e-02,6.93567e+02
1.39842e-02,6.55523e+02
1.43697e-02,6.19532e+02
1.47659e-02,5.85484e+02
1.51731e-02,5.53275e+02
1.55914e-02,5.22806e+02
1.60213e-02,4.93985e+02
1.64630e-02,4.66722e+02
1.69169e-02,4.40934e+02
1.73834e-02,4.16543e+02
1.78627e-02,3.93473e+02
1.83552e-02,3.71654e+02
1.88612e-02,3.51018e+02
1.93813e-02,3.31501e+02
1.99157e-02,3.13045e+02
2.04648e-02,2.95592e+02
2.10290e-02,2.79088e+02
2.16088e-02,2.63482e+02
2.22046e-02,2.48726e+02
2.28168e-02,2.34774e+02
2.34459e-02,2.21583e+02
2.40924e-02,2.09112e+02
2.47567e-02,1.97323e+02
2.54392e-02,1.86179e+02
2.61407e-02,1.75645e+02
2.68614e-02,1.65688e+02
2.76020e-02,1.56277e+02
2.83630e-02,1.47383e+02
2.91451e-02,1.38978e+02
2.99486e-02,1.31036e+02
3.07744e-02,1.23531e+02
3.16229e-02,1.16441e+02
3.24948e-02,1.09742e+02
3.33907e-02,1.03413e+02
3.43114e-02,9.74355e+01
3.52574e-02,9.17893e+01
3.62295e-02,8.64567e+01
3.72284e-02,8.14209e+01
3.82549e-02,7.66657e+01
3.93096e-02,7.21760e+01
4.03935e-02,6.79373e+01
4.15072e-02,6.39361e+01
4.26516e-02,6.01594e+01
4.38276e-02,5.65950e+01
4.50360e-02,5.32314e+01
4.62777e-02,5.00577e+01
4.75537e-02,4.70636e+01
4.88648e-02,4.42392e+01
5.02121e-02,4.15752e+01
5.15965e-02,3.90630e+01
5.30191e-02,3.66942e+01
5.44810e-02,3.44610e+01
5.59831e-02,3.23559e+01
5.75267e-02,3.03720e+01
5.91128e-02,2.85025e+01
6.07426e-02,2.67411e+01
6.24174e-02,2.50819e+01
6.41384e-02,2.35193e+01
6.59068e-02,2.20479e+01
6.77239e-02,2.06627e+01
6.95912e-02,1.93588e+01
7.15100e-02,1.81318e+01
7.34816e-02,1.69774e+01
7.55076e-02,1.58916e+01
7.75895e-02,1.48704e+01
7.97288e-02,1.39103e+01
8.19271e-02,1.30079e+01
8.41859e-02,1.21599e+01
8.65071e-02,1.13632e+01
8.88923e-02,1.06149e+01
9.13432e-02,9.91234e+00
9.38617e-02,9.25284e+00
9.64496e-02,8.63396e+00
9.91089e-02,8.05338e+00
1.01841e-01,7.50889e+00
1.04649e-01,6.99841e+00
1.07535e-01,6.51998e+00
1.10500e-01,6.07174e+00
1.13546e-01,5.65192e+00
1.16677e-01,5.25886e+00
1.19894e-01,4.89099e+00
1.23200e-01,4.54683e+00
1.26597e-01,4.22496e+00
1.30087e-01,3.92405e+00
1.33674e-01,3.64287e+00
1.37359e-01,3.38020e+00
1.41147e-01,3.13495e+00
1.45038e-01,2.90604e+00
1.49037e-01,2.69249e+00
1.53147e-01,2.49334e+00
1.57369e-01,2.30771e+00
1.61708e-01,2.13475e+00
1.66167e-01,1.97367e+00
1.70748e-01,1.82374e+00
1.75456e-01,1.68423e+00
1.80294e-01,1.55449e+00
1.85265e-01,1.43388e+00
1.90373e-01,1.32183e+00
1.95622e-01,1.21777e+00
2.01015e-01,1.12118e+00
2.06558e-01,1.03157e+00
2.12253e-01,9.48473e-01
2.18105e-01,8.71456e-01
2.24118e-01,8.00109e-01
2.30298e-01,7.34048e-01
2.36648e-01,6.72912e-01
2.43172e-01,6.16362e-01
2.49877e-01,5.64079e-01
2.56767e-01,5.15767e-01
2.63846e-01,4.71146e-01
2.71121e-01,4.29955e-01
2.78596e-01,3.91948e-01
2.86277e-01,3.56898e-01
2.94171e-01,3.24589e-01
3.02281e-01,2.94822e-01
3.10616e-01,2.67410e-01
3.19180e-01,2.42179e-01
3.27980e-01,2.18966e-01
3.37023e-01,1.97620e-01
3.46316e-01,1.78001e-01
3.55864e-01,1.59975e-01
3.65676e-01,1.43423e-01
3.75758e-01,1.28229e-01
3.86119e-01,1.14289e-01
3.96765e-01,1.01504e-01
4.07704e-01,8.97842e-02
4.18945e-01,7.90449e-02
4.30496e-01,6.92081e-02
4.42366e-01,6.02017e-02
4.54563e-01,5.19587e-02
4.67096e-01,4.44173e-02
4.79975e-01,3.75204e-02
4.93208e-01,3.12152e-02
5.06807e-01,2.54531e-02
5.20781e-01,2.01891e-02
5.35139e-01,1.53817e-02
5.49894e-01,1.09929e-02
5.65056e-01,6.98749e-03
5.80635e-01,3.33310e-03
5.96644e-01,0.00000e+00
