m1=374478.268, m2=24.073, gsp=2.143, rhosp=1471.823
fGW[Hz],dPh[rad]
1.56093e-03,7.66522e+02
1.57684e-03,7.37977e+02
1.59291e-03,7.10478e+02
1.60914e-03,6.83986e+02
1.62554e-03,6.58465e+02
1.64211e-03,6.33882e+02
1.65884e-03,6.10201e+02
1.67575e-03,5.87391e+02
1.69283e-03,5.65421e+02
1.71008e-03,5.44260e+02
1.72751e-03,5.23878e+02
1.74512e-03,5.04249e+02
1.76290e-03,4.85344e+02
1.78087e-03,4.67137e+02
1.79902e-03,4.49604e+02
1.81736e-03,4.32719e+02
1.83588e-03,4.16460e+02
1.85459e-03,4.00803e+02
1.87349e-03,3.85726e+02
1.89259e-03,3.71209e+02
1.91187e-03,3.57231e+02
1.93136e-03,3.43772e+02
1.95104e-03,3.30813e+02
1.97093e-03,3.18337e+02
1.99102e-03,3.06325e+02
2.01131e-03,2.94761e+02
2.03181e-03,2.83628e+02
2.05252e-03,2.72910e+02
2.07343e-03,2.62592e+02
2.09457e-03,2.52659e+02
2.11591e-03,2.43098e+02
2.13748e-03,2.33894e+02
2.15926e-03,2.25034e+02
2.18127e-03,2.16506e+02
2.20350e-03,2.08298e+02
2.22596e-03,2.00397e+02
2.24865e-03,1.92792e+02
2.27156e-03,1.85473e+02
2.29471e-03,1.78428e+02
2.31810e-03,1.71648e+02
2.34173e-03,1.65123e+02
2.36559e-03,1.58843e+02
2.38970e-03,1.52800e+02
2.41406e-03,1.46983e+02
2.43866e-03,1.41386e+02
2.46352e-03,1.36000e+02
2.48862e-03,1.30816e+02
2.51399e-03,1.25828e+02
2.53961e-03,1.21028e+02
2.56549e-03,1.16410e+02
2.59164e-03,1.11965e+02
2.61805e-03,1.07689e+02
2.64474e-03,1.03574e+02
2.67169e-03,9.96149e+01
2.69892e-03,9.58054e+01
2.72643e-03,9.21400e+01
2.75422e-03,8.86134e+01
2.78229e-03,8.52204e+01
2.81064e-03,8.19559e+01
2.83929e-03,7.88151e+01
2.86823e-03,7.57933e+01
2.89746e-03,7.28862e+01
2.92699e-03,7.00894e+01
2.95682e-03,6.73987e+01
2.98695e-03,6.48102e+01
3.01740e-03,6.23201e+01
3.04815e-03,5.99245e+01
3.07922e-03,5.76200e+01
3.11060e-03,5.54031e+01
3.14230e-03,5.32705e+01
3.17433e-03,5.12191e+01
3.20668e-03,4.92457e+01
3.23936e-03,4.73475e+01
3.27238e-03,4.55216e+01
3.30573e-03,4.37652e+01
3.33942e-03,4.20757e+01
3.37345e-03,4.04507e+01
3.40784e-03,3.88876e+01
3.44257e-03,3.73842e+01
3.47765e-03,3.59380e+01
3.51310e-03,3.45471e+01
3.54890e-03,3.32093e+01
3.58507e-03,3.19226e+01
3.62161e-03,3.06850e+01
3.65852e-03,2.94946e+01
3.69581e-03,2.83498e+01
3.73348e-03,2.72488e+01
3.77153e-03,2.61898e+01
3.80996e-03,2.51713e+01
3.84880e-03,2.41918e+01
3.88802e-03,2.32498e+01
3.92765e-03,2.23438e+01
3.96768e-03,2.14725e+01
4.00812e-03,2.06345e+01
4.04897e-03,1.98287e+01
4.09023e-03,1.90537e+01
4.13192e-03,1.83084e+01
4.17403e-03,1.75917e+01
4.21657e-03,1.69024e+01
4.25955e-03,1.62396e+01
4.30296e-03,1.56022e+01
4.34681e-03,1.49892e+01
4.39112e-03,1.43997e+01
4.43587e-03,1.38329e+01
4.48108e-03,1.32878e+01
4.52675e-03,1.27637e+01
4.57288e-03,1.22596e+01
4.61949e-03,1.17749e+01
4.66657e-03,1.13089e+01
4.71413e-03,1.08607e+01
4.76218e-03,1.04297e+01
4.81071e-03,1.00153e+01
4.85974e-03,9.61688e+00
4.90927e-03,9.23372e+00
4.95931e-03,8.86530e+00
5.00985e-03,8.51105e+00
5.06091e-03,8.17042e+00
5.11249e-03,7.84289e+00
5.16460e-03,7.52795e+00
5.21723e-03,7.22514e+00
5.27041e-03,6.93398e+00
5.32412e-03,6.65402e+00
5.37838e-03,6.38484e+00
5.43320e-03,6.12602e+00
5.48857e-03,5.87716e+00
5.54451e-03,5.63789e+00
5.60102e-03,5.40784e+00
5.65810e-03,5.18664e+00
5.71577e-03,4.97396e+00
5.77403e-03,4.76948e+00
5.83287e-03,4.57288e+00
5.89232e-03,4.38386e+00
5.95237e-03,4.20211e+00
6.01304e-03,4.02738e+00
6.07432e-03,3.85938e+00
6.13623e-03,3.69786e+00
6.19877e-03,3.54256e+00
6.26195e-03,3.39326e+00
6.32577e-03,3.24971e+00
6.39024e-03,3.11170e+00
6.45537e-03,2.97902e+00
6.52116e-03,2.85145e+00
6.58762e-03,2.72880e+00
6.65476e-03,2.61089e+00
6.72259e-03,2.49753e+00
6.79110e-03,2.38854e+00
6.86032e-03,2.28376e+00
6.93023e-03,2.18303e+00
7.00087e-03,2.08618e+00
7.07222e-03,1.99308e+00
7.14430e-03,1.90356e+00
7.21711e-03,1.81751e+00
7.29067e-03,1.73478e+00
7.36497e-03,1.65524e+00
7.44003e-03,1.57878e+00
7.51586e-03,1.50527e+00
7.59246e-03,1.43460e+00
7.66984e-03,1.36666e+00
7.74801e-03,1.30135e+00
7.82698e-03,1.23856e+00
7.90675e-03,1.17819e+00
7.98733e-03,1.12016e+00
8.06874e-03,1.06437e+00
8.15097e-03,1.01074e+00
8.23405e-03,9.59184e-01
8.31797e-03,9.09619e-01
8.40274e-03,8.61971e-01
8.48838e-03,8.16164e-01
8.57489e-03,7.72130e-01
8.66229e-03,7.29797e-01
8.75057e-03,6.89102e-01
8.83976e-03,6.49981e-01
8.92985e-03,6.12373e-01
9.02086e-03,5.76220e-01
9.11280e-03,5.41465e-01
9.20567e-03,5.08055e-01
9.29950e-03,4.75937e-01
9.39428e-03,4.45062e-01
9.49002e-03,4.15381e-01
9.58674e-03,3.86849e-01
9.68445e-03,3.59421e-01
9.78315e-03,3.33055e-01
9.88286e-03,3.07708e-01
9.98358e-03,2.83343e-01
1.00853e-02,2.59921e-01
1.01881e-02,2.37405e-01
1.02920e-02,2.15761e-01
1.03968e-02,1.94955e-01
1.05028e-02,1.74954e-01
1.06099e-02,1.55727e-01
1.07180e-02,1.37245e-01
1.08272e-02,1.19479e-01
1.09376e-02,1.02400e-01
1.10490e-02,8.59825e-02
1.11617e-02,7.02008e-02
1.12754e-02,5.50302e-02
1.13903e-02,4.04472e-02
1.15064e-02,2.64289e-02
1.16237e-02,1.29535e-02
1.17422e-02,0.00000e+00
