m1=6004.424, m2=8.024, gsp=2.284, rhosp=858.351
fGW[Hz],dPh[rad]
6.62391e-03,1.45754e+04
6.78242e-03,1.38374e+04
6.94473e-03,1.31363e+04
7.11093e-03,1.24702e+04
7.28110e-03,1.18374e+04
7.45534e-03,1.12362e+04
7.63376e-03,1.06650e+04
7.81644e-03,1.01225e+04
8.00349e-03,9.60709e+03
8.19503e-03,9.11750e+03
8.39114e-03,8.65243e+03
8.59195e-03,8.21068e+03
8.79756e-03,7.79107e+03
9.00810e-03,7.39251e+03
9.22367e-03,7.01396e+03
9.44440e-03,6.65442e+03
9.67041e-03,6.31294e+03
9.90184e-03,5.98863e+03
1.01388e-02,5.68063e+03
1.03814e-02,5.38813e+03
1.06299e-02,5.11036e+03
1.08842e-02,4.84659e+03
1.11447e-02,4.59612e+03
1.14114e-02,4.35829e+03
1.16845e-02,4.13247e+03
1.19641e-02,3.91806e+03
1.22504e-02,3.71449e+03
1.25436e-02,3.52123e+03
1.28438e-02,3.33775e+03
1.31512e-02,3.16357e+03
1.34659e-02,2.99823e+03
1.37881e-02,2.84128e+03
1.41181e-02,2.69232e+03
1.44559e-02,2.55092e+03
1.48019e-02,2.41673e+03
1.51561e-02,2.28938e+03
1.55188e-02,2.16852e+03
1.58902e-02,2.05384e+03
1.62705e-02,1.94502e+03
1.66598e-02,1.84177e+03
1.70585e-02,1.74381e+03
1.74667e-02,1.65088e+03
1.78847e-02,1.56272e+03
1.83127e-02,1.47910e+03
1.87510e-02,1.39978e+03
1.91997e-02,1.32455e+03
1.96592e-02,1.25321e+03
2.01296e-02,1.18556e+03
2.06114e-02,1.12141e+03
2.11046e-02,1.06059e+03
2.16097e-02,1.00293e+03
2.21268e-02,9.48266e+02
2.26563e-02,8.96453e+02
2.31985e-02,8.47346e+02
2.37537e-02,8.00807e+02
2.43221e-02,7.56707e+02
2.49042e-02,7.14921e+02
2.55002e-02,6.75334e+02
2.61104e-02,6.37832e+02
2.67353e-02,6.02310e+02
2.73751e-02,5.68668e+02
2.80302e-02,5.36810e+02
2.87010e-02,5.06645e+02
2.93878e-02,4.78087e+02
3.00911e-02,4.51053e+02
3.08112e-02,4.25466e+02
3.15485e-02,4.01252e+02
3.23035e-02,3.78339e+02
3.30766e-02,3.56663e+02
3.38681e-02,3.36157e+02
3.46786e-02,3.16764e+02
3.55085e-02,2.98424e+02
3.63583e-02,2.81084e+02
3.72283e-02,2.64693e+02
3.81193e-02,2.49200e+02
3.90315e-02,2.34559e+02
3.99655e-02,2.20726e+02
4.09220e-02,2.07658e+02
4.19013e-02,1.95316e+02
4.29040e-02,1.83662e+02
4.39307e-02,1.72659e+02
4.49820e-02,1.62274e+02
4.60585e-02,1.52473e+02
4.71607e-02,1.43226e+02
4.82893e-02,1.34504e+02
4.94449e-02,1.26278e+02
5.06282e-02,1.18522e+02
5.18398e-02,1.11211e+02
5.30804e-02,1.04322e+02
5.43506e-02,9.78306e+01
5.56513e-02,9.17164e+01
5.69831e-02,8.59589e+01
5.83467e-02,8.05387e+01
5.97430e-02,7.54373e+01
6.11727e-02,7.06374e+01
6.26367e-02,6.61224e+01
6.41356e-02,6.18765e+01
6.56705e-02,5.78850e+01
6.72420e-02,5.41337e+01
6.88512e-02,5.06093e+01
7.04989e-02,4.72989e+01
7.21860e-02,4.41907e+01
7.39134e-02,4.12731e+01
7.56823e-02,3.85353e+01
7.74934e-02,3.59672e+01
7.93479e-02,3.35589e+01
8.12468e-02,3.13014e+01
8.31911e-02,2.91859e+01
8.51819e-02,2.72040e+01
8.72204e-02,2.53482e+01
8.93077e-02,2.36108e+01
9.14449e-02,2.19850e+01
9.36333e-02,2.04641e+01
9.58740e-02,1.90419e+01
9.81684e-02,1.77124e+01
1.00518e-01,1.64701e+01
1.02923e-01,1.53096e+01
1.05386e-01,1.42260e+01
1.07908e-01,1.32146e+01
1.10491e-01,1.22708e+01
1.13135e-01,1.13906e+01
1.15842e-01,1.05699e+01
1.18614e-01,9.80497e+00
1.21453e-01,9.09233e+00
1.24359e-01,8.42863e+00
1.27335e-01,7.81076e+00
1.30383e-01,7.23575e+00
1.33503e-01,6.70085e+00
1.36698e-01,6.20343e+00
1.39969e-01,5.74104e+00
1.43319e-01,5.31137e+00
1.46748e-01,4.91226e+00
1.50260e-01,4.54167e+00
1.53856e-01,4.19768e+00
1.57538e-01,3.87851e+00
1.61308e-01,3.58246e+00
1.65168e-01,3.30796e+00
1.69121e-01,3.05353e+00
1.73168e-01,2.81779e+00
1.77312e-01,2.59944e+00
1.81555e-01,2.39726e+00
1.85900e-01,2.21012e+00
1.90349e-01,2.03696e+00
1.94904e-01,1.87679e+00
1.99568e-01,1.72867e+00
2.04344e-01,1.59176e+00
2.09234e-01,1.46523e+00
2.14242e-01,1.34834e+00
2.19369e-01,1.24039e+00
2.24618e-01,1.14072e+00
2.29994e-01,1.04872e+00
2.35498e-01,9.63833e-01
2.41133e-01,8.85525e-01
2.46904e-01,8.13307e-01
2.52813e-01,7.46724e-01
2.58863e-01,6.85353e-01
2.65057e-01,6.28800e-01
2.71401e-01,5.76700e-01
2.77895e-01,5.28714e-01
2.84546e-01,4.84529e-01
2.91355e-01,4.43852e-01
2.98328e-01,4.06415e-01
3.05467e-01,3.71966e-01
3.12777e-01,3.40274e-01
3.20262e-01,3.11125e-01
3.27926e-01,2.84320e-01
3.35774e-01,2.59676e-01
3.43809e-01,2.37024e-01
3.52037e-01,2.16205e-01
3.60461e-01,1.97076e-01
3.69088e-01,1.79502e-01
3.77920e-01,1.63360e-01
3.86964e-01,1.48536e-01
3.96225e-01,1.34924e-01
4.05707e-01,1.22427e-01
4.15416e-01,1.10957e-01
4.25357e-01,1.00429e-01
4.35536e-01,9.07682e-02
4.45959e-01,8.19045e-02
4.56631e-01,7.37730e-02
4.67559e-01,6.63144e-02
4.78748e-01,5.94738e-02
4.90205e-01,5.32008e-02
5.01936e-01,4.74490e-02
5.13948e-01,4.21758e-02
5.26247e-01,3.73419e-02
5.38841e-01,3.29112e-02
5.51736e-01,2.88504e-02
5.64939e-01,2.51292e-02
5.78459e-01,2.17194e-02
5.92302e-01,1.85953e-02
6.06476e-01,1.57332e-02
6.20990e-01,1.31114e-02
6.35851e-01,1.07099e-02
6.51067e-01,8.51036e-03
6.66648e-01,6.49603e-03
6.82601e-01,4.65142e-03
6.98937e-01,2.96237e-03
7.15663e-01,1.41588e-03
7.32789e-01,0.00000e+00
