m1=123147.566, m2=34.278, gsp=2.449, rhosp=570.348
fGW[Hz],dPh[rad]
1.80545e-03,2.01346e+05
1.83274e-03,1.93042e+05
1.86043e-03,1.85055e+05
1.88854e-03,1.77376e+05
1.91708e-03,1.69992e+05
1.94605e-03,1.62893e+05
1.97546e-03,1.56070e+05
2.00531e-03,1.49512e+05
2.03561e-03,1.43210e+05
2.06637e-03,1.37155e+05
2.09760e-03,1.31338e+05
2.12930e-03,1.25751e+05
2.16147e-03,1.20385e+05
2.19413e-03,1.15232e+05
2.22729e-03,1.10285e+05
2.26095e-03,1.05536e+05
2.29511e-03,1.00977e+05
2.32979e-03,9.66020e+04
2.36500e-03,9.24039e+04
2.40074e-03,8.83763e+04
2.43702e-03,8.45126e+04
2.47384e-03,8.08069e+04
2.51123e-03,7.72531e+04
2.54917e-03,7.38456e+04
2.58769e-03,7.05789e+04
2.62680e-03,6.74475e+04
2.66649e-03,6.44464e+04
2.70678e-03,6.15705e+04
2.74769e-03,5.88151e+04
2.78921e-03,5.61754e+04
2.83136e-03,5.36471e+04
2.87414e-03,5.12258e+04
2.91757e-03,4.89074e+04
2.96166e-03,4.66877e+04
3.00642e-03,4.45629e+04
3.05185e-03,4.25293e+04
3.09796e-03,4.05832e+04
3.14478e-03,3.87211e+04
3.19230e-03,3.69398e+04
3.24054e-03,3.52359e+04
3.28951e-03,3.36064e+04
3.33921e-03,3.20482e+04
3.38967e-03,3.05584e+04
3.44090e-03,2.91342e+04
3.49289e-03,2.77730e+04
3.54567e-03,2.64721e+04
3.59925e-03,2.52291e+04
3.65364e-03,2.40416e+04
3.70885e-03,2.29072e+04
3.76490e-03,2.18237e+04
3.82179e-03,2.07891e+04
3.87954e-03,1.98011e+04
3.93817e-03,1.88580e+04
3.99768e-03,1.79577e+04
4.05809e-03,1.70984e+04
4.11941e-03,1.62784e+04
4.18166e-03,1.54961e+04
4.24485e-03,1.47496e+04
4.30899e-03,1.40377e+04
4.37411e-03,1.33586e+04
4.44020e-03,1.27110e+04
4.50730e-03,1.20935e+04
4.57541e-03,1.15048e+04
4.64455e-03,1.09437e+04
4.71474e-03,1.04088e+04
4.78598e-03,9.89907e+03
4.85830e-03,9.41336e+03
4.93172e-03,8.95059e+03
5.00624e-03,8.50973e+03
5.08189e-03,8.08980e+03
5.15869e-03,7.68986e+03
5.23664e-03,7.30900e+03
5.31577e-03,6.94635e+03
5.39610e-03,6.60108e+03
5.47764e-03,6.27240e+03
5.56041e-03,5.95955e+03
5.64444e-03,5.66179e+03
5.72973e-03,5.37844e+03
5.81632e-03,5.10882e+03
5.90421e-03,4.85230e+03
5.99343e-03,4.60827e+03
6.08399e-03,4.37614e+03
6.17593e-03,4.15536e+03
6.26926e-03,3.94540e+03
6.36399e-03,3.74574e+03
6.46016e-03,3.55590e+03
6.55778e-03,3.37541e+03
6.65688e-03,3.20383e+03
6.75747e-03,3.04074e+03
6.85958e-03,2.88573e+03
6.96324e-03,2.73841e+03
7.06846e-03,2.59842e+03
7.17528e-03,2.46540e+03
7.28370e-03,2.33902e+03
7.39377e-03,2.21895e+03
7.50550e-03,2.10490e+03
7.61891e-03,1.99656e+03
7.73404e-03,1.89367e+03
7.85091e-03,1.79595e+03
7.96955e-03,1.70315e+03
8.08998e-03,1.61504e+03
8.21223e-03,1.53138e+03
8.33633e-03,1.45195e+03
8.46230e-03,1.37654e+03
8.59017e-03,1.30496e+03
8.71998e-03,1.23702e+03
8.85175e-03,1.17254e+03
8.98551e-03,1.11134e+03
9.12129e-03,1.05326e+03
9.25913e-03,9.98150e+02
9.39904e-03,9.45857e+02
9.54107e-03,8.96242e+02
9.68525e-03,8.49170e+02
9.83161e-03,8.04514e+02
9.98017e-03,7.62153e+02
1.01310e-02,7.21970e+02
1.02841e-02,6.83856e+02
1.04395e-02,6.47708e+02
1.05972e-02,6.13424e+02
1.07574e-02,5.80912e+02
1.09199e-02,5.50080e+02
1.10849e-02,5.20845e+02
1.12524e-02,4.93124e+02
1.14225e-02,4.66841e+02
1.15951e-02,4.41922e+02
1.17703e-02,4.18297e+02
1.19482e-02,3.95901e+02
1.21287e-02,3.74671e+02
1.23120e-02,3.54546e+02
1.24981e-02,3.35471e+02
1.26869e-02,3.17391e+02
1.28786e-02,3.00254e+02
1.30732e-02,2.84014e+02
1.32708e-02,2.68622e+02
1.34713e-02,2.54036e+02
1.36749e-02,2.40214e+02
1.38815e-02,2.27117e+02
1.40913e-02,2.14706e+02
1.43042e-02,2.02947e+02
1.45204e-02,1.91805e+02
1.47398e-02,1.81249e+02
1.49626e-02,1.71248e+02
1.51887e-02,1.61773e+02
1.54182e-02,1.52796e+02
1.56512e-02,1.44293e+02
1.58877e-02,1.36238e+02
1.61277e-02,1.28608e+02
1.63715e-02,1.21380e+02
1.66188e-02,1.14534e+02
1.68700e-02,1.08050e+02
1.71249e-02,1.01908e+02
1.73837e-02,9.60916e+01
1.76464e-02,9.05826e+01
1.79130e-02,8.53651e+01
1.81837e-02,8.04239e+01
1.84585e-02,7.57445e+01
1.87374e-02,7.13132e+01
1.90206e-02,6.71168e+01
1.93080e-02,6.31431e+01
1.95998e-02,5.93803e+01
1.98959e-02,5.58172e+01
2.01966e-02,5.24435e+01
2.05018e-02,4.92489e+01
2.08116e-02,4.62243e+01
2.11261e-02,4.33604e+01
2.14453e-02,4.06489e+01
2.17694e-02,3.80817e+01
2.20983e-02,3.56512e+01
2.24323e-02,3.33501e+01
2.27712e-02,3.11716e+01
2.31153e-02,2.91091e+01
2.34646e-02,2.71566e+01
2.38192e-02,2.53082e+01
2.41792e-02,2.35584e+01
2.45445e-02,2.19020e+01
2.49154e-02,2.03340e+01
2.52919e-02,1.88496e+01
2.56741e-02,1.74446e+01
2.60621e-02,1.61145e+01
2.64559e-02,1.48556e+01
2.68557e-02,1.36639e+01
2.72615e-02,1.25359e+01
2.76735e-02,1.14682e+01
2.80917e-02,1.04576e+01
2.85162e-02,9.50112e+00
2.89471e-02,8.59578e+00
2.93845e-02,7.73888e+00
2.98285e-02,6.92786e+00
3.02793e-02,6.16025e+00
3.07368e-02,5.43375e+00
3.12013e-02,4.74615e+00
3.16728e-02,4.09540e+00
3.21514e-02,3.47951e+00
3.26372e-02,2.89662e+00
3.31304e-02,2.34498e+00
3.36311e-02,1.82291e+00
3.41393e-02,1.32884e+00
3.46552e-02,8.61261e-01
3.51788e-02,4.18761e-01
3.57104e-02,0.00000e+00
