m1=855548.521, m2=3.369, gsp=2.256, rhosp=48.175
fGW[Hz],dPh[rad]
2.65426e-03,3.70118e+02
2.66309e-03,3.65039e+02
2.67195e-03,3.60025e+02
2.68084e-03,3.55074e+02
2.68975e-03,3.50185e+02
2.69870e-03,3.45358e+02
2.70767e-03,3.40592e+02
2.71668e-03,3.35886e+02
2.72572e-03,3.31240e+02
2.73478e-03,3.26652e+02
2.74388e-03,3.22122e+02
2.75300e-03,3.17649e+02
2.76216e-03,3.13233e+02
2.77135e-03,3.08873e+02
2.78057e-03,3.04567e+02
2.78981e-03,3.00316e+02
2.79909e-03,2.96119e+02
2.80840e-03,2.91974e+02
2.81774e-03,2.87882e+02
2.82712e-03,2.83842e+02
2.83652e-03,2.79853e+02
2.84595e-03,2.75914e+02
2.85542e-03,2.72024e+02
2.86492e-03,2.68184e+02
2.87444e-03,2.64393e+02
2.88400e-03,2.60649e+02
2.89360e-03,2.56952e+02
2.90322e-03,2.53303e+02
2.91288e-03,2.49699e+02
2.92257e-03,2.46140e+02
2.93229e-03,2.42627e+02
2.94204e-03,2.39158e+02
2.95182e-03,2.35733e+02
2.96164e-03,2.32351e+02
2.97149e-03,2.29012e+02
2.98138e-03,2.25715e+02
2.99129e-03,2.22459e+02
3.00124e-03,2.19245e+02
3.01122e-03,2.16071e+02
3.02124e-03,2.12938e+02
3.03129e-03,2.09844e+02
3.04137e-03,2.06789e+02
3.05148e-03,2.03772e+02
3.06163e-03,2.00794e+02
3.07182e-03,1.97853e+02
3.08203e-03,1.94949e+02
3.09228e-03,1.92082e+02
3.10257e-03,1.89252e+02
3.11289e-03,1.86457e+02
3.12324e-03,1.83697e+02
3.13363e-03,1.80972e+02
3.14405e-03,1.78282e+02
3.15451e-03,1.75625e+02
3.16500e-03,1.73002e+02
3.17553e-03,1.70413e+02
3.18609e-03,1.67855e+02
3.19669e-03,1.65331e+02
3.20732e-03,1.62838e+02
3.21799e-03,1.60376e+02
3.22869e-03,1.57946e+02
3.23943e-03,1.55546e+02
3.25020e-03,1.53177e+02
3.26101e-03,1.50837e+02
3.27186e-03,1.48527e+02
3.28274e-03,1.46247e+02
3.29366e-03,1.43995e+02
3.30462e-03,1.41771e+02
3.31561e-03,1.39576e+02
3.32663e-03,1.37408e+02
3.33770e-03,1.35268e+02
3.34880e-03,1.33154e+02
3.35994e-03,1.31068e+02
3.37111e-03,1.29008e+02
3.38233e-03,1.26973e+02
3.39358e-03,1.24965e+02
3.40486e-03,1.22982e+02
3.41619e-03,1.21023e+02
3.42755e-03,1.19090e+02
3.43895e-03,1.17181e+02
3.45039e-03,1.15296e+02
3.46186e-03,1.13435e+02
3.47338e-03,1.11597e+02
3.48493e-03,1.09783e+02
3.49652e-03,1.07992e+02
3.50815e-03,1.06223e+02
3.51982e-03,1.04476e+02
3.53153e-03,1.02752e+02
3.54327e-03,1.01049e+02
3.55506e-03,9.93679e+01
3.56688e-03,9.77080e+01
3.57874e-03,9.60690e+01
3.59065e-03,9.44508e+01
3.60259e-03,9.28529e+01
3.61457e-03,9.12753e+01
3.62659e-03,8.97175e+01
3.63866e-03,8.81795e+01
3.65076e-03,8.66608e+01
3.66290e-03,8.51614e+01
3.67508e-03,8.36809e+01
3.68731e-03,8.22191e+01
3.69957e-03,8.07757e+01
3.71188e-03,7.93506e+01
3.72422e-03,7.79434e+01
3.73661e-03,7.65541e+01
3.74904e-03,7.51823e+01
3.76151e-03,7.38278e+01
3.77402e-03,7.24904e+01
3.78657e-03,7.11699e+01
3.79916e-03,6.98661e+01
3.81180e-03,6.85788e+01
3.82448e-03,6.73077e+01
3.83720e-03,6.60526e+01
3.84996e-03,6.48135e+01
3.86277e-03,6.35899e+01
3.87561e-03,6.23818e+01
3.88850e-03,6.11890e+01
3.90144e-03,6.00113e+01
3.91441e-03,5.88484e+01
3.92743e-03,5.77002e+01
3.94050e-03,5.65665e+01
3.95360e-03,5.54471e+01
3.96675e-03,5.43419e+01
3.97995e-03,5.32506e+01
3.99318e-03,5.21731e+01
4.00646e-03,5.11092e+01
4.01979e-03,5.00588e+01
4.03316e-03,4.90216e+01
4.04657e-03,4.79975e+01
4.06003e-03,4.69864e+01
4.07354e-03,4.59880e+01
4.08709e-03,4.50023e+01
4.10068e-03,4.40289e+01
4.11432e-03,4.30679e+01
4.12800e-03,4.21190e+01
4.14173e-03,4.11821e+01
4.15551e-03,4.02571e+01
4.16933e-03,3.93437e+01
4.18320e-03,3.84419e+01
4.19711e-03,3.75514e+01
4.21107e-03,3.66722e+01
4.22508e-03,3.58041e+01
4.23913e-03,3.49470e+01
4.25323e-03,3.41007e+01
4.26737e-03,3.32650e+01
4.28157e-03,3.24400e+01
4.29581e-03,3.16253e+01
4.31010e-03,3.08210e+01
4.32443e-03,3.00268e+01
4.33881e-03,2.92426e+01
4.35324e-03,2.84684e+01
4.36772e-03,2.77039e+01
4.38225e-03,2.69491e+01
4.39683e-03,2.62038e+01
4.41145e-03,2.54679e+01
4.42612e-03,2.47413e+01
4.44084e-03,2.40239e+01
4.45561e-03,2.33156e+01
4.47043e-03,2.26162e+01
4.48530e-03,2.19256e+01
4.50022e-03,2.12438e+01
4.51519e-03,2.05705e+01
4.53021e-03,1.99058e+01
4.54527e-03,1.92495e+01
4.56039e-03,1.86015e+01
4.57556e-03,1.79616e+01
4.59078e-03,1.73299e+01
4.60605e-03,1.67061e+01
4.62137e-03,1.60902e+01
4.63674e-03,1.54820e+01
4.65216e-03,1.48816e+01
4.66763e-03,1.42887e+01
4.68316e-03,1.37033e+01
4.69873e-03,1.31254e+01
4.71436e-03,1.25547e+01
4.73004e-03,1.19912e+01
4.74577e-03,1.14349e+01
4.76156e-03,1.08855e+01
4.77740e-03,1.03432e+01
4.79328e-03,9.80762e+00
4.80923e-03,9.27885e+00
4.82522e-03,8.75676e+00
4.84127e-03,8.24126e+00
4.85737e-03,7.73228e+00
4.87353e-03,7.22972e+00
4.88974e-03,6.73352e+00
4.90600e-03,6.24358e+00
4.92232e-03,5.75983e+00
4.93869e-03,5.28219e+00
4.95512e-03,4.81058e+00
4.97160e-03,4.34493e+00
4.98813e-03,3.88516e+00
5.00472e-03,3.43121e+00
5.02137e-03,2.98298e+00
5.03807e-03,2.54042e+00
5.05483e-03,2.10345e+00
5.07164e-03,1.67199e+00
5.08851e-03,1.24599e+00
5.10543e-03,8.25370e-01
5.12241e-03,4.10062e-01
5.13945e-03,0.00000e+00
