m1=142944.270, m2=5.157, gsp=2.339, rhosp=1003.727
fGW[Hz],dPh[rad]
3.53903e-03,3.72280e+04
3.57770e-03,3.57803e+04
3.61679e-03,3.43880e+04
3.65630e-03,3.30492e+04
3.69625e-03,3.17618e+04
3.73663e-03,3.05239e+04
3.77746e-03,2.93336e+04
3.81873e-03,2.81892e+04
3.86045e-03,2.70888e+04
3.90263e-03,2.60308e+04
3.94527e-03,2.50137e+04
3.98837e-03,2.40358e+04
4.03195e-03,2.30957e+04
4.07600e-03,2.21919e+04
4.12053e-03,2.13231e+04
4.16555e-03,2.04879e+04
4.21106e-03,1.96850e+04
4.25707e-03,1.89133e+04
4.30358e-03,1.81714e+04
4.35060e-03,1.74584e+04
4.39813e-03,1.67730e+04
4.44618e-03,1.61143e+04
4.49476e-03,1.54811e+04
4.54387e-03,1.48726e+04
4.59351e-03,1.42878e+04
4.64370e-03,1.37257e+04
4.69443e-03,1.31855e+04
4.74572e-03,1.26664e+04
4.79757e-03,1.21675e+04
4.84999e-03,1.16880e+04
4.90298e-03,1.12273e+04
4.95655e-03,1.07846e+04
5.01070e-03,1.03591e+04
5.06544e-03,9.95032e+03
5.12079e-03,9.55750e+03
5.17673e-03,9.18004e+03
5.23329e-03,8.81737e+03
5.29047e-03,8.46889e+03
5.34827e-03,8.13406e+03
5.40670e-03,7.81236e+03
5.46577e-03,7.50327e+03
5.52549e-03,7.20630e+03
5.58586e-03,6.92099e+03
5.64689e-03,6.64688e+03
5.70858e-03,6.38353e+03
5.77095e-03,6.13053e+03
5.83401e-03,5.88748e+03
5.89775e-03,5.65398e+03
5.96218e-03,5.42966e+03
6.02732e-03,5.21417e+03
6.09317e-03,5.00717e+03
6.15974e-03,4.80831e+03
6.22704e-03,4.61729e+03
6.29508e-03,4.43379e+03
6.36385e-03,4.25753e+03
6.43338e-03,4.08822e+03
6.50367e-03,3.92558e+03
6.57473e-03,3.76937e+03
6.64656e-03,3.61932e+03
6.71918e-03,3.47519e+03
6.79259e-03,3.33675e+03
6.86680e-03,3.20378e+03
6.94183e-03,3.07607e+03
7.01767e-03,2.95341e+03
7.09434e-03,2.83559e+03
7.17185e-03,2.72244e+03
7.25021e-03,2.61376e+03
7.32942e-03,2.50938e+03
7.40950e-03,2.40913e+03
7.49045e-03,2.31286e+03
7.57229e-03,2.22039e+03
7.65502e-03,2.13159e+03
7.73866e-03,2.04631e+03
7.82321e-03,1.96440e+03
7.90868e-03,1.88575e+03
7.99509e-03,1.81021e+03
8.08244e-03,1.73767e+03
8.17074e-03,1.66800e+03
8.26001e-03,1.60110e+03
8.35026e-03,1.53686e+03
8.44149e-03,1.47516e+03
8.53372e-03,1.41592e+03
8.62695e-03,1.35902e+03
8.72121e-03,1.30439e+03
8.81649e-03,1.25193e+03
8.91282e-03,1.20155e+03
9.01019e-03,1.15318e+03
9.10863e-03,1.10672e+03
9.20815e-03,1.06212e+03
9.30876e-03,1.01929e+03
9.41046e-03,9.78159e+02
9.51327e-03,9.38667e+02
9.61721e-03,9.00746e+02
9.72229e-03,8.64335e+02
9.82851e-03,8.29372e+02
9.93589e-03,7.95802e+02
1.00444e-02,7.63568e+02
1.01542e-02,7.32618e+02
1.02651e-02,7.02900e+02
1.03773e-02,6.74366e+02
1.04907e-02,6.46969e+02
1.06053e-02,6.20664e+02
1.07211e-02,5.95407e+02
1.08383e-02,5.71157e+02
1.09567e-02,5.47873e+02
1.10764e-02,5.25518e+02
1.11974e-02,5.04054e+02
1.13198e-02,4.83446e+02
1.14434e-02,4.63660e+02
1.15685e-02,4.44663e+02
1.16948e-02,4.26424e+02
1.18226e-02,4.08913e+02
1.19518e-02,3.92101e+02
1.20824e-02,3.75960e+02
1.22144e-02,3.60463e+02
1.23478e-02,3.45584e+02
1.24827e-02,3.31300e+02
1.26191e-02,3.17586e+02
1.27570e-02,3.04420e+02
1.28964e-02,2.91779e+02
1.30373e-02,2.79643e+02
1.31797e-02,2.67993e+02
1.33237e-02,2.56807e+02
1.34693e-02,2.46069e+02
1.36164e-02,2.35759e+02
1.37652e-02,2.25862e+02
1.39156e-02,2.16360e+02
1.40676e-02,2.07238e+02
1.42213e-02,1.98481e+02
1.43767e-02,1.90074e+02
1.45338e-02,1.82002e+02
1.46926e-02,1.74254e+02
1.48531e-02,1.66815e+02
1.50154e-02,1.59674e+02
1.51794e-02,1.52819e+02
1.53453e-02,1.46238e+02
1.55129e-02,1.39920e+02
1.56824e-02,1.33854e+02
1.58537e-02,1.28032e+02
1.60269e-02,1.22442e+02
1.62020e-02,1.17076e+02
1.63791e-02,1.11925e+02
1.65580e-02,1.06980e+02
1.67389e-02,1.02233e+02
1.69218e-02,9.76754e+01
1.71067e-02,9.33007e+01
1.72936e-02,8.91011e+01
1.74825e-02,8.50696e+01
1.76735e-02,8.11995e+01
1.78666e-02,7.74844e+01
1.80618e-02,7.39180e+01
1.82592e-02,7.04944e+01
1.84587e-02,6.72080e+01
1.86603e-02,6.40531e+01
1.88642e-02,6.10247e+01
1.90703e-02,5.81175e+01
1.92787e-02,5.53268e+01
1.94893e-02,5.26478e+01
1.97022e-02,5.00762e+01
1.99175e-02,4.76076e+01
2.01351e-02,4.52379e+01
2.03551e-02,4.29632e+01
2.05775e-02,4.07796e+01
2.08023e-02,3.86835e+01
2.10296e-02,3.66714e+01
2.12593e-02,3.47399e+01
2.14916e-02,3.28858e+01
2.17264e-02,3.11061e+01
2.19638e-02,2.93977e+01
2.22037e-02,2.77577e+01
2.24463e-02,2.61835e+01
2.26916e-02,2.46724e+01
2.29395e-02,2.32219e+01
2.31901e-02,2.18295e+01
2.34435e-02,2.04929e+01
2.36996e-02,1.92100e+01
2.39585e-02,1.79784e+01
2.42203e-02,1.67963e+01
2.44849e-02,1.56615e+01
2.47524e-02,1.45723e+01
2.50229e-02,1.35267e+01
2.52963e-02,1.25230e+01
2.55726e-02,1.15596e+01
2.58520e-02,1.06349e+01
2.61345e-02,9.74720e+00
2.64200e-02,8.89513e+00
2.67087e-02,8.07723e+00
2.70005e-02,7.29214e+00
2.72955e-02,6.53854e+00
2.75937e-02,5.81517e+00
2.78952e-02,5.12081e+00
2.81999e-02,4.45431e+00
2.85080e-02,3.81455e+00
2.88195e-02,3.20045e+00
2.91344e-02,2.61098e+00
2.94527e-02,2.04517e+00
2.97745e-02,1.50206e+00
3.00998e-02,9.80734e-01
3.04286e-02,4.80328e-01
3.07611e-02,0.00000e+00
