m1=2761.371, m2=39.281, gsp=2.463, rhosp=14.719
fGW[Hz],dPh[rad]
4.44095e-03,1.44466e+04
4.57434e-03,1.36052e+04
4.71174e-03,1.28128e+04
4.85326e-03,1.20665e+04
4.99903e-03,1.13637e+04
5.14918e-03,1.07017e+04
5.30384e-03,1.00783e+04
5.46315e-03,9.49111e+03
5.62724e-03,8.93811e+03
5.79626e-03,8.41730e+03
5.97036e-03,7.92680e+03
6.14968e-03,7.46485e+03
6.33439e-03,7.02978e+03
6.52465e-03,6.62003e+03
6.72063e-03,6.23413e+03
6.92249e-03,5.87070e+03
7.13041e-03,5.52841e+03
7.34458e-03,5.20605e+03
7.56518e-03,4.90245e+03
7.79241e-03,4.61653e+03
8.02646e-03,4.34725e+03
8.26754e-03,4.09365e+03
8.51587e-03,3.85481e+03
8.77165e-03,3.62988e+03
9.03512e-03,3.41804e+03
9.30649e-03,3.21854e+03
9.58602e-03,3.03066e+03
9.87395e-03,2.85371e+03
1.01705e-02,2.68707e+03
1.04760e-02,2.53014e+03
1.07907e-02,2.38234e+03
1.11148e-02,2.24316e+03
1.14486e-02,2.11208e+03
1.17925e-02,1.98863e+03
1.21467e-02,1.87238e+03
1.25115e-02,1.76290e+03
1.28873e-02,1.65980e+03
1.32744e-02,1.56271e+03
1.36731e-02,1.47127e+03
1.40838e-02,1.38517e+03
1.45068e-02,1.30408e+03
1.49425e-02,1.22772e+03
1.53914e-02,1.15581e+03
1.58536e-02,1.08809e+03
1.63298e-02,1.02432e+03
1.68203e-02,9.64269e+02
1.73255e-02,9.07721e+02
1.78459e-02,8.54471e+02
1.83819e-02,8.04327e+02
1.89341e-02,7.57109e+02
1.95028e-02,7.12646e+02
2.00885e-02,6.70777e+02
2.06919e-02,6.31353e+02
2.13134e-02,5.94229e+02
2.19536e-02,5.59274e+02
2.26130e-02,5.26359e+02
2.32922e-02,4.95367e+02
2.39918e-02,4.66186e+02
2.47124e-02,4.38709e+02
2.54547e-02,4.12838e+02
2.62192e-02,3.88480e+02
2.70068e-02,3.65545e+02
2.78179e-02,3.43952e+02
2.86535e-02,3.23621e+02
2.95141e-02,3.04481e+02
3.04006e-02,2.86460e+02
3.13137e-02,2.69494e+02
3.22542e-02,2.53522e+02
3.32230e-02,2.38485e+02
3.42209e-02,2.24330e+02
3.52488e-02,2.11004e+02
3.63075e-02,1.98459e+02
3.73980e-02,1.86650e+02
3.85213e-02,1.75534e+02
3.96783e-02,1.65070e+02
4.08701e-02,1.55221e+02
4.20977e-02,1.45950e+02
4.33621e-02,1.37225e+02
4.46646e-02,1.29012e+02
4.60061e-02,1.21282e+02
4.73879e-02,1.14008e+02
4.88113e-02,1.07161e+02
5.02774e-02,1.00719e+02
5.17875e-02,9.46554e+01
5.33430e-02,8.89499e+01
5.49452e-02,8.35812e+01
5.65955e-02,7.85296e+01
5.82955e-02,7.37765e+01
6.00464e-02,6.93045e+01
6.18500e-02,6.50972e+01
6.37077e-02,6.11390e+01
6.56212e-02,5.74155e+01
6.75922e-02,5.39129e+01
6.96224e-02,5.06183e+01
7.17136e-02,4.75195e+01
7.38676e-02,4.46050e+01
7.60863e-02,4.18640e+01
7.83716e-02,3.92865e+01
8.07256e-02,3.68627e+01
8.31502e-02,3.45837e+01
8.56477e-02,3.24410e+01
8.82202e-02,3.04265e+01
9.08700e-02,2.85329e+01
9.35994e-02,2.67529e+01
9.64107e-02,2.50798e+01
9.93065e-02,2.35075e+01
1.02289e-01,2.20300e+01
1.05362e-01,2.06417e+01
1.08526e-01,1.93373e+01
1.11786e-01,1.81119e+01
1.15144e-01,1.69608e+01
1.18602e-01,1.58797e+01
1.22164e-01,1.48645e+01
1.25834e-01,1.39111e+01
1.29613e-01,1.30161e+01
1.33506e-01,1.21758e+01
1.37516e-01,1.13872e+01
1.41647e-01,1.06470e+01
1.45901e-01,9.95253e+00
1.50284e-01,9.30095e+00
1.54797e-01,8.68975e+00
1.59447e-01,8.11652e+00
1.64236e-01,7.57899e+00
1.69169e-01,7.07504e+00
1.74250e-01,6.60266e+00
1.79484e-01,6.15996e+00
1.84875e-01,5.74515e+00
1.90428e-01,5.35657e+00
1.96148e-01,4.99263e+00
2.02039e-01,4.65186e+00
2.08107e-01,4.33285e+00
2.14358e-01,4.03429e+00
2.20797e-01,3.75493e+00
2.27428e-01,3.49362e+00
2.34260e-01,3.24925e+00
2.41296e-01,3.02078e+00
2.48543e-01,2.80726e+00
2.56009e-01,2.60775e+00
2.63698e-01,2.42141e+00
2.71618e-01,2.24740e+00
2.79777e-01,2.08498e+00
2.88180e-01,1.93343e+00
2.96836e-01,1.79206e+00
3.05752e-01,1.66024e+00
3.14935e-01,1.53737e+00
3.24395e-01,1.42289e+00
3.34138e-01,1.31626e+00
3.44174e-01,1.21700e+00
3.54512e-01,1.12462e+00
3.65160e-01,1.03870e+00
3.76128e-01,9.58800e-01
3.87425e-01,8.84548e-01
3.99062e-01,8.15572e-01
4.11048e-01,7.51527e-01
4.23394e-01,6.92090e-01
4.36112e-01,6.36956e-01
4.49211e-01,5.85839e-01
4.62703e-01,5.38471e-01
4.76601e-01,4.94599e-01
4.90916e-01,4.53987e-01
5.05661e-01,4.16413e-01
5.20849e-01,3.81668e-01
5.36493e-01,3.49557e-01
5.52607e-01,3.19897e-01
5.69206e-01,2.92517e-01
5.86302e-01,2.67255e-01
6.03912e-01,2.43961e-01
6.22051e-01,2.22494e-01
6.40735e-01,2.02722e-01
6.59981e-01,1.84523e-01
6.79804e-01,1.67780e-01
7.00222e-01,1.52387e-01
7.21254e-01,1.38243e-01
7.42918e-01,1.25254e-01
7.65232e-01,1.13334e-01
7.88216e-01,1.02400e-01
8.11891e-01,9.23775e-02
8.36277e-01,8.31952e-02
8.61396e-01,7.47878e-02
8.87269e-01,6.70944e-02
9.13919e-01,6.00584e-02
9.41369e-01,5.36274e-02
9.69644e-01,4.77526e-02
9.98768e-01,4.23889e-02
1.02877e+00,3.74946e-02
1.05967e+00,3.30311e-02
1.09150e+00,2.89626e-02
1.12428e+00,2.52561e-02
1.15805e+00,2.18812e-02
1.19283e+00,1.88098e-02
1.22866e+00,1.60160e-02
1.26556e+00,1.34760e-02
1.30358e+00,1.11678e-02
1.34273e+00,9.07136e-03
1.38306e+00,7.16801e-03
1.42460e+00,5.44079e-03
1.46739e+00,3.87409e-03
1.51147e+00,2.45362e-03
1.55686e+00,1.16625e-03
1.60363e+00,0.00000e+00
