m1=283765.068, m2=35.352, gsp=2.393, rhosp=347.457
fGW[Hz],dPh[rad]
1.44851e-03,4.54528e+04
1.46586e-03,4.36595e+04
1.48343e-03,4.19343e+04
1.50120e-03,4.02748e+04
1.51919e-03,3.86786e+04
1.53739e-03,3.71433e+04
1.55581e-03,3.56669e+04
1.57445e-03,3.42471e+04
1.59331e-03,3.28818e+04
1.61240e-03,3.15691e+04
1.63172e-03,3.03071e+04
1.65127e-03,2.90939e+04
1.67105e-03,2.79276e+04
1.69107e-03,2.68066e+04
1.71134e-03,2.57291e+04
1.73184e-03,2.46936e+04
1.75259e-03,2.36985e+04
1.77359e-03,2.27422e+04
1.79484e-03,2.18234e+04
1.81634e-03,2.09406e+04
1.83810e-03,2.00925e+04
1.86012e-03,1.92777e+04
1.88241e-03,1.84950e+04
1.90496e-03,1.77432e+04
1.92779e-03,1.70212e+04
1.95088e-03,1.63277e+04
1.97426e-03,1.56617e+04
1.99791e-03,1.50221e+04
2.02185e-03,1.44080e+04
2.04607e-03,1.38183e+04
2.07059e-03,1.32522e+04
2.09539e-03,1.27087e+04
2.12050e-03,1.21869e+04
2.14591e-03,1.16860e+04
2.17162e-03,1.12052e+04
2.19763e-03,1.07438e+04
2.22396e-03,1.03008e+04
2.25061e-03,9.87576e+03
2.27757e-03,9.46783e+03
2.30486e-03,9.07637e+03
2.33248e-03,8.70074e+03
2.36042e-03,8.34032e+03
2.38870e-03,7.99451e+03
2.41732e-03,7.66273e+03
2.44628e-03,7.34443e+03
2.47559e-03,7.03908e+03
2.50525e-03,6.74617e+03
2.53527e-03,6.46521e+03
2.56565e-03,6.19571e+03
2.59638e-03,5.93723e+03
2.62749e-03,5.68932e+03
2.65897e-03,5.45157e+03
2.69083e-03,5.22357e+03
2.72307e-03,5.00492e+03
2.75569e-03,4.79526e+03
2.78871e-03,4.59422e+03
2.82212e-03,4.40146e+03
2.85593e-03,4.21665e+03
2.89015e-03,4.03945e+03
2.92478e-03,3.86958e+03
2.95982e-03,3.70673e+03
2.99528e-03,3.55061e+03
3.03117e-03,3.40096e+03
3.06749e-03,3.25751e+03
3.10424e-03,3.12001e+03
3.14143e-03,2.98822e+03
3.17907e-03,2.86190e+03
3.21716e-03,2.74084e+03
3.25570e-03,2.62482e+03
3.29471e-03,2.51363e+03
3.33418e-03,2.40708e+03
3.37413e-03,2.30497e+03
3.41456e-03,2.20712e+03
3.45547e-03,2.11337e+03
3.49687e-03,2.02353e+03
3.53876e-03,1.93746e+03
3.58116e-03,1.85499e+03
3.62407e-03,1.77597e+03
3.66749e-03,1.70027e+03
3.71143e-03,1.62775e+03
3.75589e-03,1.55827e+03
3.80089e-03,1.49171e+03
3.84643e-03,1.42795e+03
3.89252e-03,1.36687e+03
3.93915e-03,1.30837e+03
3.98635e-03,1.25233e+03
4.03411e-03,1.19865e+03
4.08244e-03,1.14724e+03
4.13135e-03,1.09799e+03
4.18085e-03,1.05083e+03
4.23094e-03,1.00566e+03
4.28164e-03,9.62399e+02
4.33293e-03,9.20968e+02
4.38485e-03,8.81291e+02
4.43738e-03,8.43294e+02
4.49055e-03,8.06906e+02
4.54435e-03,7.72061e+02
4.59880e-03,7.38694e+02
4.65389e-03,7.06743e+02
4.70965e-03,6.76149e+02
4.76608e-03,6.46853e+02
4.82318e-03,6.18803e+02
4.88097e-03,5.91945e+02
4.93945e-03,5.66230e+02
4.99863e-03,5.41608e+02
5.05852e-03,5.18035e+02
5.11912e-03,4.95466e+02
5.18046e-03,4.73858e+02
5.24252e-03,4.53172e+02
5.30534e-03,4.33367e+02
5.36890e-03,4.14407e+02
5.43322e-03,3.96257e+02
5.49832e-03,3.78881e+02
5.56420e-03,3.62247e+02
5.63086e-03,3.46324e+02
5.69833e-03,3.31081e+02
5.76660e-03,3.16491e+02
5.83569e-03,3.02524e+02
5.90561e-03,2.89154e+02
5.97636e-03,2.76357e+02
6.04796e-03,2.64108e+02
6.12043e-03,2.52383e+02
6.19376e-03,2.41160e+02
6.26796e-03,2.30419e+02
6.34306e-03,2.20137e+02
6.41906e-03,2.10297e+02
6.49596e-03,2.00879e+02
6.57379e-03,1.91865e+02
6.65255e-03,1.83237e+02
6.73226e-03,1.74980e+02
6.81292e-03,1.67078e+02
6.89455e-03,1.59514e+02
6.97715e-03,1.52276e+02
7.06074e-03,1.45349e+02
7.14534e-03,1.38720e+02
7.23095e-03,1.32375e+02
7.31758e-03,1.26304e+02
7.40526e-03,1.20494e+02
7.49398e-03,1.14933e+02
7.58376e-03,1.09612e+02
7.67463e-03,1.04520e+02
7.76658e-03,9.96473e+01
7.85963e-03,9.49843e+01
7.95380e-03,9.05222e+01
8.04909e-03,8.62523e+01
8.14553e-03,8.21664e+01
8.24312e-03,7.82567e+01
8.34188e-03,7.45154e+01
8.44183e-03,7.09355e+01
8.54297e-03,6.75099e+01
8.64532e-03,6.42321e+01
8.74890e-03,6.10957e+01
8.85372e-03,5.80946e+01
8.95980e-03,5.52231e+01
9.06715e-03,5.24755e+01
9.17578e-03,4.98465e+01
9.28572e-03,4.73310e+01
9.39697e-03,4.49242e+01
9.50956e-03,4.26213e+01
9.62349e-03,4.04179e+01
9.73879e-03,3.83096e+01
9.85548e-03,3.62925e+01
9.97355e-03,3.43626e+01
1.00930e-02,3.25161e+01
1.02140e-02,3.07494e+01
1.03363e-02,2.90591e+01
1.04602e-02,2.74419e+01
1.05855e-02,2.58946e+01
1.07123e-02,2.44143e+01
1.08407e-02,2.29980e+01
1.09706e-02,2.16429e+01
1.11020e-02,2.03465e+01
1.12350e-02,1.91063e+01
1.13696e-02,1.79196e+01
1.15059e-02,1.67844e+01
1.16437e-02,1.56983e+01
1.17832e-02,1.46592e+01
1.19244e-02,1.36651e+01
1.20673e-02,1.27141e+01
1.22118e-02,1.18043e+01
1.23581e-02,1.09338e+01
1.25062e-02,1.01011e+01
1.26560e-02,9.30446e+00
1.28077e-02,8.54233e+00
1.29611e-02,7.81322e+00
1.31164e-02,7.11571e+00
1.32736e-02,6.44843e+00
1.34326e-02,5.81007e+00
1.35935e-02,5.19938e+00
1.37564e-02,4.61517e+00
1.39212e-02,4.05629e+00
1.40880e-02,3.52164e+00
1.42568e-02,3.01017e+00
1.44276e-02,2.52089e+00
1.46005e-02,2.05282e+00
1.47754e-02,1.60506e+00
1.49524e-02,1.17672e+00
1.51316e-02,7.66959e-01
1.53129e-02,3.74976e-01
1.54963e-02,0.00000e+00
