m1=23737.339, m2=10.116, gsp=2.429, rhosp=1426.460
fGW[Hz],dPh[rad]
4.30618e-03,3.45383e+05
4.38836e-03,3.30298e+05
4.47210e-03,3.15833e+05
4.55744e-03,3.01964e+05
4.64441e-03,2.88668e+05
4.73304e-03,2.75922e+05
4.82337e-03,2.63705e+05
4.91541e-03,2.51995e+05
5.00922e-03,2.40772e+05
5.10481e-03,2.30018e+05
5.20222e-03,2.19714e+05
5.30150e-03,2.09842e+05
5.40267e-03,2.00385e+05
5.50577e-03,1.91327e+05
5.61084e-03,1.82651e+05
5.71791e-03,1.74342e+05
5.82703e-03,1.66387e+05
5.93823e-03,1.58770e+05
6.05155e-03,1.51478e+05
6.16703e-03,1.44498e+05
6.28472e-03,1.37818e+05
6.40465e-03,1.31426e+05
6.52688e-03,1.25309e+05
6.65143e-03,1.19457e+05
6.77836e-03,1.13860e+05
6.90772e-03,1.08506e+05
7.03954e-03,1.03387e+05
7.17388e-03,9.84913e+04
7.31078e-03,9.38113e+04
7.45029e-03,8.93377e+04
7.59247e-03,8.50622e+04
7.73736e-03,8.09766e+04
7.88501e-03,7.70731e+04
8.03548e-03,7.33441e+04
8.18883e-03,6.97825e+04
8.34510e-03,6.63813e+04
8.50435e-03,6.31337e+04
8.66664e-03,6.00335e+04
8.83203e-03,5.70745e+04
9.00057e-03,5.42506e+04
9.17233e-03,5.15563e+04
9.34737e-03,4.89860e+04
9.52575e-03,4.65345e+04
9.70753e-03,4.41968e+04
9.89279e-03,4.19679e+04
1.00816e-02,3.98433e+04
1.02740e-02,3.78185e+04
1.04700e-02,3.58891e+04
1.06698e-02,3.40510e+04
1.08734e-02,3.23003e+04
1.10809e-02,3.06332e+04
1.12924e-02,2.90459e+04
1.15079e-02,2.75351e+04
1.17275e-02,2.60972e+04
1.19513e-02,2.47292e+04
1.21794e-02,2.34278e+04
1.24118e-02,2.21901e+04
1.26487e-02,2.10133e+04
1.28900e-02,1.98946e+04
1.31360e-02,1.88313e+04
1.33867e-02,1.78210e+04
1.36422e-02,1.68612e+04
1.39025e-02,1.59497e+04
1.41678e-02,1.50842e+04
1.44382e-02,1.42625e+04
1.47137e-02,1.34826e+04
1.49945e-02,1.27427e+04
1.52806e-02,1.20407e+04
1.55722e-02,1.13749e+04
1.58694e-02,1.07436e+04
1.61723e-02,1.01452e+04
1.64809e-02,9.57806e+03
1.67954e-02,9.04067e+03
1.71159e-02,8.53161e+03
1.74425e-02,8.04951e+03
1.77754e-02,7.59304e+03
1.81146e-02,7.16095e+03
1.84603e-02,6.75203e+03
1.88126e-02,6.36513e+03
1.91716e-02,5.99917e+03
1.95374e-02,5.65307e+03
1.99103e-02,5.32586e+03
2.02902e-02,5.01657e+03
2.06774e-02,4.72429e+03
2.10720e-02,4.44814e+03
2.14742e-02,4.18731e+03
2.18840e-02,3.94100e+03
2.23016e-02,3.70845e+03
2.27272e-02,3.48895e+03
2.31609e-02,3.28182e+03
2.36029e-02,3.08639e+03
2.40533e-02,2.90206e+03
2.45123e-02,2.72823e+03
2.49801e-02,2.56435e+03
2.54568e-02,2.40987e+03
2.59426e-02,2.26429e+03
2.64376e-02,2.12712e+03
2.69422e-02,1.99792e+03
2.74563e-02,1.87623e+03
2.79803e-02,1.76166e+03
2.85142e-02,1.65380e+03
2.90584e-02,1.55229e+03
2.96129e-02,1.45677e+03
3.01780e-02,1.36690e+03
3.07539e-02,1.28237e+03
3.13408e-02,1.20288e+03
3.19389e-02,1.12813e+03
3.25484e-02,1.05787e+03
3.31695e-02,9.91835e+02
3.38025e-02,9.29779e+02
3.44476e-02,8.71476e+02
3.51049e-02,8.16709e+02
3.57748e-02,7.65272e+02
3.64575e-02,7.16972e+02
3.71533e-02,6.71625e+02
3.78623e-02,6.29058e+02
3.85848e-02,5.89107e+02
3.93212e-02,5.51618e+02
4.00715e-02,5.16444e+02
4.08362e-02,4.83448e+02
4.16155e-02,4.52499e+02
4.24097e-02,4.23476e+02
4.32190e-02,3.96262e+02
4.40438e-02,3.70748e+02
4.48843e-02,3.46832e+02
4.57408e-02,3.24417e+02
4.66137e-02,3.03411e+02
4.75032e-02,2.83729e+02
4.84098e-02,2.65289e+02
4.93336e-02,2.48015e+02
5.02750e-02,2.31837e+02
5.12344e-02,2.16685e+02
5.22122e-02,2.02497e+02
5.32085e-02,1.89213e+02
5.42239e-02,1.76777e+02
5.52587e-02,1.65136e+02
5.63132e-02,1.54241e+02
5.73879e-02,1.44044e+02
5.84830e-02,1.34502e+02
5.95991e-02,1.25574e+02
6.07364e-02,1.17221e+02
6.18955e-02,1.09408e+02
6.30766e-02,1.02099e+02
6.42804e-02,9.52627e+01
6.55070e-02,8.88695e+01
6.67571e-02,8.28910e+01
6.80311e-02,7.73008e+01
6.93293e-02,7.20742e+01
7.06524e-02,6.71879e+01
7.20007e-02,6.26200e+01
7.33747e-02,5.83503e+01
7.47749e-02,5.43595e+01
7.62018e-02,5.06297e+01
7.76560e-02,4.71441e+01
7.91380e-02,4.38869e+01
8.06482e-02,4.08433e+01
8.21872e-02,3.79997e+01
8.37556e-02,3.53429e+01
8.53540e-02,3.28609e+01
8.69828e-02,3.05423e+01
8.86427e-02,2.83765e+01
9.03343e-02,2.63535e+01
9.20582e-02,2.44641e+01
9.38150e-02,2.26995e+01
9.56053e-02,2.10515e+01
9.74297e-02,1.95126e+01
9.92890e-02,1.80756e+01
1.01184e-01,1.67337e+01
1.03115e-01,1.54809e+01
1.05082e-01,1.43111e+01
1.07088e-01,1.32190e+01
1.09131e-01,1.21995e+01
1.11214e-01,1.12477e+01
1.13336e-01,1.03592e+01
1.15499e-01,9.52983e+00
1.17703e-01,8.75569e+00
1.19949e-01,8.03313e+00
1.22238e-01,7.35872e+00
1.24571e-01,6.72929e+00
1.26948e-01,6.14185e+00
1.29371e-01,5.59363e+00
1.31840e-01,5.08202e+00
1.34356e-01,4.60459e+00
1.36920e-01,4.15908e+00
1.39533e-01,3.74335e+00
1.42195e-01,3.35544e+00
1.44909e-01,2.99349e+00
1.47674e-01,2.65578e+00
1.50492e-01,2.34068e+00
1.53364e-01,2.04670e+00
1.56291e-01,1.77242e+00
1.59274e-01,1.51653e+00
1.62313e-01,1.27780e+00
1.65410e-01,1.05509e+00
1.68567e-01,8.47330e-01
1.71784e-01,6.53517e-01
1.75062e-01,4.72719e-01
1.78403e-01,3.04067e-01
1.81807e-01,1.46746e-01
1.85277e-01,0.00000e+00
