m1=15424.004, m2=3.231, gsp=2.428, rhosp=1305.515
fGW[Hz],dPh[rad]
7.35841e-03,7.28583e+05
7.49489e-03,6.95395e+05
7.63390e-03,6.63613e+05
7.77548e-03,6.33182e+05
7.91969e-03,6.04047e+05
8.06658e-03,5.76157e+05
8.21619e-03,5.49463e+05
8.36857e-03,5.23917e+05
8.52378e-03,4.99473e+05
8.68187e-03,4.76088e+05
8.84290e-03,4.53719e+05
9.00690e-03,4.32324e+05
9.17395e-03,4.11865e+05
9.34410e-03,3.92304e+05
9.51741e-03,3.73604e+05
9.69392e-03,3.55731e+05
9.87372e-03,3.38651e+05
1.00568e-02,3.22330e+05
1.02434e-02,3.06739e+05
1.04333e-02,2.91847e+05
1.06269e-02,2.77625e+05
1.08240e-02,2.64046e+05
1.10247e-02,2.51083e+05
1.12292e-02,2.38710e+05
1.14374e-02,2.26902e+05
1.16496e-02,2.15636e+05
1.18656e-02,2.04889e+05
1.20857e-02,1.94640e+05
1.23099e-02,1.84866e+05
1.25382e-02,1.75548e+05
1.27707e-02,1.66666e+05
1.30076e-02,1.58201e+05
1.32488e-02,1.50137e+05
1.34945e-02,1.42454e+05
1.37448e-02,1.35137e+05
1.39997e-02,1.28170e+05
1.42594e-02,1.21537e+05
1.45239e-02,1.15224e+05
1.47932e-02,1.09216e+05
1.50676e-02,1.03500e+05
1.53471e-02,9.80635e+04
1.56317e-02,9.28933e+04
1.59216e-02,8.79777e+04
1.62169e-02,8.33051e+04
1.65177e-02,7.88644e+04
1.68240e-02,7.46452e+04
1.71361e-02,7.06373e+04
1.74539e-02,6.68309e+04
1.77776e-02,6.32168e+04
1.81073e-02,5.97860e+04
1.84432e-02,5.65299e+04
1.87852e-02,5.34404e+04
1.91336e-02,5.05095e+04
1.94885e-02,4.77299e+04
1.98500e-02,4.50942e+04
2.02181e-02,4.25957e+04
2.05931e-02,4.02276e+04
2.09750e-02,3.79838e+04
2.13641e-02,3.58581e+04
2.17603e-02,3.38448e+04
2.21639e-02,3.19384e+04
2.25750e-02,3.01336e+04
2.29937e-02,2.84255e+04
2.34201e-02,2.68091e+04
2.38545e-02,2.52799e+04
2.42969e-02,2.38336e+04
2.47475e-02,2.24659e+04
2.52065e-02,2.11728e+04
2.56740e-02,1.99506e+04
2.61502e-02,1.87956e+04
2.66352e-02,1.77043e+04
2.71292e-02,1.66735e+04
2.76324e-02,1.57000e+04
2.81449e-02,1.47808e+04
2.86669e-02,1.39131e+04
2.91986e-02,1.30942e+04
2.97401e-02,1.23214e+04
3.02917e-02,1.15924e+04
3.08535e-02,1.09047e+04
3.14257e-02,1.02563e+04
3.20086e-02,9.64485e+03
3.26022e-02,9.06850e+03
3.32069e-02,8.52529e+03
3.38228e-02,8.01343e+03
3.44501e-02,7.53119e+03
3.50891e-02,7.07695e+03
3.57398e-02,6.64915e+03
3.64027e-02,6.24634e+03
3.70779e-02,5.86712e+03
3.77655e-02,5.51017e+03
3.84660e-02,5.17424e+03
3.91794e-02,4.85815e+03
3.99061e-02,4.56078e+03
4.06462e-02,4.28106e+03
4.14001e-02,4.01799e+03
4.21679e-02,3.77063e+03
4.29500e-02,3.53806e+03
4.37466e-02,3.31944e+03
4.45579e-02,3.11396e+03
4.53843e-02,2.92086e+03
4.62261e-02,2.73942e+03
4.70834e-02,2.56897e+03
4.79567e-02,2.40886e+03
4.88461e-02,2.25848e+03
4.97521e-02,2.11726e+03
5.06748e-02,1.98466e+03
5.16147e-02,1.86018e+03
5.25720e-02,1.74332e+03
5.35470e-02,1.63364e+03
5.45402e-02,1.53071e+03
5.55517e-02,1.43413e+03
5.65820e-02,1.34351e+03
5.76314e-02,1.25849e+03
5.87003e-02,1.17874e+03
5.97890e-02,1.10395e+03
6.08979e-02,1.03380e+03
6.20274e-02,9.68024e+02
6.31778e-02,9.06349e+02
6.43496e-02,8.48526e+02
6.55430e-02,7.94321e+02
6.67587e-02,7.43513e+02
6.79968e-02,6.95892e+02
6.92580e-02,6.51263e+02
7.05425e-02,6.09442e+02
7.18508e-02,5.70255e+02
7.31834e-02,5.33540e+02
7.45408e-02,4.99144e+02
7.59233e-02,4.66923e+02
7.73314e-02,4.36742e+02
7.87657e-02,4.08473e+02
8.02265e-02,3.81999e+02
8.17145e-02,3.57206e+02
8.32300e-02,3.33990e+02
8.47737e-02,3.12251e+02
8.63460e-02,2.91898e+02
8.79474e-02,2.72843e+02
8.95786e-02,2.55005e+02
9.12400e-02,2.38307e+02
9.29322e-02,2.22677e+02
9.46558e-02,2.08047e+02
9.64114e-02,1.94355e+02
9.81995e-02,1.81541e+02
1.00021e-01,1.69549e+02
1.01876e-01,1.58328e+02
1.03765e-01,1.47828e+02
1.05690e-01,1.38003e+02
1.07650e-01,1.28811e+02
1.09647e-01,1.20211e+02
1.11680e-01,1.12166e+02
1.13752e-01,1.04639e+02
1.15861e-01,9.75990e+01
1.18010e-01,9.10132e+01
1.20199e-01,8.48532e+01
1.22428e-01,7.90915e+01
1.24699e-01,7.37028e+01
1.27012e-01,6.86629e+01
1.29367e-01,6.39495e+01
1.31767e-01,5.95417e+01
1.34211e-01,5.54197e+01
1.36700e-01,5.15652e+01
1.39235e-01,4.79609e+01
1.41818e-01,4.45908e+01
1.44448e-01,4.14396e+01
1.47127e-01,3.84932e+01
1.49856e-01,3.57385e+01
1.52635e-01,3.31631e+01
1.55466e-01,3.07552e+01
1.58349e-01,2.85042e+01
1.61286e-01,2.63998e+01
1.64278e-01,2.44326e+01
1.67324e-01,2.25936e+01
1.70428e-01,2.08745e+01
1.73589e-01,1.92676e+01
1.76808e-01,1.77656e+01
1.80087e-01,1.63616e+01
1.83427e-01,1.50493e+01
1.86829e-01,1.38227e+01
1.90295e-01,1.26763e+01
1.93824e-01,1.16048e+01
1.97419e-01,1.06033e+01
2.01080e-01,9.66739e+00
2.04810e-01,8.79267e+00
2.08608e-01,7.97518e+00
2.12477e-01,7.21119e+00
2.16418e-01,6.49723e+00
2.20432e-01,5.83001e+00
2.24520e-01,5.20649e+00
2.28684e-01,4.62382e+00
2.32926e-01,4.07933e+00
2.37246e-01,3.57052e+00
2.41646e-01,3.09507e+00
2.46128e-01,2.65079e+00
2.50693e-01,2.23564e+00
2.55342e-01,1.84772e+00
2.60078e-01,1.48525e+00
2.64902e-01,1.14657e+00
2.69815e-01,8.30108e-01
2.74819e-01,5.34418e-01
2.79916e-01,2.58140e-01
2.85108e-01,0.00000e+00
