m1=215765.095, m2=54.518, gsp=2.131, rhosp=8330.861
fGW[Hz],dPh[rad]
1.31864e-03,1.55895e+03
1.33690e-03,1.49309e+03
1.35543e-03,1.42984e+03
1.37420e-03,1.36911e+03
1.39324e-03,1.31082e+03
1.41254e-03,1.25486e+03
1.43211e-03,1.20115e+03
1.45195e-03,1.14961e+03
1.47207e-03,1.10015e+03
1.49246e-03,1.05270e+03
1.51314e-03,1.00718e+03
1.53410e-03,9.63522e+02
1.55536e-03,9.21649e+02
1.57691e-03,8.81496e+02
1.59875e-03,8.42997e+02
1.62090e-03,8.06088e+02
1.64336e-03,7.70707e+02
1.66612e-03,7.36797e+02
1.68921e-03,7.04300e+02
1.71261e-03,6.73161e+02
1.73634e-03,6.43327e+02
1.76039e-03,6.14747e+02
1.78478e-03,5.87371e+02
1.80951e-03,5.61153e+02
1.83457e-03,5.36047e+02
1.85999e-03,5.12008e+02
1.88576e-03,4.88994e+02
1.91188e-03,4.66964e+02
1.93837e-03,4.45878e+02
1.96523e-03,4.25699e+02
1.99245e-03,4.06391e+02
2.02006e-03,3.87917e+02
2.04804e-03,3.70244e+02
2.07641e-03,3.53339e+02
2.10518e-03,3.37171e+02
2.13435e-03,3.21710e+02
2.16392e-03,3.06927e+02
2.19389e-03,2.92793e+02
2.22429e-03,2.79282e+02
2.25510e-03,2.66367e+02
2.28635e-03,2.54025e+02
2.31802e-03,2.42230e+02
2.35014e-03,2.30961e+02
2.38269e-03,2.20195e+02
2.41570e-03,2.09910e+02
2.44917e-03,2.00087e+02
2.48310e-03,1.90705e+02
2.51750e-03,1.81746e+02
2.55238e-03,1.73192e+02
2.58774e-03,1.65026e+02
2.62359e-03,1.57230e+02
2.65994e-03,1.49789e+02
2.69679e-03,1.42687e+02
2.73415e-03,1.35910e+02
2.77203e-03,1.29444e+02
2.81043e-03,1.23274e+02
2.84937e-03,1.17389e+02
2.88884e-03,1.11775e+02
2.92887e-03,1.06420e+02
2.96944e-03,1.01314e+02
3.01058e-03,9.64446e+01
3.05229e-03,9.18019e+01
3.09458e-03,8.73755e+01
3.13745e-03,8.31560e+01
3.18092e-03,7.91340e+01
3.22498e-03,7.53007e+01
3.26966e-03,7.16475e+01
3.31496e-03,6.81663e+01
3.36089e-03,6.48494e+01
3.40745e-03,6.16893e+01
3.45466e-03,5.86789e+01
3.50252e-03,5.58113e+01
3.55104e-03,5.30800e+01
3.60024e-03,5.04787e+01
3.65011e-03,4.80016e+01
3.70068e-03,4.56428e+01
3.75195e-03,4.33969e+01
3.80393e-03,4.12588e+01
3.85663e-03,3.92233e+01
3.91006e-03,3.72857e+01
3.96423e-03,3.54415e+01
4.01915e-03,3.36864e+01
4.07483e-03,3.20160e+01
4.13129e-03,3.04266e+01
4.18852e-03,2.89142e+01
4.24655e-03,2.74752e+01
4.30538e-03,2.61062e+01
4.36503e-03,2.48039e+01
4.42550e-03,2.35652e+01
4.48681e-03,2.23869e+01
4.54897e-03,2.12662e+01
4.61199e-03,2.02005e+01
4.67589e-03,1.91870e+01
4.74067e-03,1.82232e+01
4.80634e-03,1.73069e+01
4.87293e-03,1.64356e+01
4.94044e-03,1.56073e+01
5.00889e-03,1.48199e+01
5.07828e-03,1.40714e+01
5.14863e-03,1.33600e+01
5.21996e-03,1.26837e+01
5.29228e-03,1.20410e+01
5.36560e-03,1.14302e+01
5.43993e-03,1.08498e+01
5.51530e-03,1.02982e+01
5.59171e-03,9.77407e+00
5.66918e-03,9.27610e+00
5.74772e-03,8.80297e+00
5.82735e-03,8.35349e+00
5.90808e-03,7.92647e+00
5.98993e-03,7.52083e+00
6.07291e-03,7.13551e+00
6.15705e-03,6.76952e+00
6.24235e-03,6.42190e+00
6.32883e-03,6.09174e+00
6.41651e-03,5.77818e+00
6.50540e-03,5.48040e+00
6.59553e-03,5.19762e+00
6.68690e-03,4.92909e+00
6.77954e-03,4.67411e+00
6.87347e-03,4.43201e+00
6.96869e-03,4.20214e+00
7.06524e-03,3.98390e+00
7.16312e-03,3.77670e+00
7.26236e-03,3.57999e+00
7.36297e-03,3.39325e+00
7.46498e-03,3.21599e+00
7.56840e-03,3.04772e+00
7.67325e-03,2.88800e+00
7.77955e-03,2.73639e+00
7.88733e-03,2.59250e+00
7.99660e-03,2.45593e+00
8.10739e-03,2.32631e+00
8.21971e-03,2.20330e+00
8.33358e-03,2.08656e+00
8.44904e-03,1.97577e+00
8.56609e-03,1.87064e+00
8.68476e-03,1.77088e+00
8.80508e-03,1.67622e+00
8.92707e-03,1.58639e+00
9.05074e-03,1.50116e+00
9.17613e-03,1.42030e+00
9.30326e-03,1.34357e+00
9.43215e-03,1.27078e+00
9.56282e-03,1.20172e+00
9.69530e-03,1.13619e+00
9.82962e-03,1.07404e+00
9.96580e-03,1.01507e+00
1.01039e-02,9.59128e-01
1.02438e-02,9.06062e-01
1.03858e-02,8.55724e-01
1.05297e-02,8.07974e-01
1.06755e-02,7.62682e-01
1.08234e-02,7.19720e-01
1.09734e-02,6.78970e-01
1.11254e-02,6.40318e-01
1.12795e-02,6.03659e-01
1.14358e-02,5.68889e-01
1.15942e-02,5.35912e-01
1.17549e-02,5.04636e-01
1.19177e-02,4.74974e-01
1.20828e-02,4.46843e-01
1.22502e-02,4.20164e-01
1.24199e-02,3.94864e-01
1.25920e-02,3.70871e-01
1.27664e-02,3.48118e-01
1.29433e-02,3.26541e-01
1.31226e-02,3.06080e-01
1.33044e-02,2.86678e-01
1.34887e-02,2.68279e-01
1.36756e-02,2.50833e-01
1.38651e-02,2.34291e-01
1.40572e-02,2.18605e-01
1.42519e-02,2.03731e-01
1.44494e-02,1.89629e-01
1.46495e-02,1.76257e-01
1.48525e-02,1.63579e-01
1.50583e-02,1.51558e-01
1.52669e-02,1.40160e-01
1.54784e-02,1.29354e-01
1.56928e-02,1.19108e-01
1.59102e-02,1.09395e-01
1.61307e-02,1.00185e-01
1.63541e-02,9.14542e-02
1.65807e-02,8.31765e-02
1.68104e-02,7.53288e-02
1.70433e-02,6.78889e-02
1.72794e-02,6.08356e-02
1.75188e-02,5.41489e-02
1.77615e-02,4.78098e-02
1.80076e-02,4.18004e-02
1.82571e-02,3.61034e-02
1.85100e-02,3.07028e-02
1.87664e-02,2.55832e-02
1.90264e-02,2.07299e-02
1.92900e-02,1.61292e-02
1.95573e-02,1.17680e-02
1.98282e-02,7.63381e-03
2.01029e-02,3.71487e-03
2.03814e-02,0.00000e+00
