m1=111551.369, m2=15.263, gsp=2.025, rhosp=278.829
fGW[Hz],dPh[rad]
2.50660e-03,1.61315e+02
2.54155e-03,1.54006e+02
2.57699e-03,1.47011e+02
2.61291e-03,1.40317e+02
2.64934e-03,1.33914e+02
2.68628e-03,1.27788e+02
2.72374e-03,1.21929e+02
2.76171e-03,1.16326e+02
2.80021e-03,1.10968e+02
2.83926e-03,1.05846e+02
2.87884e-03,1.00948e+02
2.91898e-03,9.62674e+01
2.95968e-03,9.17935e+01
3.00094e-03,8.75181e+01
3.04278e-03,8.34329e+01
3.08520e-03,7.95300e+01
3.12822e-03,7.58017e+01
3.17183e-03,7.22407e+01
3.21605e-03,6.88398e+01
3.26089e-03,6.55922e+01
3.30636e-03,6.24914e+01
3.35246e-03,5.95312e+01
3.39920e-03,5.67055e+01
3.44659e-03,5.40085e+01
3.49464e-03,5.14347e+01
3.54337e-03,4.89788e+01
3.59277e-03,4.66355e+01
3.64286e-03,4.44001e+01
3.69365e-03,4.22678e+01
3.74515e-03,4.02341e+01
3.79736e-03,3.82946e+01
3.85031e-03,3.64452e+01
3.90399e-03,3.46820e+01
3.95842e-03,3.30010e+01
4.01361e-03,3.13987e+01
4.06957e-03,2.98714e+01
4.12630e-03,2.84160e+01
4.18383e-03,2.70291e+01
4.24217e-03,2.57077e+01
4.30131e-03,2.44488e+01
4.36128e-03,2.32495e+01
4.42209e-03,2.21072e+01
4.48374e-03,2.10193e+01
4.54626e-03,1.99833e+01
4.60964e-03,1.89969e+01
4.67391e-03,1.80576e+01
4.73907e-03,1.71635e+01
4.80515e-03,1.63124e+01
4.87214e-03,1.55022e+01
4.94007e-03,1.47312e+01
5.00895e-03,1.39975e+01
5.07878e-03,1.32993e+01
5.14959e-03,1.26350e+01
5.22139e-03,1.20031e+01
5.29419e-03,1.14019e+01
5.36800e-03,1.08301e+01
5.44284e-03,1.02862e+01
5.51873e-03,9.76899e+00
5.59567e-03,9.27715e+00
5.67369e-03,8.80948e+00
5.75279e-03,8.36483e+00
5.83300e-03,7.94210e+00
5.91432e-03,7.54026e+00
5.99678e-03,7.15829e+00
6.08039e-03,6.79525e+00
6.16516e-03,6.45022e+00
6.25112e-03,6.12233e+00
6.33827e-03,5.81077e+00
6.42664e-03,5.51473e+00
6.51625e-03,5.23347e+00
6.60710e-03,4.96626e+00
6.69921e-03,4.71243e+00
6.79262e-03,4.47133e+00
6.88732e-03,4.24232e+00
6.98334e-03,4.02482e+00
7.08071e-03,3.81827e+00
7.17943e-03,3.62212e+00
7.27953e-03,3.43587e+00
7.38102e-03,3.25902e+00
7.48393e-03,3.09112e+00
7.58827e-03,2.93172e+00
7.69407e-03,2.78040e+00
7.80134e-03,2.63676e+00
7.91011e-03,2.50041e+00
8.02039e-03,2.37100e+00
8.13222e-03,2.24818e+00
8.24560e-03,2.13162e+00
8.36056e-03,2.02101e+00
8.47712e-03,1.91604e+00
8.59531e-03,1.81645e+00
8.71515e-03,1.72195e+00
8.83666e-03,1.63229e+00
8.95986e-03,1.54723e+00
9.08478e-03,1.46654e+00
9.21145e-03,1.38999e+00
9.33987e-03,1.31738e+00
9.47009e-03,1.24850e+00
9.60213e-03,1.18317e+00
9.73600e-03,1.12121e+00
9.87174e-03,1.06245e+00
1.00094e-02,1.00672e+00
1.01489e-02,9.53875e-01
1.02904e-02,9.03761e-01
1.04339e-02,8.56241e-01
1.05794e-02,8.11183e-01
1.07269e-02,7.68460e-01
1.08764e-02,7.27954e-01
1.10281e-02,6.89551e-01
1.11818e-02,6.53143e-01
1.13377e-02,6.18627e-01
1.14958e-02,5.85908e-01
1.16561e-02,5.54892e-01
1.18186e-02,5.25491e-01
1.19834e-02,4.97623e-01
1.21504e-02,4.71208e-01
1.23198e-02,4.46172e-01
1.24916e-02,4.22444e-01
1.26658e-02,3.99955e-01
1.28424e-02,3.78642e-01
1.30214e-02,3.58444e-01
1.32030e-02,3.39303e-01
1.33870e-02,3.21164e-01
1.35737e-02,3.03976e-01
1.37629e-02,2.87689e-01
1.39548e-02,2.72256e-01
1.41494e-02,2.57633e-01
1.43467e-02,2.43777e-01
1.45467e-02,2.30650e-01
1.47495e-02,2.18212e-01
1.49551e-02,2.06428e-01
1.51636e-02,1.95264e-01
1.53751e-02,1.84687e-01
1.55894e-02,1.74667e-01
1.58068e-02,1.65175e-01
1.60272e-02,1.56183e-01
1.62506e-02,1.47665e-01
1.64772e-02,1.39596e-01
1.67069e-02,1.31952e-01
1.69398e-02,1.24712e-01
1.71760e-02,1.17854e-01
1.74155e-02,1.11359e-01
1.76583e-02,1.05206e-01
1.79045e-02,9.93786e-02
1.81541e-02,9.38591e-02
1.84072e-02,8.86315e-02
1.86639e-02,8.36805e-02
1.89241e-02,7.89914e-02
1.91879e-02,7.45504e-02
1.94555e-02,7.03446e-02
1.97267e-02,6.63616e-02
2.00017e-02,6.25895e-02
2.02806e-02,5.90173e-02
2.05634e-02,5.56345e-02
2.08501e-02,5.24310e-02
2.11408e-02,4.93974e-02
2.14355e-02,4.65248e-02
2.17344e-02,4.38045e-02
2.20374e-02,4.12286e-02
2.23447e-02,3.87895e-02
2.26562e-02,3.64799e-02
2.29721e-02,3.42930e-02
2.32923e-02,3.22222e-02
2.36171e-02,3.02615e-02
2.39464e-02,2.84050e-02
2.42802e-02,2.66472e-02
2.46188e-02,2.49828e-02
2.49620e-02,2.34069e-02
2.53100e-02,2.19149e-02
2.56629e-02,2.05022e-02
2.60207e-02,1.91648e-02
2.63835e-02,1.78985e-02
2.67513e-02,1.66996e-02
2.71243e-02,1.55645e-02
2.75025e-02,1.44899e-02
2.78859e-02,1.34725e-02
2.82747e-02,1.25093e-02
2.86689e-02,1.15974e-02
2.90686e-02,1.07341e-02
2.94739e-02,9.91683e-03
2.98849e-02,9.14311e-03
3.03015e-02,8.41064e-03
3.07240e-02,7.71722e-03
3.11523e-02,7.06077e-03
3.15867e-02,6.43934e-03
3.20271e-02,5.85105e-03
3.24736e-02,5.29415e-03
3.29264e-02,4.76695e-03
3.33854e-02,4.26789e-03
3.38509e-02,3.79547e-03
3.43228e-02,3.34826e-03
3.48014e-02,2.92492e-03
3.52866e-02,2.52418e-03
3.57786e-02,2.14483e-03
3.62774e-02,1.78575e-03
3.67832e-02,1.44584e-03
3.72960e-02,1.12408e-03
3.78160e-02,8.19511e-04
3.83433e-02,5.31212e-04
3.88778e-02,2.58315e-04
3.94199e-02,0.00000e+00
