m1=1126.108, m2=24.651, gsp=2.389, rhosp=65.415
fGW[Hz],dPh[rad]
6.62452e-03,4.23576e+03
6.84069e-03,3.96278e+03
7.06391e-03,3.70738e+03
7.29441e-03,3.46844e+03
7.53244e-03,3.24489e+03
7.77824e-03,3.03575e+03
8.03205e-03,2.84008e+03
8.29415e-03,2.65702e+03
8.56480e-03,2.48575e+03
8.84428e-03,2.32551e+03
9.13288e-03,2.17561e+03
9.43090e-03,2.03536e+03
9.73865e-03,1.90414e+03
1.00564e-02,1.78139e+03
1.03846e-02,1.66654e+03
1.07235e-02,1.55909e+03
1.10734e-02,1.45856e+03
1.14347e-02,1.36452e+03
1.18079e-02,1.27653e+03
1.21932e-02,1.19421e+03
1.25910e-02,1.11720e+03
1.30019e-02,1.04515e+03
1.34262e-02,9.77742e+02
1.38643e-02,9.14679e+02
1.43167e-02,8.55680e+02
1.47839e-02,8.00483e+02
1.52663e-02,7.48844e+02
1.57645e-02,7.00532e+02
1.62789e-02,6.55334e+02
1.68101e-02,6.13049e+02
1.73586e-02,5.73490e+02
1.79251e-02,5.36480e+02
1.85100e-02,5.01856e+02
1.91140e-02,4.69463e+02
1.97377e-02,4.39159e+02
2.03818e-02,4.10808e+02
2.10469e-02,3.84285e+02
2.17337e-02,3.59471e+02
2.24429e-02,3.36257e+02
2.31752e-02,3.14540e+02
2.39314e-02,2.94223e+02
2.47124e-02,2.75216e+02
2.55188e-02,2.57434e+02
2.63515e-02,2.40799e+02
2.72114e-02,2.25237e+02
2.80993e-02,2.10679e+02
2.90162e-02,1.97059e+02
2.99631e-02,1.84317e+02
3.09408e-02,1.72398e+02
3.19505e-02,1.61247e+02
3.29931e-02,1.50816e+02
3.40697e-02,1.41057e+02
3.51814e-02,1.31928e+02
3.63294e-02,1.23388e+02
3.75149e-02,1.15400e+02
3.87391e-02,1.07926e+02
4.00032e-02,1.00935e+02
4.13086e-02,9.43953e+01
4.26565e-02,8.82776e+01
4.40485e-02,8.25548e+01
4.54859e-02,7.72015e+01
4.69701e-02,7.21938e+01
4.85028e-02,6.75095e+01
5.00856e-02,6.31277e+01
5.17199e-02,5.90290e+01
5.34076e-02,5.51950e+01
5.51504e-02,5.16087e+01
5.69500e-02,4.82542e+01
5.88084e-02,4.51164e+01
6.07274e-02,4.21815e+01
6.27090e-02,3.94363e+01
6.47553e-02,3.68686e+01
6.68684e-02,3.44670e+01
6.90504e-02,3.22207e+01
7.13036e-02,3.01197e+01
7.36304e-02,2.81547e+01
7.60330e-02,2.63168e+01
7.85141e-02,2.45980e+01
8.10761e-02,2.29904e+01
8.37218e-02,2.14870e+01
8.64537e-02,2.00809e+01
8.92748e-02,1.87660e+01
9.21880e-02,1.75363e+01
9.51962e-02,1.63864e+01
9.83026e-02,1.53110e+01
1.01510e-01,1.43054e+01
1.04823e-01,1.33651e+01
1.08243e-01,1.24859e+01
1.11776e-01,1.16637e+01
1.15423e-01,1.08950e+01
1.19189e-01,1.01762e+01
1.23079e-01,9.50423e+00
1.27095e-01,8.87595e+00
1.31242e-01,8.28857e+00
1.35525e-01,7.73944e+00
1.39947e-01,7.22610e+00
1.44514e-01,6.74623e+00
1.49230e-01,6.29766e+00
1.54099e-01,5.87838e+00
1.59128e-01,5.48648e+00
1.64320e-01,5.12019e+00
1.69682e-01,4.77786e+00
1.75219e-01,4.45794e+00
1.80937e-01,4.15898e+00
1.86841e-01,3.87961e+00
1.92938e-01,3.61857e+00
1.99234e-01,3.37467e+00
2.05735e-01,3.14681e+00
2.12449e-01,2.93393e+00
2.19381e-01,2.73507e+00
2.26540e-01,2.54932e+00
2.33932e-01,2.37582e+00
2.41566e-01,2.21379e+00
2.49448e-01,2.06248e+00
2.57588e-01,1.92118e+00
2.65994e-01,1.78925e+00
2.74674e-01,1.66609e+00
2.83637e-01,1.55111e+00
2.92892e-01,1.44378e+00
3.02450e-01,1.34362e+00
3.12319e-01,1.25014e+00
3.22510e-01,1.16292e+00
3.33034e-01,1.08154e+00
3.43902e-01,1.00563e+00
3.55124e-01,9.34821e-01
3.66712e-01,8.68785e-01
3.78679e-01,8.07209e-01
3.91035e-01,7.49801e-01
4.03795e-01,6.96286e-01
4.16972e-01,6.46409e-01
4.30578e-01,5.99930e-01
4.44629e-01,5.56627e-01
4.59138e-01,5.16290e-01
4.74120e-01,4.78722e-01
4.89591e-01,4.43742e-01
5.05567e-01,4.11178e-01
5.22065e-01,3.80870e-01
5.39100e-01,3.52667e-01
5.56692e-01,3.26432e-01
5.74858e-01,3.02031e-01
5.93616e-01,2.79343e-01
6.12987e-01,2.58254e-01
6.32990e-01,2.38655e-01
6.53645e-01,2.20449e-01
6.74974e-01,2.03539e-01
6.97000e-01,1.87840e-01
7.19744e-01,1.73270e-01
7.43230e-01,1.59751e-01
7.67483e-01,1.47212e-01
7.92527e-01,1.35587e-01
8.18388e-01,1.24814e-01
8.45094e-01,1.14832e-01
8.72670e-01,1.05589e-01
9.01147e-01,9.70335e-02
9.30553e-01,8.91171e-02
9.60918e-01,8.17956e-02
9.92274e-01,7.50274e-02
1.02465e+00,6.87738e-02
1.05809e+00,6.29983e-02
1.09262e+00,5.76671e-02
1.12827e+00,5.27486e-02
1.16509e+00,4.82132e-02
1.20311e+00,4.40333e-02
1.24237e+00,4.01832e-02
1.28291e+00,3.66389e-02
1.32477e+00,3.33779e-02
1.36800e+00,3.03795e-02
1.41264e+00,2.76241e-02
1.45873e+00,2.50936e-02
1.50633e+00,2.27711e-02
1.55549e+00,2.06408e-02
1.60625e+00,1.86881e-02
1.65866e+00,1.68994e-02
1.71279e+00,1.52619e-02
1.76868e+00,1.37639e-02
1.82639e+00,1.23944e-02
1.88599e+00,1.11433e-02
1.94753e+00,1.00011e-02
2.01108e+00,8.95908e-03
2.07671e+00,8.00904e-03
2.14447e+00,7.14351e-03
2.21445e+00,6.35550e-03
2.28671e+00,5.63858e-03
2.36133e+00,4.98678e-03
2.43838e+00,4.39460e-03
2.51795e+00,3.85696e-03
2.60012e+00,3.36918e-03
2.68496e+00,2.92692e-03
2.77258e+00,2.52621e-03
2.86305e+00,2.16339e-03
2.95648e+00,1.83510e-03
3.05295e+00,1.53825e-03
3.15257e+00,1.26999e-03
3.25544e+00,1.02773e-03
3.36168e+00,8.09083e-04
3.47137e+00,6.11872e-04
3.58465e+00,4.34101e-04
3.70162e+00,2.73950e-04
3.82241e+00,1.29755e-04
3.94714e+00,0.00000e+00
