m1=5214.282, m2=41.896, gsp=2.325, rhosp=251.421
fGW[Hz],dPh[rad]
3.69515e-03,3.26939e+03
3.79745e-03,3.08521e+03
3.90258e-03,2.91138e+03
4.01062e-03,2.74733e+03
4.12165e-03,2.59250e+03
4.23575e-03,2.44638e+03
4.35302e-03,2.30847e+03
4.47353e-03,2.17832e+03
4.59737e-03,2.05549e+03
4.72465e-03,1.93957e+03
4.85545e-03,1.83016e+03
4.98986e-03,1.72691e+03
5.12800e-03,1.62947e+03
5.26997e-03,1.53751e+03
5.41586e-03,1.45072e+03
5.56580e-03,1.36882e+03
5.71988e-03,1.29152e+03
5.87823e-03,1.21857e+03
6.04097e-03,1.14973e+03
6.20820e-03,1.08476e+03
6.38007e-03,1.02345e+03
6.55670e-03,9.65592e+02
6.73822e-03,9.10990e+02
6.92476e-03,8.59462e+02
7.11646e-03,8.10835e+02
7.31348e-03,7.64946e+02
7.51594e-03,7.21642e+02
7.72402e-03,6.80777e+02
7.93785e-03,6.42214e+02
8.15760e-03,6.05823e+02
8.38344e-03,5.71483e+02
8.61553e-03,5.39078e+02
8.85404e-03,5.08500e+02
9.09916e-03,4.79645e+02
9.35106e-03,4.52418e+02
9.60994e-03,4.26725e+02
9.87598e-03,4.02482e+02
1.01494e-02,3.79606e+02
1.04304e-02,3.58020e+02
1.07191e-02,3.37653e+02
1.10159e-02,3.18435e+02
1.13208e-02,3.00302e+02
1.16342e-02,2.83193e+02
1.19563e-02,2.67050e+02
1.22873e-02,2.51819e+02
1.26275e-02,2.37449e+02
1.29771e-02,2.23891e+02
1.33363e-02,2.11099e+02
1.37055e-02,1.99030e+02
1.40850e-02,1.87645e+02
1.44749e-02,1.76903e+02
1.48756e-02,1.66769e+02
1.52874e-02,1.57209e+02
1.57107e-02,1.48190e+02
1.61456e-02,1.39683e+02
1.65926e-02,1.31657e+02
1.70519e-02,1.24086e+02
1.75240e-02,1.16945e+02
1.80091e-02,1.10209e+02
1.85077e-02,1.03855e+02
1.90201e-02,9.78617e+01
1.95466e-02,9.22091e+01
2.00877e-02,8.68777e+01
2.06439e-02,8.18495e+01
2.12154e-02,7.71073e+01
2.18027e-02,7.26350e+01
2.24063e-02,6.84175e+01
2.30266e-02,6.44402e+01
2.36640e-02,6.06897e+01
2.43192e-02,5.71531e+01
2.49924e-02,5.38184e+01
2.56843e-02,5.06742e+01
2.63954e-02,4.77097e+01
2.71261e-02,4.49148e+01
2.78771e-02,4.22798e+01
2.86488e-02,3.97958e+01
2.94419e-02,3.74542e+01
3.02570e-02,3.52470e+01
3.10946e-02,3.31664e+01
3.19555e-02,3.12055e+01
3.28401e-02,2.93574e+01
3.37493e-02,2.76156e+01
3.46836e-02,2.59743e+01
3.56438e-02,2.44277e+01
3.66306e-02,2.29703e+01
3.76446e-02,2.15973e+01
3.86868e-02,2.03037e+01
3.97578e-02,1.90851e+01
4.08585e-02,1.79372e+01
4.19896e-02,1.68560e+01
4.31521e-02,1.58376e+01
4.43467e-02,1.48786e+01
4.55744e-02,1.39756e+01
4.68361e-02,1.31252e+01
4.81327e-02,1.23247e+01
4.94652e-02,1.15710e+01
5.08346e-02,1.08616e+01
5.22419e-02,1.01939e+01
5.36882e-02,9.56550e+00
5.51745e-02,8.97418e+00
5.67020e-02,8.41781e+00
5.82717e-02,7.89440e+00
5.98849e-02,7.40204e+00
6.15428e-02,6.93895e+00
6.32465e-02,6.50346e+00
6.49974e-02,6.09398e+00
6.67968e-02,5.70900e+00
6.86461e-02,5.34712e+00
7.05465e-02,5.00701e+00
7.24995e-02,4.68740e+00
7.45066e-02,4.38711e+00
7.65692e-02,4.10501e+00
7.86890e-02,3.84006e+00
8.08674e-02,3.59126e+00
8.31062e-02,3.35767e+00
8.54069e-02,3.13839e+00
8.77713e-02,2.93260e+00
9.02012e-02,2.73951e+00
9.26983e-02,2.55836e+00
9.52646e-02,2.38847e+00
9.79019e-02,2.22916e+00
1.00612e-01,2.07982e+00
1.03398e-01,1.93985e+00
1.06260e-01,1.80870e+00
1.09202e-01,1.68585e+00
1.12225e-01,1.57079e+00
1.15332e-01,1.46307e+00
1.18525e-01,1.36225e+00
1.21806e-01,1.26791e+00
1.25178e-01,1.17966e+00
1.28643e-01,1.09714e+00
1.32205e-01,1.01999e+00
1.35865e-01,9.47890e-01
1.39626e-01,8.80534e-01
1.43492e-01,8.17629e-01
1.47464e-01,7.58902e-01
1.51546e-01,7.04095e-01
1.55742e-01,6.52965e-01
1.60053e-01,6.05283e-01
1.64484e-01,5.60833e-01
1.69038e-01,5.19413e-01
1.73718e-01,4.80832e-01
1.78527e-01,4.44909e-01
1.83469e-01,4.11475e-01
1.88548e-01,3.80371e-01
1.93768e-01,3.51446e-01
1.99132e-01,3.24561e-01
2.04645e-01,2.99581e-01
2.10311e-01,2.76384e-01
2.16133e-01,2.54850e-01
2.22116e-01,2.34870e-01
2.28266e-01,2.16341e-01
2.34585e-01,1.99165e-01
2.41079e-01,1.83251e-01
2.47753e-01,1.68514e-01
2.54612e-01,1.54873e-01
2.61661e-01,1.42252e-01
2.68905e-01,1.30582e-01
2.76349e-01,1.19796e-01
2.84000e-01,1.09831e-01
2.91862e-01,1.00631e-01
2.99942e-01,9.21400e-02
3.08245e-01,8.43079e-02
3.16779e-01,7.70872e-02
3.25549e-01,7.04334e-02
3.34561e-01,6.43051e-02
3.43823e-01,5.86636e-02
3.53342e-01,5.34729e-02
3.63124e-01,4.86992e-02
3.73176e-01,4.43113e-02
3.83507e-01,4.02800e-02
3.94125e-01,3.65780e-02
4.05036e-01,3.31801e-02
4.16249e-01,3.00629e-02
4.27772e-01,2.72045e-02
4.39615e-01,2.45846e-02
4.51785e-01,2.21844e-02
4.64292e-01,1.99866e-02
4.77146e-01,1.79749e-02
4.90355e-01,1.61345e-02
5.03930e-01,1.44514e-02
5.17881e-01,1.29129e-02
5.32218e-01,1.15071e-02
5.46952e-01,1.02232e-02
5.62094e-01,9.05108e-03
5.77655e-01,7.98137e-03
5.93647e-01,7.00553e-03
6.10082e-01,6.11566e-03
6.26971e-01,5.30450e-03
6.44328e-01,4.56536e-03
6.62166e-01,3.89207e-03
6.80498e-01,3.27898e-03
6.99337e-01,2.72090e-03
7.18697e-01,2.21306e-03
7.38594e-01,1.75109e-03
7.59041e-01,1.33097e-03
7.80054e-01,9.49027e-04
8.01649e-01,6.01896e-04
8.23842e-01,2.86494e-04
8.46650e-01,0.00000e+00
