m1=943091.793, m2=50.901, gsp=2.086, rhosp=13.179
fGW[Hz],dPh[rad]
9.35735e-04,3.18864e+01
9.43317e-04,3.09061e+01
9.50960e-04,2.99557e+01
9.58666e-04,2.90343e+01
9.66434e-04,2.81409e+01
9.74265e-04,2.72747e+01
9.82159e-04,2.64349e+01
9.90117e-04,2.56207e+01
9.98140e-04,2.48314e+01
1.00623e-03,2.40661e+01
1.01438e-03,2.33242e+01
1.02260e-03,2.26049e+01
1.03089e-03,2.19076e+01
1.03924e-03,2.12316e+01
1.04766e-03,2.05762e+01
1.05615e-03,1.99409e+01
1.06471e-03,1.93250e+01
1.07333e-03,1.87280e+01
1.08203e-03,1.81492e+01
1.09080e-03,1.75881e+01
1.09964e-03,1.70442e+01
1.10855e-03,1.65170e+01
1.11753e-03,1.60059e+01
1.12659e-03,1.55104e+01
1.13571e-03,1.50302e+01
1.14492e-03,1.45647e+01
1.15419e-03,1.41134e+01
1.16355e-03,1.36760e+01
1.17297e-03,1.32520e+01
1.18248e-03,1.28410e+01
1.19206e-03,1.24427e+01
1.20172e-03,1.20565e+01
1.21146e-03,1.16822e+01
1.22127e-03,1.13195e+01
1.23117e-03,1.09678e+01
1.24115e-03,1.06270e+01
1.25120e-03,1.02967e+01
1.26134e-03,9.97647e+00
1.27156e-03,9.66613e+00
1.28186e-03,9.36533e+00
1.29225e-03,9.07380e+00
1.30272e-03,8.79123e+00
1.31328e-03,8.51737e+00
1.32392e-03,8.25193e+00
1.33465e-03,7.99468e+00
1.34546e-03,7.74534e+00
1.35636e-03,7.50369e+00
1.36735e-03,7.26949e+00
1.37843e-03,7.04250e+00
1.38960e-03,6.82252e+00
1.40086e-03,6.60931e+00
1.41221e-03,6.40269e+00
1.42366e-03,6.20243e+00
1.43519e-03,6.00836e+00
1.44682e-03,5.82027e+00
1.45854e-03,5.63800e+00
1.47036e-03,5.46134e+00
1.48228e-03,5.29015e+00
1.49429e-03,5.12424e+00
1.50640e-03,4.96345e+00
1.51860e-03,4.80764e+00
1.53091e-03,4.65663e+00
1.54331e-03,4.51030e+00
1.55582e-03,4.36849e+00
1.56842e-03,4.23106e+00
1.58113e-03,4.09788e+00
1.59394e-03,3.96882e+00
1.60686e-03,3.84375e+00
1.61988e-03,3.72256e+00
1.63301e-03,3.60511e+00
1.64624e-03,3.49129e+00
1.65958e-03,3.38100e+00
1.67302e-03,3.27413e+00
1.68658e-03,3.17056e+00
1.70025e-03,3.07020e+00
1.71402e-03,2.97295e+00
1.72791e-03,2.87871e+00
1.74191e-03,2.78739e+00
1.75603e-03,2.69890e+00
1.77026e-03,2.61315e+00
1.78460e-03,2.53006e+00
1.79906e-03,2.44954e+00
1.81364e-03,2.37152e+00
1.82833e-03,2.29592e+00
1.84315e-03,2.22266e+00
1.85808e-03,2.15168e+00
1.87314e-03,2.08289e+00
1.88832e-03,2.01624e+00
1.90362e-03,1.95166e+00
1.91904e-03,1.88909e+00
1.93459e-03,1.82845e+00
1.95027e-03,1.76970e+00
1.96607e-03,1.71276e+00
1.98200e-03,1.65760e+00
1.99806e-03,1.60415e+00
2.01425e-03,1.55236e+00
2.03057e-03,1.50218e+00
2.04703e-03,1.45355e+00
2.06361e-03,1.40644e+00
2.08033e-03,1.36079e+00
2.09719e-03,1.31656e+00
2.11418e-03,1.27370e+00
2.13132e-03,1.23217e+00
2.14858e-03,1.19194e+00
2.16599e-03,1.15295e+00
2.18355e-03,1.11518e+00
2.20124e-03,1.07858e+00
2.21907e-03,1.04312e+00
2.23706e-03,1.00876e+00
2.25518e-03,9.75472e-01
2.27346e-03,9.43217e-01
2.29188e-03,9.11965e-01
2.31045e-03,8.81685e-01
2.32917e-03,8.52347e-01
2.34804e-03,8.23922e-01
2.36707e-03,7.96381e-01
2.38625e-03,7.69697e-01
2.40558e-03,7.43844e-01
2.42508e-03,7.18794e-01
2.44473e-03,6.94525e-01
2.46454e-03,6.71011e-01
2.48450e-03,6.48229e-01
2.50464e-03,6.26156e-01
2.52493e-03,6.04770e-01
2.54539e-03,5.84050e-01
2.56602e-03,5.63975e-01
2.58681e-03,5.44526e-01
2.60777e-03,5.25682e-01
2.62890e-03,5.07425e-01
2.65020e-03,4.89736e-01
2.67167e-03,4.72599e-01
2.69332e-03,4.55995e-01
2.71515e-03,4.39909e-01
2.73715e-03,4.24323e-01
2.75933e-03,4.09224e-01
2.78168e-03,3.94595e-01
2.80422e-03,3.80421e-01
2.82695e-03,3.66690e-01
2.84985e-03,3.53386e-01
2.87294e-03,3.40497e-01
2.89622e-03,3.28010e-01
2.91969e-03,3.15912e-01
2.94335e-03,3.04191e-01
2.96720e-03,2.92836e-01
2.99124e-03,2.81834e-01
3.01548e-03,2.71176e-01
3.03991e-03,2.60850e-01
3.06455e-03,2.50846e-01
3.08938e-03,2.41154e-01
3.11441e-03,2.31764e-01
3.13965e-03,2.22667e-01
3.16509e-03,2.13854e-01
3.19073e-03,2.05315e-01
3.21659e-03,1.97043e-01
3.24265e-03,1.89029e-01
3.26892e-03,1.81265e-01
3.29541e-03,1.73743e-01
3.32211e-03,1.66456e-01
3.34903e-03,1.59397e-01
3.37617e-03,1.52557e-01
3.40353e-03,1.45931e-01
3.43110e-03,1.39512e-01
3.45891e-03,1.33293e-01
3.48693e-03,1.27268e-01
3.51519e-03,1.21431e-01
3.54367e-03,1.15776e-01
3.57238e-03,1.10298e-01
3.60133e-03,1.04991e-01
3.63051e-03,9.98497e-02
3.65993e-03,9.48686e-02
3.68959e-03,9.00431e-02
3.71948e-03,8.53683e-02
3.74962e-03,8.08394e-02
3.78000e-03,7.64519e-02
3.81063e-03,7.22013e-02
3.84151e-03,6.80835e-02
3.87264e-03,6.40943e-02
3.90402e-03,6.02297e-02
3.93565e-03,5.64857e-02
3.96754e-03,5.28587e-02
3.99969e-03,4.93449e-02
4.03210e-03,4.59409e-02
4.06477e-03,4.26431e-02
4.09771e-03,3.94484e-02
4.13091e-03,3.63535e-02
4.16438e-03,3.33552e-02
4.19812e-03,3.04506e-02
4.23214e-03,2.76368e-02
4.26643e-03,2.49108e-02
4.30100e-03,2.22700e-02
4.33585e-03,1.97117e-02
4.37099e-03,1.72333e-02
4.40640e-03,1.48324e-02
4.44211e-03,1.25064e-02
4.47810e-03,1.02532e-02
4.51439e-03,8.07031e-03
4.55097e-03,5.95566e-03
4.58784e-03,3.90709e-03
4.62502e-03,1.92254e-03
4.66249e-03,0.00000e+00
