m1=71277.451, m2=16.473, gsp=2.414, rhosp=20.180
fGW[Hz],dPh[rad]
2.72454e-03,9.26243e+04
2.76760e-03,8.86479e+04
2.81133e-03,8.48298e+04
2.85575e-03,8.11645e+04
2.90088e-03,7.76462e+04
2.94672e-03,7.42695e+04
2.99328e-03,7.10293e+04
3.04058e-03,6.79205e+04
3.08862e-03,6.49381e+04
3.13743e-03,6.20775e+04
3.18700e-03,5.93341e+04
3.23736e-03,5.67036e+04
3.28852e-03,5.41816e+04
3.34048e-03,5.17640e+04
3.39327e-03,4.94470e+04
3.44689e-03,4.72266e+04
3.50135e-03,4.50992e+04
3.55668e-03,4.30612e+04
3.61288e-03,4.11092e+04
3.66997e-03,3.92397e+04
3.72796e-03,3.74497e+04
3.78687e-03,3.57360e+04
3.84671e-03,3.40956e+04
3.90749e-03,3.25257e+04
3.96923e-03,3.10235e+04
4.03195e-03,2.95862e+04
4.09566e-03,2.82114e+04
4.16038e-03,2.68965e+04
4.22612e-03,2.56390e+04
4.29290e-03,2.44368e+04
4.36074e-03,2.32875e+04
4.42964e-03,2.21890e+04
4.49964e-03,2.11393e+04
4.57074e-03,2.01363e+04
4.64296e-03,1.91782e+04
4.71633e-03,1.82629e+04
4.79086e-03,1.73889e+04
4.86656e-03,1.65544e+04
4.94346e-03,1.57577e+04
5.02157e-03,1.49972e+04
5.10092e-03,1.42714e+04
5.18152e-03,1.35788e+04
5.26340e-03,1.29181e+04
5.34657e-03,1.22878e+04
5.43105e-03,1.16867e+04
5.51687e-03,1.11135e+04
5.60405e-03,1.05670e+04
5.69260e-03,1.00460e+04
5.78255e-03,9.54947e+03
5.87392e-03,9.07627e+03
5.96674e-03,8.62539e+03
6.06103e-03,8.19585e+03
6.15680e-03,7.78671e+03
6.25409e-03,7.39706e+03
6.35291e-03,7.02602e+03
6.45330e-03,6.67276e+03
6.55527e-03,6.33649e+03
6.65885e-03,6.01643e+03
6.76407e-03,5.71184e+03
6.87095e-03,5.42203e+03
6.97953e-03,5.14632e+03
7.08981e-03,4.88406e+03
7.20184e-03,4.63462e+03
7.31564e-03,4.39743e+03
7.43124e-03,4.17190e+03
7.54867e-03,3.95750e+03
7.66795e-03,3.75370e+03
7.78911e-03,3.56002e+03
7.91219e-03,3.37596e+03
8.03722e-03,3.20108e+03
8.16422e-03,3.03494e+03
8.29323e-03,2.87712e+03
8.42427e-03,2.72723e+03
8.55739e-03,2.58489e+03
8.69261e-03,2.44974e+03
8.82996e-03,2.32142e+03
8.96949e-03,2.19961e+03
9.11122e-03,2.08400e+03
9.25519e-03,1.97427e+03
9.40144e-03,1.87015e+03
9.55000e-03,1.77136e+03
9.70090e-03,1.67763e+03
9.85419e-03,1.58872e+03
1.00099e-02,1.50439e+03
1.01681e-02,1.42441e+03
1.03287e-02,1.34857e+03
1.04920e-02,1.27666e+03
1.06577e-02,1.20848e+03
1.08262e-02,1.14384e+03
1.09972e-02,1.08258e+03
1.11710e-02,1.02452e+03
1.13475e-02,9.69487e+02
1.15268e-02,9.17343e+02
1.17090e-02,8.67936e+02
1.18940e-02,8.21127e+02
1.20819e-02,7.76783e+02
1.22728e-02,7.34779e+02
1.24668e-02,6.94995e+02
1.26638e-02,6.57316e+02
1.28639e-02,6.21635e+02
1.30671e-02,5.87848e+02
1.32736e-02,5.55858e+02
1.34834e-02,5.25571e+02
1.36964e-02,4.96899e+02
1.39129e-02,4.69759e+02
1.41327e-02,4.44070e+02
1.43560e-02,4.19756e+02
1.45829e-02,3.96747e+02
1.48133e-02,3.74972e+02
1.50474e-02,3.54368e+02
1.52851e-02,3.34874e+02
1.55267e-02,3.16430e+02
1.57720e-02,2.98981e+02
1.60212e-02,2.82474e+02
1.62744e-02,2.66861e+02
1.65316e-02,2.52092e+02
1.67928e-02,2.38124e+02
1.70581e-02,2.24914e+02
1.73277e-02,2.12422e+02
1.76015e-02,2.00609e+02
1.78796e-02,1.89439e+02
1.81621e-02,1.78877e+02
1.84491e-02,1.68891e+02
1.87406e-02,1.59451e+02
1.90368e-02,1.50526e+02
1.93376e-02,1.42089e+02
1.96432e-02,1.34114e+02
1.99535e-02,1.26576e+02
2.02688e-02,1.19451e+02
2.05891e-02,1.12717e+02
2.09145e-02,1.06353e+02
2.12449e-02,1.00338e+02
2.15806e-02,9.46547e+01
2.19217e-02,8.92839e+01
2.22680e-02,8.42090e+01
2.26199e-02,7.94138e+01
2.29773e-02,7.48830e+01
2.33404e-02,7.06024e+01
2.37092e-02,6.65582e+01
2.40839e-02,6.27375e+01
2.44644e-02,5.91281e+01
2.48510e-02,5.57185e+01
2.52437e-02,5.24976e+01
2.56426e-02,4.94552e+01
2.60478e-02,4.65815e+01
2.64594e-02,4.38672e+01
2.68775e-02,4.13035e+01
2.73022e-02,3.88821e+01
2.77336e-02,3.65953e+01
2.81718e-02,3.44356e+01
2.86170e-02,3.23960e+01
2.90692e-02,3.04699e+01
2.95285e-02,2.86510e+01
2.99951e-02,2.69335e+01
3.04691e-02,2.53116e+01
3.09506e-02,2.37801e+01
3.14396e-02,2.23340e+01
3.19364e-02,2.09686e+01
3.24411e-02,1.96795e+01
3.29537e-02,1.84623e+01
3.34744e-02,1.73131e+01
3.40033e-02,1.62281e+01
3.45406e-02,1.52037e+01
3.50864e-02,1.42367e+01
3.56409e-02,1.33237e+01
3.62040e-02,1.24618e+01
3.67761e-02,1.16482e+01
3.73572e-02,1.08801e+01
3.79475e-02,1.01551e+01
3.85472e-02,9.47068e+00
3.91563e-02,8.82463e+00
3.97750e-02,8.21479e+00
4.04035e-02,7.63916e+00
4.10420e-02,7.09582e+00
4.16905e-02,6.58297e+00
4.23493e-02,6.09891e+00
4.30184e-02,5.64202e+00
4.36982e-02,5.21079e+00
4.43887e-02,4.80379e+00
4.50901e-02,4.41965e+00
4.58026e-02,4.05710e+00
4.65263e-02,3.71493e+00
4.72615e-02,3.39200e+00
4.80083e-02,3.08723e+00
4.87669e-02,2.79960e+00
4.95375e-02,2.52816e+00
5.03203e-02,2.27199e+00
5.11155e-02,2.03024e+00
5.19232e-02,1.80209e+00
5.27436e-02,1.58680e+00
5.35770e-02,1.38363e+00
5.44237e-02,1.19190e+00
5.52836e-02,1.01097e+00
5.61572e-02,8.40240e-01
5.70446e-02,6.79130e-01
5.79460e-02,5.27100e-01
5.88616e-02,3.83641e-01
5.97917e-02,2.48270e-01
6.07365e-02,1.20533e-01
6.16962e-02,0.00000e+00
