m1=3389.867, m2=42.969, gsp=2.426, rhosp=201.547
fGW[Hz],dPh[rad]
4.07865e-03,1.27351e+04
4.19861e-03,1.19994e+04
4.32210e-03,1.13061e+04
4.44922e-03,1.06529e+04
4.58008e-03,1.00373e+04
4.71478e-03,9.45730e+03
4.85345e-03,8.91075e+03
4.99620e-03,8.39574e+03
5.14314e-03,7.91046e+03
5.29441e-03,7.45319e+03
5.45012e-03,7.02231e+03
5.61042e-03,6.61630e+03
5.77543e-03,6.23372e+03
5.94529e-03,5.87323e+03
6.12015e-03,5.53356e+03
6.30015e-03,5.21349e+03
6.48544e-03,4.91190e+03
6.67619e-03,4.62772e+03
6.87255e-03,4.35995e+03
7.07468e-03,4.10763e+03
7.28275e-03,3.86989e+03
7.49695e-03,3.64588e+03
7.71744e-03,3.43480e+03
7.94442e-03,3.23591e+03
8.17808e-03,3.04851e+03
8.41860e-03,2.87193e+03
8.66621e-03,2.70555e+03
8.92109e-03,2.54879e+03
9.18347e-03,2.40107e+03
9.45357e-03,2.26189e+03
9.73161e-03,2.13076e+03
1.00178e-02,2.00720e+03
1.03125e-02,1.89077e+03
1.06158e-02,1.78108e+03
1.09280e-02,1.67773e+03
1.12494e-02,1.58035e+03
1.15803e-02,1.48860e+03
1.19208e-02,1.40215e+03
1.22715e-02,1.32070e+03
1.26324e-02,1.24396e+03
1.30039e-02,1.17166e+03
1.33864e-02,1.10354e+03
1.37801e-02,1.03935e+03
1.41854e-02,9.78886e+02
1.46026e-02,9.21915e+02
1.50321e-02,8.68242e+02
1.54742e-02,8.17674e+02
1.59293e-02,7.70033e+02
1.63978e-02,7.25150e+02
1.68801e-02,6.82865e+02
1.73765e-02,6.43029e+02
1.78876e-02,6.05500e+02
1.84137e-02,5.70145e+02
1.89553e-02,5.36838e+02
1.95128e-02,5.05461e+02
2.00867e-02,4.75903e+02
2.06774e-02,4.48058e+02
2.12856e-02,4.21828e+02
2.19116e-02,3.97119e+02
2.25561e-02,3.73843e+02
2.32195e-02,3.51919e+02
2.39024e-02,3.31266e+02
2.46054e-02,3.11813e+02
2.53291e-02,2.93489e+02
2.60740e-02,2.76230e+02
2.68409e-02,2.59974e+02
2.76303e-02,2.44662e+02
2.84430e-02,2.30241e+02
2.92795e-02,2.16659e+02
3.01407e-02,2.03867e+02
3.10271e-02,1.91819e+02
3.19397e-02,1.80474e+02
3.28791e-02,1.69789e+02
3.38461e-02,1.59727e+02
3.48415e-02,1.50251e+02
3.58663e-02,1.41329e+02
3.69212e-02,1.32927e+02
3.80071e-02,1.25016e+02
3.91249e-02,1.17567e+02
4.02756e-02,1.10553e+02
4.14602e-02,1.03950e+02
4.26796e-02,9.77330e+01
4.39348e-02,9.18802e+01
4.52270e-02,8.63704e+01
4.65572e-02,8.11836e+01
4.79265e-02,7.63013e+01
4.93361e-02,7.17056e+01
5.07871e-02,6.73801e+01
5.22808e-02,6.33089e+01
5.38185e-02,5.94774e+01
5.54013e-02,5.58717e+01
5.70308e-02,5.24785e+01
5.87081e-02,4.92857e+01
6.04348e-02,4.62815e+01
6.22123e-02,4.34549e+01
6.40420e-02,4.07957e+01
6.59256e-02,3.82941e+01
6.78645e-02,3.59410e+01
6.98605e-02,3.37276e+01
7.19152e-02,3.16459e+01
7.40303e-02,2.96882e+01
7.62076e-02,2.78472e+01
7.84490e-02,2.61162e+01
8.07563e-02,2.44887e+01
8.31314e-02,2.29586e+01
8.55764e-02,2.15204e+01
8.80933e-02,2.01686e+01
9.06843e-02,1.88981e+01
9.33514e-02,1.77042e+01
9.60970e-02,1.65825e+01
9.89233e-02,1.55286e+01
1.01833e-01,1.45386e+01
1.04828e-01,1.36088e+01
1.07911e-01,1.27355e+01
1.11085e-01,1.19156e+01
1.14352e-01,1.11458e+01
1.17715e-01,1.04232e+01
1.21177e-01,9.74494e+00
1.24741e-01,9.10850e+00
1.28410e-01,8.51136e+00
1.32187e-01,7.95120e+00
1.36075e-01,7.42583e+00
1.40077e-01,6.93317e+00
1.44197e-01,6.47128e+00
1.48438e-01,6.03833e+00
1.52803e-01,5.63259e+00
1.57297e-01,5.25243e+00
1.61924e-01,4.89633e+00
1.66686e-01,4.56283e+00
1.71589e-01,4.25059e+00
1.76635e-01,3.95831e+00
1.81830e-01,3.68480e+00
1.87178e-01,3.42892e+00
1.92683e-01,3.18959e+00
1.98350e-01,2.96582e+00
2.04184e-01,2.75665e+00
2.10189e-01,2.56119e+00
2.16371e-01,2.37860e+00
2.22735e-01,2.20808e+00
2.29286e-01,2.04890e+00
2.36030e-01,1.90035e+00
2.42972e-01,1.76177e+00
2.50118e-01,1.63254e+00
2.57474e-01,1.51206e+00
2.65047e-01,1.39981e+00
2.72842e-01,1.29524e+00
2.80867e-01,1.19788e+00
2.89127e-01,1.10727e+00
2.97631e-01,1.02297e+00
3.06385e-01,9.44579e-01
3.15396e-01,8.71718e-01
3.24672e-01,8.04025e-01
3.34221e-01,7.41164e-01
3.44051e-01,6.82816e-01
3.54170e-01,6.28684e-01
3.64586e-01,5.78489e-01
3.75309e-01,5.31966e-01
3.86348e-01,4.88870e-01
3.97711e-01,4.48968e-01
4.09408e-01,4.12042e-01
4.21449e-01,3.77890e-01
4.33844e-01,3.46319e-01
4.46604e-01,3.17151e-01
4.59739e-01,2.90217e-01
4.73261e-01,2.65359e-01
4.87180e-01,2.42431e-01
5.01509e-01,2.21294e-01
5.16259e-01,2.01819e-01
5.31443e-01,1.83886e-01
5.47073e-01,1.67383e-01
5.63163e-01,1.52203e-01
5.79727e-01,1.38249e-01
5.96777e-01,1.25428e-01
6.14329e-01,1.13656e-01
6.32397e-01,1.02853e-01
6.50997e-01,9.29442e-02
6.70144e-01,8.38613e-02
6.89853e-01,7.55399e-02
7.10143e-01,6.79204e-02
7.31029e-01,6.09473e-02
7.52530e-01,5.45694e-02
7.74662e-01,4.87390e-02
7.97446e-01,4.34119e-02
8.20900e-01,3.85472e-02
8.45044e-01,3.41071e-02
8.69898e-01,3.00566e-02
8.95482e-01,2.63634e-02
9.21820e-01,2.29976e-02
9.48932e-01,1.99317e-02
9.76841e-01,1.71403e-02
1.00557e+00,1.46001e-02
1.03515e+00,1.22894e-02
1.06559e+00,1.01885e-02
1.09693e+00,8.27913e-03
1.12919e+00,6.54464e-03
1.16240e+00,4.96964e-03
1.19659e+00,3.54005e-03
1.23179e+00,2.24297e-03
1.26801e+00,1.06656e-03
1.30531e+00,0.00000e+00
