m1=50611.508, m2=59.775, gsp=2.447, rhosp=703.032
fGW[Hz],dPh[rad]
1.83070e-03,1.08101e+05
1.86656e-03,1.03579e+05
1.90312e-03,9.92384e+04
1.94040e-03,9.50727e+04
1.97841e-03,9.10747e+04
2.01717e-03,8.72379e+04
2.05668e-03,8.35559e+04
2.09697e-03,8.00227e+04
2.13804e-03,7.66324e+04
2.17992e-03,7.33795e+04
2.22263e-03,7.02584e+04
2.26616e-03,6.72640e+04
2.31055e-03,6.43914e+04
2.35581e-03,6.16357e+04
2.40196e-03,5.89923e+04
2.44901e-03,5.64568e+04
2.49698e-03,5.40250e+04
2.54589e-03,5.16927e+04
2.59576e-03,4.94561e+04
2.64661e-03,4.73112e+04
2.69845e-03,4.52546e+04
2.75131e-03,4.32827e+04
2.80521e-03,4.13922e+04
2.86016e-03,3.95798e+04
2.91618e-03,3.78424e+04
2.97330e-03,3.61771e+04
3.03155e-03,3.45809e+04
3.09093e-03,3.30512e+04
3.15148e-03,3.15853e+04
3.21321e-03,3.01807e+04
3.27615e-03,2.88349e+04
3.34032e-03,2.75455e+04
3.40576e-03,2.63103e+04
3.47247e-03,2.51272e+04
3.54049e-03,2.39940e+04
3.60984e-03,2.29087e+04
3.68055e-03,2.18695e+04
3.75265e-03,2.08745e+04
3.82616e-03,1.99218e+04
3.90110e-03,1.90099e+04
3.97752e-03,1.81370e+04
4.05543e-03,1.73015e+04
4.13487e-03,1.65020e+04
4.21587e-03,1.57370e+04
4.29845e-03,1.50051e+04
4.38265e-03,1.43049e+04
4.46850e-03,1.36352e+04
4.55603e-03,1.29947e+04
4.64528e-03,1.23822e+04
4.73627e-03,1.17966e+04
4.82904e-03,1.12367e+04
4.92364e-03,1.07016e+04
5.02008e-03,1.01901e+04
5.11842e-03,9.70137e+03
5.21868e-03,9.23440e+03
5.32091e-03,8.78830e+03
5.42513e-03,8.36220e+03
5.53140e-03,7.95527e+03
5.63975e-03,7.56671e+03
5.75023e-03,7.19575e+03
5.86287e-03,6.84165e+03
5.97771e-03,6.50370e+03
6.09480e-03,6.18123e+03
6.21419e-03,5.87357e+03
6.33592e-03,5.58010e+03
6.46003e-03,5.30022e+03
6.58657e-03,5.03334e+03
6.71559e-03,4.77891e+03
6.84714e-03,4.53639e+03
6.98126e-03,4.30528e+03
7.11801e-03,4.08507e+03
7.25744e-03,3.87529e+03
7.39960e-03,3.67550e+03
7.54455e-03,3.48525e+03
7.69234e-03,3.30413e+03
7.84302e-03,3.13173e+03
7.99665e-03,2.96768e+03
8.15329e-03,2.81159e+03
8.31300e-03,2.66312e+03
8.47584e-03,2.52192e+03
8.64187e-03,2.38767e+03
8.81115e-03,2.26005e+03
8.98374e-03,2.13877e+03
9.15972e-03,2.02354e+03
9.33914e-03,1.91408e+03
9.52208e-03,1.81012e+03
9.70860e-03,1.71142e+03
9.89878e-03,1.61772e+03
1.00927e-02,1.52881e+03
1.02904e-02,1.44444e+03
1.04920e-02,1.36442e+03
1.06975e-02,1.28853e+03
1.09070e-02,1.21659e+03
1.11207e-02,1.14839e+03
1.13385e-02,1.08376e+03
1.15606e-02,1.02254e+03
1.17871e-02,9.64553e+02
1.20179e-02,9.09645e+02
1.22534e-02,8.57665e+02
1.24934e-02,8.08470e+02
1.27381e-02,7.61923e+02
1.29876e-02,7.17892e+02
1.32420e-02,6.76251e+02
1.35014e-02,6.36882e+02
1.37659e-02,5.99669e+02
1.40355e-02,5.64504e+02
1.43105e-02,5.31282e+02
1.45908e-02,4.99904e+02
1.48766e-02,4.70275e+02
1.51680e-02,4.42304e+02
1.54651e-02,4.15906e+02
1.57681e-02,3.90998e+02
1.60769e-02,3.67501e+02
1.63919e-02,3.45343e+02
1.67130e-02,3.24450e+02
1.70403e-02,3.04757e+02
1.73741e-02,2.86198e+02
1.77145e-02,2.68713e+02
1.80615e-02,2.52243e+02
1.84152e-02,2.36733e+02
1.87760e-02,2.22131e+02
1.91438e-02,2.08387e+02
1.95188e-02,1.95453e+02
1.99011e-02,1.83284e+02
2.02909e-02,1.71838e+02
2.06884e-02,1.61074e+02
2.10937e-02,1.50954e+02
2.15068e-02,1.41442e+02
2.19281e-02,1.32502e+02
2.23577e-02,1.24102e+02
2.27956e-02,1.16212e+02
2.32421e-02,1.08802e+02
2.36974e-02,1.01844e+02
2.41616e-02,9.53113e+01
2.46349e-02,8.91801e+01
2.51175e-02,8.34265e+01
2.56095e-02,7.80282e+01
2.61111e-02,7.29644e+01
2.66226e-02,6.82151e+01
2.71441e-02,6.37617e+01
2.76758e-02,5.95866e+01
2.82179e-02,5.56729e+01
2.87707e-02,5.20051e+01
2.93342e-02,4.85682e+01
2.99088e-02,4.53482e+01
3.04947e-02,4.23320e+01
3.10920e-02,3.95072e+01
3.17011e-02,3.68620e+01
3.23221e-02,3.43854e+01
3.29552e-02,3.20670e+01
3.36007e-02,2.98970e+01
3.42589e-02,2.78662e+01
3.49300e-02,2.59660e+01
3.56142e-02,2.41882e+01
3.63118e-02,2.25252e+01
3.70231e-02,2.09698e+01
3.77484e-02,1.95152e+01
3.84878e-02,1.81550e+01
3.92417e-02,1.68833e+01
4.00104e-02,1.56945e+01
4.07941e-02,1.45833e+01
4.15932e-02,1.35447e+01
4.24079e-02,1.25742e+01
4.32386e-02,1.16673e+01
4.40856e-02,1.08201e+01
4.49492e-02,1.00286e+01
4.58297e-02,9.28924e+00
4.67274e-02,8.59870e+00
4.76427e-02,7.95381e+00
4.85760e-02,7.35159e+00
4.95275e-02,6.78929e+00
5.04976e-02,6.26431e+00
5.14868e-02,5.77421e+00
5.24954e-02,5.31672e+00
5.35237e-02,4.88970e+00
5.45721e-02,4.49116e+00
5.56411e-02,4.11922e+00
5.67310e-02,3.77215e+00
5.78423e-02,3.44830e+00
5.89753e-02,3.14614e+00
6.01305e-02,2.86424e+00
6.13084e-02,2.60125e+00
6.25093e-02,2.35594e+00
6.37338e-02,2.12712e+00
6.49822e-02,1.91370e+00
6.62551e-02,1.71466e+00
6.75529e-02,1.52903e+00
6.88762e-02,1.35594e+00
7.02254e-02,1.19453e+00
7.16010e-02,1.04403e+00
7.30035e-02,9.03703e-01
7.44335e-02,7.72879e-01
7.58916e-02,6.50916e-01
7.73782e-02,5.37220e-01
7.88939e-02,4.31235e-01
8.04393e-02,3.32443e-01
8.20149e-02,2.40361e-01
8.36215e-02,1.54536e-01
8.52595e-02,7.45469e-02
8.69296e-02,0.00000e+00
