m1=705266.494, m2=3.712, gsp=2.482, rhosp=35.017
fGW[Hz],dPh[rad]
2.68618e-03,2.51830e+04
2.69757e-03,2.47760e+04
2.70901e-03,2.43752e+04
2.72050e-03,2.39807e+04
2.73203e-03,2.35922e+04
2.74362e-03,2.32097e+04
2.75525e-03,2.28332e+04
2.76693e-03,2.24624e+04
2.77866e-03,2.20973e+04
2.79045e-03,2.17379e+04
2.80228e-03,2.13841e+04
2.81416e-03,2.10356e+04
2.82609e-03,2.06926e+04
2.83807e-03,2.03549e+04
2.85011e-03,2.00223e+04
2.86219e-03,1.96949e+04
2.87433e-03,1.93726e+04
2.88652e-03,1.90552e+04
2.89876e-03,1.87427e+04
2.91105e-03,1.84350e+04
2.92339e-03,1.81321e+04
2.93578e-03,1.78339e+04
2.94823e-03,1.75402e+04
2.96073e-03,1.72511e+04
2.97329e-03,1.69665e+04
2.98589e-03,1.66862e+04
2.99855e-03,1.64103e+04
3.01127e-03,1.61386e+04
3.02404e-03,1.58711e+04
3.03686e-03,1.56077e+04
3.04974e-03,1.53484e+04
3.06267e-03,1.50931e+04
3.07565e-03,1.48418e+04
3.08869e-03,1.45943e+04
3.10179e-03,1.43506e+04
3.11494e-03,1.41107e+04
3.12815e-03,1.38745e+04
3.14141e-03,1.36420e+04
3.15473e-03,1.34130e+04
3.16811e-03,1.31876e+04
3.18154e-03,1.29656e+04
3.19503e-03,1.27471e+04
3.20858e-03,1.25319e+04
3.22218e-03,1.23201e+04
3.23585e-03,1.21115e+04
3.24957e-03,1.19061e+04
3.26335e-03,1.17040e+04
3.27718e-03,1.15049e+04
3.29108e-03,1.13089e+04
3.30503e-03,1.11159e+04
3.31905e-03,1.09259e+04
3.33312e-03,1.07389e+04
3.34725e-03,1.05547e+04
3.36144e-03,1.03734e+04
3.37570e-03,1.01948e+04
3.39001e-03,1.00191e+04
3.40438e-03,9.84599e+03
3.41882e-03,9.67560e+03
3.43331e-03,9.50783e+03
3.44787e-03,9.34265e+03
3.46249e-03,9.18003e+03
3.47717e-03,9.01991e+03
3.49192e-03,8.86226e+03
3.50672e-03,8.70705e+03
3.52159e-03,8.55423e+03
3.53652e-03,8.40377e+03
3.55152e-03,8.25563e+03
3.56658e-03,8.10978e+03
3.58170e-03,7.96617e+03
3.59689e-03,7.82479e+03
3.61214e-03,7.68558e+03
3.62745e-03,7.54853e+03
3.64283e-03,7.41359e+03
3.65828e-03,7.28073e+03
3.67379e-03,7.14992e+03
3.68937e-03,7.02114e+03
3.70501e-03,6.89434e+03
3.72072e-03,6.76949e+03
3.73650e-03,6.64657e+03
3.75234e-03,6.52555e+03
3.76825e-03,6.40640e+03
3.78423e-03,6.28909e+03
3.80027e-03,6.17359e+03
3.81639e-03,6.05987e+03
3.83257e-03,5.94790e+03
3.84882e-03,5.83766e+03
3.86514e-03,5.72913e+03
3.88153e-03,5.62227e+03
3.89799e-03,5.51706e+03
3.91451e-03,5.41347e+03
3.93111e-03,5.31148e+03
3.94778e-03,5.21107e+03
3.96452e-03,5.11220e+03
3.98133e-03,5.01487e+03
3.99821e-03,4.91903e+03
4.01516e-03,4.82467e+03
4.03219e-03,4.73177e+03
4.04928e-03,4.64031e+03
4.06645e-03,4.55025e+03
4.08369e-03,4.46159e+03
4.10101e-03,4.37429e+03
4.11840e-03,4.28834e+03
4.13586e-03,4.20372e+03
4.15340e-03,4.12041e+03
4.17101e-03,4.03838e+03
4.18869e-03,3.95761e+03
4.20645e-03,3.87810e+03
4.22429e-03,3.79981e+03
4.24220e-03,3.72272e+03
4.26019e-03,3.64683e+03
4.27825e-03,3.57211e+03
4.29639e-03,3.49855e+03
4.31461e-03,3.42612e+03
4.33290e-03,3.35480e+03
4.35128e-03,3.28459e+03
4.36972e-03,3.21546e+03
4.38825e-03,3.14740e+03
4.40686e-03,3.08039e+03
4.42554e-03,3.01442e+03
4.44431e-03,2.94946e+03
4.46315e-03,2.88550e+03
4.48208e-03,2.82254e+03
4.50108e-03,2.76054e+03
4.52017e-03,2.69950e+03
4.53933e-03,2.63940e+03
4.55858e-03,2.58024e+03
4.57791e-03,2.52198e+03
4.59732e-03,2.46462e+03
4.61681e-03,2.40815e+03
4.63639e-03,2.35256e+03
4.65605e-03,2.29781e+03
4.67579e-03,2.24392e+03
4.69562e-03,2.19086e+03
4.71552e-03,2.13861e+03
4.73552e-03,2.08717e+03
4.75560e-03,2.03653e+03
4.77576e-03,1.98667e+03
4.79601e-03,1.93758e+03
4.81635e-03,1.88924e+03
4.83677e-03,1.84165e+03
4.85728e-03,1.79480e+03
4.87787e-03,1.74867e+03
4.89856e-03,1.70325e+03
4.91933e-03,1.65853e+03
4.94018e-03,1.61451e+03
4.96113e-03,1.57116e+03
4.98217e-03,1.52848e+03
5.00329e-03,1.48646e+03
5.02451e-03,1.44509e+03
5.04581e-03,1.40436e+03
5.06720e-03,1.36426e+03
5.08869e-03,1.32478e+03
5.11027e-03,1.28590e+03
5.13193e-03,1.24763e+03
5.15369e-03,1.20995e+03
5.17555e-03,1.17285e+03
5.19749e-03,1.13632e+03
5.21953e-03,1.10035e+03
5.24166e-03,1.06494e+03
5.26389e-03,1.03008e+03
5.28620e-03,9.95757e+02
5.30862e-03,9.61962e+02
5.33113e-03,9.28690e+02
5.35373e-03,8.95931e+02
5.37643e-03,8.63678e+02
5.39923e-03,8.31923e+02
5.42212e-03,8.00658e+02
5.44511e-03,7.69876e+02
5.46820e-03,7.39569e+02
5.49139e-03,7.09730e+02
5.51467e-03,6.80351e+02
5.53805e-03,6.51427e+02
5.56153e-03,6.22949e+02
5.58512e-03,5.94910e+02
5.60880e-03,5.67305e+02
5.63258e-03,5.40125e+02
5.65646e-03,5.13366e+02
5.68044e-03,4.87019e+02
5.70453e-03,4.61079e+02
5.72872e-03,4.35540e+02
5.75301e-03,4.10395e+02
5.77740e-03,3.85638e+02
5.80190e-03,3.61264e+02
5.82650e-03,3.37266e+02
5.85120e-03,3.13638e+02
5.87601e-03,2.90375e+02
5.90093e-03,2.67472e+02
5.92595e-03,2.44922e+02
5.95107e-03,2.22720e+02
5.97631e-03,2.00861e+02
6.00165e-03,1.79340e+02
6.02710e-03,1.58150e+02
6.05265e-03,1.37288e+02
6.07831e-03,1.16748e+02
6.10409e-03,9.65255e+01
6.12997e-03,7.66150e+01
6.15596e-03,5.70119e+01
6.18206e-03,3.77114e+01
6.20827e-03,1.87090e+01
6.23460e-03,0.00000e+00
