m1=279407.360, m2=4.240, gsp=2.361, rhosp=53.149
fGW[Hz],dPh[rad]
3.22089e-03,1.19683e+04
3.24667e-03,1.16165e+04
3.27265e-03,1.12750e+04
3.29884e-03,1.09435e+04
3.32525e-03,1.06217e+04
3.35186e-03,1.03092e+04
3.37869e-03,1.00060e+04
3.40573e-03,9.71154e+03
3.43299e-03,9.42574e+03
3.46046e-03,9.14829e+03
3.48816e-03,8.87896e+03
3.51607e-03,8.61752e+03
3.54422e-03,8.36372e+03
3.57258e-03,8.11735e+03
3.60118e-03,7.87820e+03
3.63000e-03,7.64604e+03
3.65905e-03,7.42068e+03
3.68834e-03,7.20192e+03
3.71786e-03,6.98956e+03
3.74761e-03,6.78343e+03
3.77761e-03,6.58333e+03
3.80784e-03,6.38909e+03
3.83832e-03,6.20055e+03
3.86904e-03,6.01752e+03
3.90000e-03,5.83986e+03
3.93122e-03,5.66741e+03
3.96268e-03,5.50001e+03
3.99440e-03,5.33752e+03
4.02637e-03,5.17979e+03
4.05859e-03,5.02668e+03
4.09107e-03,4.87807e+03
4.12382e-03,4.73381e+03
4.15682e-03,4.59378e+03
4.19009e-03,4.45785e+03
4.22363e-03,4.32592e+03
4.25743e-03,4.19785e+03
4.29151e-03,4.07354e+03
4.32585e-03,3.95288e+03
4.36048e-03,3.83576e+03
4.39537e-03,3.72207e+03
4.43055e-03,3.61172e+03
4.46601e-03,3.50461e+03
4.50176e-03,3.40064e+03
4.53779e-03,3.29972e+03
4.57411e-03,3.20177e+03
4.61071e-03,3.10669e+03
4.64762e-03,3.01440e+03
4.68481e-03,2.92482e+03
4.72231e-03,2.83788e+03
4.76010e-03,2.75348e+03
4.79820e-03,2.67157e+03
4.83661e-03,2.59205e+03
4.87532e-03,2.51488e+03
4.91434e-03,2.43997e+03
4.95367e-03,2.36726e+03
4.99331e-03,2.29669e+03
5.03328e-03,2.22819e+03
5.07356e-03,2.16170e+03
5.11417e-03,2.09717e+03
5.15510e-03,2.03453e+03
5.19636e-03,1.97374e+03
5.23795e-03,1.91473e+03
5.27987e-03,1.85745e+03
5.32213e-03,1.80186e+03
5.36473e-03,1.74790e+03
5.40766e-03,1.69553e+03
5.45094e-03,1.64470e+03
5.49457e-03,1.59536e+03
5.53855e-03,1.54747e+03
5.58287e-03,1.50099e+03
5.62756e-03,1.45588e+03
5.67260e-03,1.41210e+03
5.71800e-03,1.36960e+03
5.76376e-03,1.32835e+03
5.80989e-03,1.28831e+03
5.85639e-03,1.24945e+03
5.90326e-03,1.21174e+03
5.95051e-03,1.17513e+03
5.99814e-03,1.13960e+03
6.04614e-03,1.10512e+03
6.09453e-03,1.07165e+03
6.14331e-03,1.03916e+03
6.19248e-03,1.00764e+03
6.24204e-03,9.77034e+02
6.29200e-03,9.47333e+02
6.34236e-03,9.18506e+02
6.39312e-03,8.90527e+02
6.44429e-03,8.63371e+02
6.49587e-03,8.37015e+02
6.54786e-03,8.11434e+02
6.60026e-03,7.86607e+02
6.65309e-03,7.62509e+02
6.70634e-03,7.39122e+02
6.76001e-03,7.16422e+02
6.81411e-03,6.94391e+02
6.86865e-03,6.73008e+02
6.92362e-03,6.52255e+02
6.97904e-03,6.32113e+02
7.03490e-03,6.12564e+02
7.09120e-03,5.93590e+02
7.14795e-03,5.75175e+02
7.20516e-03,5.57302e+02
7.26283e-03,5.39956e+02
7.32096e-03,5.23120e+02
7.37955e-03,5.06780e+02
7.43862e-03,4.90921e+02
7.49815e-03,4.75530e+02
7.55816e-03,4.60591e+02
7.61865e-03,4.46093e+02
7.67963e-03,4.32021e+02
7.74110e-03,4.18364e+02
7.80305e-03,4.05110e+02
7.86550e-03,3.92245e+02
7.92846e-03,3.79760e+02
7.99191e-03,3.67642e+02
8.05587e-03,3.55882e+02
8.12035e-03,3.44467e+02
8.18534e-03,3.33389e+02
8.25085e-03,3.22638e+02
8.31689e-03,3.12203e+02
8.38345e-03,3.02076e+02
8.45055e-03,2.92247e+02
8.51819e-03,2.82707e+02
8.58636e-03,2.73449e+02
8.65508e-03,2.64463e+02
8.72436e-03,2.55743e+02
8.79418e-03,2.47279e+02
8.86457e-03,2.39065e+02
8.93551e-03,2.31092e+02
9.00703e-03,2.23355e+02
9.07912e-03,2.15846e+02
9.15178e-03,2.08558e+02
9.22503e-03,2.01484e+02
9.29886e-03,1.94620e+02
9.37329e-03,1.87957e+02
9.44831e-03,1.81491e+02
9.52393e-03,1.75216e+02
9.60015e-03,1.69125e+02
9.67699e-03,1.63214e+02
9.75444e-03,1.57477e+02
9.83251e-03,1.51910e+02
9.91120e-03,1.46506e+02
9.99053e-03,1.41262e+02
1.00705e-02,1.36172e+02
1.01511e-02,1.31233e+02
1.02323e-02,1.26439e+02
1.03142e-02,1.21786e+02
1.03968e-02,1.17271e+02
1.04800e-02,1.12888e+02
1.05639e-02,1.08635e+02
1.06484e-02,1.04507e+02
1.07336e-02,1.00501e+02
1.08195e-02,9.66132e+01
1.09061e-02,9.28399e+01
1.09934e-02,8.91779e+01
1.10814e-02,8.56238e+01
1.11701e-02,8.21745e+01
1.12595e-02,7.88269e+01
1.13496e-02,7.55781e+01
1.14405e-02,7.24250e+01
1.15320e-02,6.93650e+01
1.16243e-02,6.63951e+01
1.17174e-02,6.35129e+01
1.18111e-02,6.07156e+01
1.19057e-02,5.80008e+01
1.20010e-02,5.53661e+01
1.20970e-02,5.28091e+01
1.21938e-02,5.03275e+01
1.22914e-02,4.79191e+01
1.23898e-02,4.55817e+01
1.24890e-02,4.33133e+01
1.25889e-02,4.11117e+01
1.26897e-02,3.89751e+01
1.27912e-02,3.69016e+01
1.28936e-02,3.48891e+01
1.29968e-02,3.29361e+01
1.31008e-02,3.10406e+01
1.32057e-02,2.92010e+01
1.33114e-02,2.74157e+01
1.34179e-02,2.56831e+01
1.35253e-02,2.40016e+01
1.36335e-02,2.23697e+01
1.37427e-02,2.07859e+01
1.38527e-02,1.92488e+01
1.39635e-02,1.77571e+01
1.40753e-02,1.63093e+01
1.41879e-02,1.49043e+01
1.43015e-02,1.35408e+01
1.44160e-02,1.22174e+01
1.45313e-02,1.09331e+01
1.46476e-02,9.68671e+00
1.47649e-02,8.47706e+00
1.48830e-02,7.30310e+00
1.50022e-02,6.16378e+00
1.51222e-02,5.05807e+00
1.52433e-02,3.98497e+00
1.53653e-02,2.94354e+00
1.54882e-02,1.93284e+00
1.56122e-02,9.51948e-01
1.57371e-02,0.00000e+00
