m1=14529.011, m2=31.076, gsp=2.206, rhosp=8883.214
fGW[Hz],dPh[rad]
3.19675e-03,3.05043e+03
3.27071e-03,2.89784e+03
3.34638e-03,2.75279e+03
3.42380e-03,2.61492e+03
3.50301e-03,2.48386e+03
3.58405e-03,2.35929e+03
3.66697e-03,2.24088e+03
3.75181e-03,2.12834e+03
3.83861e-03,2.02137e+03
3.92742e-03,1.91970e+03
4.01828e-03,1.82306e+03
4.11124e-03,1.73122e+03
4.20636e-03,1.64394e+03
4.30367e-03,1.56099e+03
4.40324e-03,1.48215e+03
4.50511e-03,1.40723e+03
4.60934e-03,1.33603e+03
4.71597e-03,1.26838e+03
4.82508e-03,1.20408e+03
4.93671e-03,1.14299e+03
5.05092e-03,1.08494e+03
5.16777e-03,1.02978e+03
5.28733e-03,9.77364e+02
5.40966e-03,9.27566e+02
5.53481e-03,8.80253e+02
5.66286e-03,8.35302e+02
5.79387e-03,7.92596e+02
5.92791e-03,7.52026e+02
6.06506e-03,7.13485e+02
6.20538e-03,6.76873e+02
6.34894e-03,6.42095e+02
6.49582e-03,6.09060e+02
6.64611e-03,5.77682e+02
6.79987e-03,5.47880e+02
6.95718e-03,5.19575e+02
7.11814e-03,4.92693e+02
7.28282e-03,4.67164e+02
7.45131e-03,4.42921e+02
7.62370e-03,4.19900e+02
7.80007e-03,3.98041e+02
7.98053e-03,3.77286e+02
8.16516e-03,3.57580e+02
8.35407e-03,3.38871e+02
8.54734e-03,3.21111e+02
8.74508e-03,3.04251e+02
8.94740e-03,2.88247e+02
9.15440e-03,2.73056e+02
9.36619e-03,2.58639e+02
9.58288e-03,2.44956e+02
9.80459e-03,2.31971e+02
1.00314e-02,2.19649e+02
1.02635e-02,2.07958e+02
1.05009e-02,1.96865e+02
1.07439e-02,1.86341e+02
1.09925e-02,1.76358e+02
1.12468e-02,1.66888e+02
1.15070e-02,1.57906e+02
1.17732e-02,1.49387e+02
1.20456e-02,1.41308e+02
1.23242e-02,1.33648e+02
1.26094e-02,1.26385e+02
1.29011e-02,1.19499e+02
1.31995e-02,1.12971e+02
1.35049e-02,1.06784e+02
1.38174e-02,1.00919e+02
1.41370e-02,9.53617e+01
1.44641e-02,9.00956e+01
1.47987e-02,8.51061e+01
1.51411e-02,8.03793e+01
1.54914e-02,7.59019e+01
1.58498e-02,7.16613e+01
1.62165e-02,6.76453e+01
1.65917e-02,6.38427e+01
1.69755e-02,6.02425e+01
1.73682e-02,5.68345e+01
1.77701e-02,5.36089e+01
1.81812e-02,5.05563e+01
1.86018e-02,4.76679e+01
1.90322e-02,4.49352e+01
1.94725e-02,4.23504e+01
1.99230e-02,3.99057e+01
2.03839e-02,3.75939e+01
2.08555e-02,3.54083e+01
2.13380e-02,3.33422e+01
2.18316e-02,3.13896e+01
2.23367e-02,2.95444e+01
2.28535e-02,2.78011e+01
2.33822e-02,2.61545e+01
2.39232e-02,2.45993e+01
2.44766e-02,2.31309e+01
2.50429e-02,2.17448e+01
2.56223e-02,2.04365e+01
2.62151e-02,1.92019e+01
2.68216e-02,1.80372e+01
2.74421e-02,1.69387e+01
2.80770e-02,1.59028e+01
2.87265e-02,1.49262e+01
2.93911e-02,1.40057e+01
3.00711e-02,1.31383e+01
3.07668e-02,1.23212e+01
3.14786e-02,1.15515e+01
3.22069e-02,1.08269e+01
3.29520e-02,1.01447e+01
3.37143e-02,9.50277e+00
3.44943e-02,8.89878e+00
3.52924e-02,8.33069e+00
3.61089e-02,7.79650e+00
3.69442e-02,7.29435e+00
3.77990e-02,6.82244e+00
3.86735e-02,6.37909e+00
3.95682e-02,5.96270e+00
4.04836e-02,5.57173e+00
4.14202e-02,5.20476e+00
4.23785e-02,4.86042e+00
4.33589e-02,4.53741e+00
4.43620e-02,4.23450e+00
4.53884e-02,3.95055e+00
4.64384e-02,3.68445e+00
4.75128e-02,3.43516e+00
4.86120e-02,3.20169e+00
4.97367e-02,2.98311e+00
5.08873e-02,2.77855e+00
5.20646e-02,2.58717e+00
5.32692e-02,2.40818e+00
5.45016e-02,2.24084e+00
5.57625e-02,2.08444e+00
5.70525e-02,1.93832e+00
5.83725e-02,1.80184e+00
5.97229e-02,1.67443e+00
6.11046e-02,1.55551e+00
6.25183e-02,1.44456e+00
6.39647e-02,1.34108e+00
6.54445e-02,1.24461e+00
6.69586e-02,1.15470e+00
6.85077e-02,1.07093e+00
7.00927e-02,9.92909e-01
7.17143e-02,9.20272e-01
7.33734e-02,8.52669e-01
7.50709e-02,7.89772e-01
7.68077e-02,7.31274e-01
7.85847e-02,6.76887e-01
8.04028e-02,6.26338e-01
8.22629e-02,5.79372e-01
8.41661e-02,5.35750e-01
8.61133e-02,4.95248e-01
8.81055e-02,4.57655e-01
9.01439e-02,4.22773e-01
9.22294e-02,3.90417e-01
9.43631e-02,3.60415e-01
9.65463e-02,3.32602e-01
9.87799e-02,3.06829e-01
1.01065e-01,2.82952e-01
1.03403e-01,2.60838e-01
1.05796e-01,2.40365e-01
1.08243e-01,2.21415e-01
1.10747e-01,2.03880e-01
1.13310e-01,1.87660e-01
1.15931e-01,1.72660e-01
1.18613e-01,1.58791e-01
1.21357e-01,1.45974e-01
1.24165e-01,1.34129e-01
1.27038e-01,1.23188e-01
1.29977e-01,1.13083e-01
1.32984e-01,1.03753e-01
1.36060e-01,9.51405e-02
1.39208e-01,8.71924e-02
1.42429e-01,7.98592e-02
1.45724e-01,7.30948e-02
1.49095e-01,6.68565e-02
1.52545e-01,6.11047e-02
1.56074e-01,5.58027e-02
1.59685e-01,5.09162e-02
1.63379e-01,4.64136e-02
1.67159e-01,4.22657e-02
1.71026e-01,3.84452e-02
1.74983e-01,3.49269e-02
1.79031e-01,3.16876e-02
1.83173e-01,2.87057e-02
1.87411e-01,2.59612e-02
1.91746e-01,2.34356e-02
1.96183e-01,2.11119e-02
2.00721e-01,1.89743e-02
2.05365e-01,1.70082e-02
2.10116e-01,1.52001e-02
2.14977e-01,1.35376e-02
2.19951e-01,1.20091e-02
2.25039e-01,1.06041e-02
2.30246e-01,9.31274e-03
2.35573e-01,8.12602e-03
2.41023e-01,7.03559e-03
2.46599e-01,6.03377e-03
2.52304e-01,5.11346e-03
2.58141e-01,4.26814e-03
2.64113e-01,3.49177e-03
2.70224e-01,2.77883e-03
2.76475e-01,2.12419e-03
2.82872e-01,1.52315e-03
2.89416e-01,9.71379e-04
2.96112e-01,4.64886e-04
3.02962e-01,0.00000e+00
