m1=126073.582, m2=15.945, gsp=2.046, rhosp=28.683
fGW[Hz],dPh[rad]
2.39151e-03,1.04545e+02
2.42394e-03,9.98630e+01
2.45680e-03,9.53804e+01
2.49011e-03,9.10897e+01
2.52387e-03,8.69832e+01
2.55809e-03,8.30534e+01
2.59277e-03,7.92931e+01
2.62793e-03,7.56955e+01
2.66356e-03,7.22540e+01
2.69967e-03,6.89621e+01
2.73627e-03,6.58138e+01
2.77337e-03,6.28030e+01
2.81097e-03,5.99242e+01
2.84909e-03,5.71719e+01
2.88772e-03,5.45408e+01
2.92687e-03,5.20258e+01
2.96655e-03,4.96222e+01
3.00677e-03,4.73252e+01
3.04754e-03,4.51304e+01
3.08886e-03,4.30334e+01
3.13074e-03,4.10301e+01
3.17318e-03,3.91166e+01
3.21621e-03,3.72890e+01
3.25981e-03,3.55437e+01
3.30401e-03,3.38771e+01
3.34881e-03,3.22858e+01
3.39421e-03,3.07666e+01
3.44023e-03,2.93165e+01
3.48687e-03,2.79323e+01
3.53415e-03,2.66113e+01
3.58207e-03,2.53506e+01
3.63063e-03,2.41477e+01
3.67986e-03,2.30001e+01
3.72975e-03,2.19052e+01
3.78032e-03,2.08608e+01
3.83157e-03,1.98647e+01
3.88352e-03,1.89146e+01
3.93618e-03,1.80087e+01
3.98954e-03,1.71448e+01
4.04363e-03,1.63212e+01
4.09846e-03,1.55359e+01
4.15403e-03,1.47874e+01
4.21035e-03,1.40740e+01
4.26743e-03,1.33940e+01
4.32529e-03,1.27459e+01
4.38393e-03,1.21284e+01
4.44337e-03,1.15400e+01
4.50362e-03,1.09795e+01
4.56468e-03,1.04454e+01
4.62657e-03,9.93669e+00
4.68930e-03,9.45213e+00
4.75287e-03,8.99063e+00
4.81731e-03,8.55111e+00
4.88263e-03,8.13258e+00
4.94883e-03,7.73405e+00
5.01593e-03,7.35461e+00
5.08393e-03,6.99336e+00
5.15286e-03,6.64946e+00
5.22273e-03,6.32211e+00
5.29354e-03,6.01053e+00
5.36531e-03,5.71397e+00
5.43805e-03,5.43175e+00
5.51178e-03,5.16318e+00
5.58651e-03,4.90762e+00
5.66225e-03,4.66445e+00
5.73902e-03,4.43311e+00
5.81684e-03,4.21301e+00
5.89570e-03,4.00363e+00
5.97564e-03,3.80447e+00
6.05666e-03,3.61503e+00
6.13877e-03,3.43485e+00
6.22200e-03,3.26349e+00
6.30636e-03,3.10053e+00
6.39187e-03,2.94557e+00
6.47853e-03,2.79822e+00
6.56637e-03,2.65811e+00
6.65539e-03,2.52491e+00
6.74563e-03,2.39827e+00
6.83709e-03,2.27787e+00
6.92979e-03,2.16343e+00
7.02374e-03,2.05464e+00
7.11897e-03,1.95124e+00
7.21549e-03,1.85296e+00
7.31332e-03,1.75955e+00
7.41248e-03,1.67078e+00
7.51298e-03,1.58643e+00
7.61484e-03,1.50626e+00
7.71808e-03,1.43009e+00
7.82273e-03,1.35772e+00
7.92879e-03,1.28895e+00
8.03629e-03,1.22362e+00
8.14525e-03,1.16155e+00
8.25568e-03,1.10258e+00
8.36762e-03,1.04656e+00
8.48107e-03,9.93354e-01
8.59605e-03,9.42810e-01
8.71260e-03,8.94802e-01
8.83073e-03,8.49203e-01
8.95046e-03,8.05895e-01
9.07181e-03,7.64765e-01
9.19481e-03,7.25703e-01
9.31947e-03,6.88608e-01
9.44583e-03,6.53382e-01
9.57390e-03,6.19932e-01
9.70370e-03,5.88169e-01
9.83527e-03,5.58009e-01
9.96861e-03,5.29373e-01
1.01038e-02,5.02184e-01
1.02408e-02,4.76371e-01
1.03796e-02,4.51863e-01
1.05203e-02,4.28597e-01
1.06630e-02,4.06509e-01
1.08075e-02,3.85541e-01
1.09541e-02,3.65636e-01
1.11026e-02,3.46742e-01
1.12531e-02,3.28807e-01
1.14057e-02,3.11783e-01
1.15603e-02,2.95624e-01
1.17171e-02,2.80288e-01
1.18759e-02,2.65731e-01
1.20370e-02,2.51915e-01
1.22002e-02,2.38803e-01
1.23656e-02,2.26360e-01
1.25332e-02,2.14550e-01
1.27031e-02,2.03343e-01
1.28754e-02,1.92707e-01
1.30499e-02,1.82614e-01
1.32269e-02,1.73037e-01
1.34062e-02,1.63949e-01
1.35880e-02,1.55325e-01
1.37722e-02,1.47143e-01
1.39589e-02,1.39378e-01
1.41482e-02,1.32011e-01
1.43400e-02,1.25021e-01
1.45344e-02,1.18389e-01
1.47315e-02,1.12097e-01
1.49312e-02,1.06127e-01
1.51337e-02,1.00463e-01
1.53389e-02,9.50893e-02
1.55468e-02,8.99913e-02
1.57576e-02,8.51548e-02
1.59713e-02,8.05666e-02
1.61878e-02,7.62139e-02
1.64073e-02,7.20847e-02
1.66297e-02,6.81676e-02
1.68552e-02,6.44517e-02
1.70837e-02,6.09269e-02
1.73154e-02,5.75833e-02
1.75501e-02,5.44116e-02
1.77881e-02,5.14030e-02
1.80292e-02,4.85492e-02
1.82737e-02,4.58423e-02
1.85215e-02,4.32748e-02
1.87726e-02,4.08394e-02
1.90271e-02,3.85295e-02
1.92851e-02,3.63385e-02
1.95465e-02,3.42605e-02
1.98116e-02,3.22895e-02
2.00802e-02,3.04201e-02
2.03524e-02,2.86471e-02
2.06284e-02,2.69656e-02
2.09080e-02,2.53707e-02
2.11915e-02,2.38582e-02
2.14788e-02,2.24237e-02
2.17701e-02,2.10632e-02
2.20652e-02,1.97730e-02
2.23644e-02,1.85493e-02
2.26676e-02,1.73889e-02
2.29749e-02,1.62884e-02
2.32864e-02,1.52447e-02
2.36022e-02,1.42550e-02
2.39222e-02,1.33164e-02
2.42465e-02,1.24263e-02
2.45752e-02,1.15822e-02
2.49084e-02,1.07817e-02
2.52461e-02,1.00227e-02
2.55884e-02,9.30284e-03
2.59354e-02,8.62026e-03
2.62870e-02,7.97298e-03
2.66434e-02,7.35920e-03
2.70047e-02,6.77717e-03
2.73708e-02,6.22525e-03
2.77419e-02,5.70191e-03
2.81180e-02,5.20565e-03
2.84993e-02,4.73508e-03
2.88857e-02,4.28887e-03
2.92773e-02,3.86577e-03
2.96742e-02,3.46458e-03
3.00766e-02,3.08417e-03
3.04844e-02,2.72346e-03
3.08977e-02,2.38144e-03
3.13166e-02,2.05713e-03
3.17412e-02,1.74963e-03
3.21715e-02,1.45807e-03
3.26077e-02,1.18161e-03
3.30498e-02,9.19486e-04
3.34979e-02,6.70947e-04
3.39521e-02,4.35292e-04
3.44124e-02,2.11853e-04
3.48790e-02,0.00000e+00
