m1=1902.176, m2=18.581, gsp=2.395, rhosp=86.071
fGW[Hz],dPh[rad]
6.45094e-03,1.07090e+04
6.64460e-03,1.00720e+04
6.84408e-03,9.47289e+03
7.04955e-03,8.90937e+03
7.26119e-03,8.37934e+03
7.47918e-03,7.88081e+03
7.70371e-03,7.41189e+03
7.93499e-03,6.97085e+03
8.17321e-03,6.55601e+03
8.41858e-03,6.16582e+03
8.67132e-03,5.79882e+03
8.93164e-03,5.45364e+03
9.19978e-03,5.12896e+03
9.47597e-03,4.82359e+03
9.76045e-03,4.53637e+03
1.00535e-02,4.26621e+03
1.03553e-02,4.01212e+03
1.06662e-02,3.77313e+03
1.09864e-02,3.54835e+03
1.13162e-02,3.33693e+03
1.16559e-02,3.13808e+03
1.20059e-02,2.95105e+03
1.23663e-02,2.77514e+03
1.27375e-02,2.60969e+03
1.31199e-02,2.45408e+03
1.35138e-02,2.30773e+03
1.39195e-02,2.17007e+03
1.43374e-02,2.04061e+03
1.47678e-02,1.91884e+03
1.52112e-02,1.80432e+03
1.56679e-02,1.69661e+03
1.61382e-02,1.59531e+03
1.66227e-02,1.50004e+03
1.71217e-02,1.41043e+03
1.76358e-02,1.32616e+03
1.81652e-02,1.24690e+03
1.87106e-02,1.17236e+03
1.92723e-02,1.10226e+03
1.98509e-02,1.03633e+03
2.04468e-02,9.74322e+02
2.10606e-02,9.16009e+02
2.16929e-02,8.61168e+02
2.23442e-02,8.09594e+02
2.30150e-02,7.61091e+02
2.37059e-02,7.15478e+02
2.44176e-02,6.72583e+02
2.51506e-02,6.32244e+02
2.59057e-02,5.94309e+02
2.66834e-02,5.58635e+02
2.74845e-02,5.25088e+02
2.83096e-02,4.93542e+02
2.91595e-02,4.63877e+02
3.00349e-02,4.35981e+02
3.09366e-02,4.09750e+02
3.18654e-02,3.85084e+02
3.28220e-02,3.61890e+02
3.38074e-02,3.40081e+02
3.48223e-02,3.19575e+02
3.58677e-02,3.00293e+02
3.69445e-02,2.82163e+02
3.80536e-02,2.65117e+02
3.91960e-02,2.49090e+02
4.03728e-02,2.34021e+02
4.15848e-02,2.19853e+02
4.28332e-02,2.06533e+02
4.41192e-02,1.94011e+02
4.54437e-02,1.82238e+02
4.68079e-02,1.71170e+02
4.82132e-02,1.60766e+02
4.96606e-02,1.50985e+02
5.11515e-02,1.41790e+02
5.26871e-02,1.33147e+02
5.42689e-02,1.25023e+02
5.58981e-02,1.17387e+02
5.75762e-02,1.10209e+02
5.93047e-02,1.03463e+02
6.10851e-02,9.71229e+01
6.29190e-02,9.11640e+01
6.48079e-02,8.55638e+01
6.67535e-02,8.03009e+01
6.87576e-02,7.53553e+01
7.08218e-02,7.07080e+01
7.29479e-02,6.63412e+01
7.51379e-02,6.22382e+01
7.73937e-02,5.83832e+01
7.97171e-02,5.47613e+01
8.21103e-02,5.13587e+01
8.45754e-02,4.81623e+01
8.71145e-02,4.51597e+01
8.97297e-02,4.23394e+01
9.24236e-02,3.96904e+01
9.51982e-02,3.72025e+01
9.80562e-02,3.48660e+01
1.01000e-01,3.26720e+01
1.04032e-01,3.06118e+01
1.07155e-01,2.86774e+01
1.10372e-01,2.68613e+01
1.13686e-01,2.51564e+01
1.17099e-01,2.35560e+01
1.20614e-01,2.20539e+01
1.24235e-01,2.06441e+01
1.27965e-01,1.93211e+01
1.31807e-01,1.80797e+01
1.35764e-01,1.69149e+01
1.39839e-01,1.58222e+01
1.44038e-01,1.47972e+01
1.48362e-01,1.38358e+01
1.52816e-01,1.29342e+01
1.57404e-01,1.20888e+01
1.62129e-01,1.12961e+01
1.66996e-01,1.05530e+01
1.72010e-01,9.85655e+00
1.77174e-01,9.20382e+00
1.82493e-01,8.59219e+00
1.87971e-01,8.01918e+00
1.93615e-01,7.48242e+00
1.99427e-01,6.97971e+00
2.05414e-01,6.50898e+00
2.11581e-01,6.06828e+00
2.17933e-01,5.65576e+00
2.24476e-01,5.26971e+00
2.31215e-01,4.90850e+00
2.38156e-01,4.57060e+00
2.45306e-01,4.25459e+00
2.52670e-01,3.95910e+00
2.60256e-01,3.68289e+00
2.68069e-01,3.42474e+00
2.76117e-01,3.18356e+00
2.84406e-01,2.95827e+00
2.92944e-01,2.74789e+00
3.01739e-01,2.55149e+00
3.10798e-01,2.36819e+00
3.20128e-01,2.19718e+00
3.29739e-01,2.03768e+00
3.39638e-01,1.88896e+00
3.49834e-01,1.75034e+00
3.60337e-01,1.62118e+00
3.71155e-01,1.50088e+00
3.82297e-01,1.38887e+00
3.93774e-01,1.28461e+00
4.05596e-01,1.18762e+00
4.17773e-01,1.09742e+00
4.30315e-01,1.01356e+00
4.43233e-01,9.35637e-01
4.56540e-01,8.63261e-01
4.70246e-01,7.96065e-01
4.84363e-01,7.33707e-01
4.98904e-01,6.75866e-01
5.13882e-01,6.22239e-01
5.29310e-01,5.72543e-01
5.45200e-01,5.26514e-01
5.61568e-01,4.83901e-01
5.78427e-01,4.44472e-01
5.95792e-01,4.08007e-01
6.13678e-01,3.74302e-01
6.32102e-01,3.43164e-01
6.51078e-01,3.14413e-01
6.70625e-01,2.87881e-01
6.90758e-01,2.63410e-01
7.11495e-01,2.40854e-01
7.32855e-01,2.20073e-01
7.54856e-01,2.00939e-01
7.77518e-01,1.83333e-01
8.00860e-01,1.67140e-01
8.24903e-01,1.52257e-01
8.49668e-01,1.38586e-01
8.75176e-01,1.26035e-01
9.01450e-01,1.14520e-01
9.28513e-01,1.03960e-01
9.56388e-01,9.42834e-02
9.85100e-01,8.54205e-02
1.01467e+00,7.73079e-02
1.04514e+00,6.98864e-02
1.07651e+00,6.31011e-02
1.10883e+00,5.69010e-02
1.14212e+00,5.12389e-02
1.17641e+00,4.60711e-02
1.21172e+00,4.13571e-02
1.24810e+00,3.70594e-02
1.28557e+00,3.31434e-02
1.32417e+00,2.95772e-02
1.36392e+00,2.63312e-02
1.40487e+00,2.33783e-02
1.44704e+00,2.06933e-02
1.49048e+00,1.82533e-02
1.53523e+00,1.60369e-02
1.58132e+00,1.40247e-02
1.62879e+00,1.21987e-02
1.67769e+00,1.05425e-02
1.72806e+00,9.04102e-03
1.77994e+00,7.68035e-03
1.83337e+00,6.44785e-03
1.88841e+00,5.33193e-03
1.94511e+00,4.32198e-03
2.00350e+00,3.40830e-03
2.06365e+00,2.58204e-03
2.12560e+00,1.83514e-03
2.18942e+00,1.16020e-03
2.25515e+00,5.50531e-04
2.32285e+00,0.00000e+00
