m1=837202.609, m2=8.651, gsp=2.416, rhosp=1503.465
fGW[Hz],dPh[rad]
1.87374e-03,1.77375e+04
1.88347e-03,1.73920e+04
1.89325e-03,1.70531e+04
1.90308e-03,1.67207e+04
1.91297e-03,1.63946e+04
1.92290e-03,1.60747e+04
1.93289e-03,1.57609e+04
1.94292e-03,1.54530e+04
1.95301e-03,1.51510e+04
1.96315e-03,1.48548e+04
1.97335e-03,1.45642e+04
1.98359e-03,1.42792e+04
1.99389e-03,1.39996e+04
2.00425e-03,1.37253e+04
2.01466e-03,1.34562e+04
2.02512e-03,1.31922e+04
2.03563e-03,1.29333e+04
2.04620e-03,1.26793e+04
2.05683e-03,1.24301e+04
2.06751e-03,1.21857e+04
2.07825e-03,1.19460e+04
2.08904e-03,1.17108e+04
2.09989e-03,1.14801e+04
2.11079e-03,1.12538e+04
2.12175e-03,1.10318e+04
2.13277e-03,1.08140e+04
2.14384e-03,1.06003e+04
2.15498e-03,1.03908e+04
2.16617e-03,1.01852e+04
2.17742e-03,9.98357e+03
2.18872e-03,9.78575e+03
2.20009e-03,9.59171e+03
2.21151e-03,9.40137e+03
2.22300e-03,9.21465e+03
2.23454e-03,9.03148e+03
2.24614e-03,8.85181e+03
2.25781e-03,8.67556e+03
2.26953e-03,8.50267e+03
2.28132e-03,8.33307e+03
2.29316e-03,8.16671e+03
2.30507e-03,8.00351e+03
2.31704e-03,7.84342e+03
2.32907e-03,7.68639e+03
2.34117e-03,7.53234e+03
2.35332e-03,7.38123e+03
2.36554e-03,7.23300e+03
2.37783e-03,7.08760e+03
2.39018e-03,6.94496e+03
2.40259e-03,6.80505e+03
2.41506e-03,6.66780e+03
2.42760e-03,6.53316e+03
2.44021e-03,6.40110e+03
2.45288e-03,6.27154e+03
2.46562e-03,6.14446e+03
2.47842e-03,6.01980e+03
2.49129e-03,5.89752e+03
2.50423e-03,5.77756e+03
2.51723e-03,5.65990e+03
2.53030e-03,5.54447e+03
2.54344e-03,5.43125e+03
2.55665e-03,5.32018e+03
2.56993e-03,5.21123e+03
2.58327e-03,5.10436e+03
2.59669e-03,4.99952e+03
2.61017e-03,4.89668e+03
2.62372e-03,4.79580e+03
2.63735e-03,4.69685e+03
2.65104e-03,4.59978e+03
2.66481e-03,4.50456e+03
2.67865e-03,4.41116e+03
2.69256e-03,4.31954e+03
2.70654e-03,4.22966e+03
2.72059e-03,4.14150e+03
2.73472e-03,4.05502e+03
2.74892e-03,3.97019e+03
2.76320e-03,3.88697e+03
2.77755e-03,3.80534e+03
2.79197e-03,3.72527e+03
2.80647e-03,3.64673e+03
2.82104e-03,3.56968e+03
2.83569e-03,3.49410e+03
2.85041e-03,3.41996e+03
2.86522e-03,3.34723e+03
2.88009e-03,3.27590e+03
2.89505e-03,3.20592e+03
2.91008e-03,3.13727e+03
2.92519e-03,3.06994e+03
2.94038e-03,3.00389e+03
2.95565e-03,2.93910e+03
2.97100e-03,2.87554e+03
2.98643e-03,2.81320e+03
3.00194e-03,2.75204e+03
3.01753e-03,2.69205e+03
3.03319e-03,2.63321e+03
3.04895e-03,2.57548e+03
3.06478e-03,2.51886e+03
3.08069e-03,2.46332e+03
3.09669e-03,2.40884e+03
3.11277e-03,2.35539e+03
3.12893e-03,2.30297e+03
3.14518e-03,2.25154e+03
3.16151e-03,2.20110e+03
3.17793e-03,2.15162e+03
3.19443e-03,2.10308e+03
3.21102e-03,2.05546e+03
3.22770e-03,2.00876e+03
3.24446e-03,1.96294e+03
3.26130e-03,1.91800e+03
3.27824e-03,1.87392e+03
3.29526e-03,1.83068e+03
3.31237e-03,1.78826e+03
3.32957e-03,1.74665e+03
3.34686e-03,1.70584e+03
3.36424e-03,1.66580e+03
3.38171e-03,1.62653e+03
3.39927e-03,1.58800e+03
3.41693e-03,1.55021e+03
3.43467e-03,1.51315e+03
3.45250e-03,1.47678e+03
3.47043e-03,1.44112e+03
3.48845e-03,1.40613e+03
3.50657e-03,1.37181e+03
3.52478e-03,1.33814e+03
3.54308e-03,1.30512e+03
3.56148e-03,1.27273e+03
3.57997e-03,1.24095e+03
3.59856e-03,1.20978e+03
3.61725e-03,1.17921e+03
3.63603e-03,1.14922e+03
3.65491e-03,1.11980e+03
3.67389e-03,1.09094e+03
3.69297e-03,1.06263e+03
3.71215e-03,1.03487e+03
3.73142e-03,1.00763e+03
3.75080e-03,9.80911e+02
3.77028e-03,9.54702e+02
3.78986e-03,9.28994e+02
3.80954e-03,9.03776e+02
3.82932e-03,8.79039e+02
3.84920e-03,8.54774e+02
3.86919e-03,8.30973e+02
3.88928e-03,8.07625e+02
3.90948e-03,7.84722e+02
3.92978e-03,7.62257e+02
3.95019e-03,7.40220e+02
3.97070e-03,7.18604e+02
3.99132e-03,6.97400e+02
4.01204e-03,6.76600e+02
4.03288e-03,6.56198e+02
4.05382e-03,6.36185e+02
4.07487e-03,6.16553e+02
4.09603e-03,5.97296e+02
4.11730e-03,5.78407e+02
4.13868e-03,5.59878e+02
4.16017e-03,5.41702e+02
4.18177e-03,5.23874e+02
4.20349e-03,5.06385e+02
4.22532e-03,4.89230e+02
4.24726e-03,4.72403e+02
4.26931e-03,4.55897e+02
4.29148e-03,4.39705e+02
4.31377e-03,4.23823e+02
4.33617e-03,4.08243e+02
4.35868e-03,3.92961e+02
4.38132e-03,3.77970e+02
4.40407e-03,3.63266e+02
4.42694e-03,3.48842e+02
4.44993e-03,3.34693e+02
4.47303e-03,3.20815e+02
4.49626e-03,3.07201e+02
4.51961e-03,2.93847e+02
4.54308e-03,2.80748e+02
4.56667e-03,2.67898e+02
4.59038e-03,2.55294e+02
4.61422e-03,2.42931e+02
4.63818e-03,2.30803e+02
4.66227e-03,2.18907e+02
4.68648e-03,2.07238e+02
4.71081e-03,1.95791e+02
4.73527e-03,1.84563e+02
4.75986e-03,1.73549e+02
4.78458e-03,1.62746e+02
4.80943e-03,1.52148e+02
4.83440e-03,1.41753e+02
4.85950e-03,1.31556e+02
4.88474e-03,1.21554e+02
4.91010e-03,1.11743e+02
4.93560e-03,1.02119e+02
4.96123e-03,9.26784e+01
4.98699e-03,8.34181e+01
5.01289e-03,7.43346e+01
5.03892e-03,6.54244e+01
5.06509e-03,5.66843e+01
5.09139e-03,4.81110e+01
5.11783e-03,3.97013e+01
5.14440e-03,3.14521e+01
5.17111e-03,2.33604e+01
5.19797e-03,1.54231e+01
5.22496e-03,7.63724e+00
5.25209e-03,0.00000e+00
