m1=818862.101, m2=6.559, gsp=2.276, rhosp=1024.294
fGW[Hz],dPh[rad]
2.09025e-03,1.55328e+03
2.10018e-03,1.52469e+03
2.11016e-03,1.49661e+03
2.12019e-03,1.46903e+03
2.13027e-03,1.44195e+03
2.14039e-03,1.41535e+03
2.15056e-03,1.38923e+03
2.16078e-03,1.36357e+03
2.17105e-03,1.33838e+03
2.18137e-03,1.31363e+03
2.19174e-03,1.28933e+03
2.20215e-03,1.26546e+03
2.21262e-03,1.24202e+03
2.22313e-03,1.21900e+03
2.23370e-03,1.19639e+03
2.24432e-03,1.17419e+03
2.25498e-03,1.15238e+03
2.26570e-03,1.13096e+03
2.27647e-03,1.10993e+03
2.28728e-03,1.08927e+03
2.29815e-03,1.06898e+03
2.30908e-03,1.04906e+03
2.32005e-03,1.02949e+03
2.33108e-03,1.01027e+03
2.34215e-03,9.91400e+02
2.35328e-03,9.72864e+02
2.36447e-03,9.54659e+02
2.37571e-03,9.36780e+02
2.38700e-03,9.19222e+02
2.39834e-03,9.01977e+02
2.40974e-03,8.85041e+02
2.42119e-03,8.68409e+02
2.43270e-03,8.52074e+02
2.44426e-03,8.36031e+02
2.45587e-03,8.20276e+02
2.46755e-03,8.04802e+02
2.47927e-03,7.89606e+02
2.49105e-03,7.74681e+02
2.50289e-03,7.60024e+02
2.51479e-03,7.45629e+02
2.52674e-03,7.31492e+02
2.53875e-03,7.17607e+02
2.55081e-03,7.03972e+02
2.56294e-03,6.90580e+02
2.57512e-03,6.77428e+02
2.58735e-03,6.64512e+02
2.59965e-03,6.51826e+02
2.61200e-03,6.39368e+02
2.62442e-03,6.27133e+02
2.63689e-03,6.15117e+02
2.64942e-03,6.03316e+02
2.66201e-03,5.91727e+02
2.67466e-03,5.80344e+02
2.68737e-03,5.69166e+02
2.70015e-03,5.58188e+02
2.71298e-03,5.47406e+02
2.72587e-03,5.36817e+02
2.73883e-03,5.26418e+02
2.75184e-03,5.16205e+02
2.76492e-03,5.06175e+02
2.77806e-03,4.96325e+02
2.79126e-03,4.86651e+02
2.80453e-03,4.77150e+02
2.81786e-03,4.67819e+02
2.83125e-03,4.58655e+02
2.84470e-03,4.49656e+02
2.85822e-03,4.40817e+02
2.87181e-03,4.32137e+02
2.88545e-03,4.23612e+02
2.89917e-03,4.15240e+02
2.91295e-03,4.07018e+02
2.92679e-03,3.98943e+02
2.94070e-03,3.91013e+02
2.95467e-03,3.83224e+02
2.96872e-03,3.75575e+02
2.98282e-03,3.68063e+02
2.99700e-03,3.60686e+02
3.01124e-03,3.53441e+02
3.02555e-03,3.46325e+02
3.03993e-03,3.39337e+02
3.05438e-03,3.32474e+02
3.06890e-03,3.25734e+02
3.08348e-03,3.19115e+02
3.09813e-03,3.12614e+02
3.11286e-03,3.06230e+02
3.12765e-03,2.99960e+02
3.14252e-03,2.93802e+02
3.15745e-03,2.87754e+02
3.17246e-03,2.81815e+02
3.18753e-03,2.75983e+02
3.20268e-03,2.70254e+02
3.21790e-03,2.64629e+02
3.23319e-03,2.59104e+02
3.24856e-03,2.53678e+02
3.26400e-03,2.48349e+02
3.27951e-03,2.43115e+02
3.29510e-03,2.37976e+02
3.31076e-03,2.32928e+02
3.32649e-03,2.27971e+02
3.34230e-03,2.23103e+02
3.35818e-03,2.18322e+02
3.37414e-03,2.13626e+02
3.39018e-03,2.09015e+02
3.40629e-03,2.04486e+02
3.42248e-03,2.00038e+02
3.43874e-03,1.95670e+02
3.45508e-03,1.91380e+02
3.47150e-03,1.87167e+02
3.48800e-03,1.83030e+02
3.50458e-03,1.78966e+02
3.52123e-03,1.74976e+02
3.53797e-03,1.71057e+02
3.55478e-03,1.67208e+02
3.57168e-03,1.63428e+02
3.58865e-03,1.59716e+02
3.60571e-03,1.56070e+02
3.62284e-03,1.52490e+02
3.64006e-03,1.48973e+02
3.65736e-03,1.45520e+02
3.67474e-03,1.42129e+02
3.69220e-03,1.38798e+02
3.70975e-03,1.35527e+02
3.72738e-03,1.32315e+02
3.74509e-03,1.29160e+02
3.76289e-03,1.26061e+02
3.78078e-03,1.23019e+02
3.79874e-03,1.20030e+02
3.81680e-03,1.17096e+02
3.83494e-03,1.14213e+02
3.85316e-03,1.11383e+02
3.87147e-03,1.08603e+02
3.88987e-03,1.05873e+02
3.90836e-03,1.03192e+02
3.92693e-03,1.00559e+02
3.94559e-03,9.79728e+01
3.96435e-03,9.54332e+01
3.98319e-03,9.29391e+01
4.00212e-03,9.04897e+01
4.02114e-03,8.80842e+01
4.04025e-03,8.57218e+01
4.05945e-03,8.34017e+01
4.07874e-03,8.11232e+01
4.09812e-03,7.88855e+01
4.11760e-03,7.66879e+01
4.13717e-03,7.45296e+01
4.15683e-03,7.24101e+01
4.17658e-03,7.03285e+01
4.19643e-03,6.82842e+01
4.21638e-03,6.62766e+01
4.23641e-03,6.43049e+01
4.25655e-03,6.23685e+01
4.27678e-03,6.04669e+01
4.29710e-03,5.85993e+01
4.31752e-03,5.67652e+01
4.33804e-03,5.49639e+01
4.35866e-03,5.31950e+01
4.37937e-03,5.14577e+01
4.40018e-03,4.97515e+01
4.42110e-03,4.80759e+01
4.44211e-03,4.64304e+01
4.46322e-03,4.48143e+01
4.48443e-03,4.32272e+01
4.50574e-03,4.16686e+01
4.52715e-03,4.01378e+01
4.54867e-03,3.86345e+01
4.57029e-03,3.71581e+01
4.59201e-03,3.57082e+01
4.61383e-03,3.42843e+01
4.63576e-03,3.28859e+01
4.65779e-03,3.15125e+01
4.67992e-03,3.01638e+01
4.70216e-03,2.88392e+01
4.72451e-03,2.75384e+01
4.74696e-03,2.62608e+01
4.76952e-03,2.50062e+01
4.79219e-03,2.37740e+01
4.81496e-03,2.25640e+01
4.83785e-03,2.13756e+01
4.86084e-03,2.02085e+01
4.88394e-03,1.90623e+01
4.90715e-03,1.79367e+01
4.93047e-03,1.68312e+01
4.95390e-03,1.57456e+01
4.97745e-03,1.46794e+01
5.00110e-03,1.36323e+01
5.02487e-03,1.26040e+01
5.04875e-03,1.15941e+01
5.07274e-03,1.06023e+01
5.09685e-03,9.62826e+00
5.12107e-03,8.67169e+00
5.14541e-03,7.73227e+00
5.16986e-03,6.80969e+00
5.19443e-03,5.90363e+00
5.21912e-03,5.01382e+00
5.24392e-03,4.13995e+00
5.26884e-03,3.28175e+00
5.29388e-03,2.43892e+00
5.31904e-03,1.61120e+00
5.34432e-03,7.98317e-01
5.36972e-03,0.00000e+00
