m1=7261.831, m2=39.200, gsp=2.134, rhosp=5968.951
fGW[Hz],dPh[rad]
3.48625e-03,3.72680e+02
3.57783e-03,3.51505e+02
3.67182e-03,3.31529e+02
3.76827e-03,3.12684e+02
3.86725e-03,2.94907e+02
3.96884e-03,2.78138e+02
4.07309e-03,2.62318e+02
4.18009e-03,2.47395e+02
4.28989e-03,2.33318e+02
4.40258e-03,2.20039e+02
4.51823e-03,2.07512e+02
4.63692e-03,1.95696e+02
4.75872e-03,1.84549e+02
4.88372e-03,1.74035e+02
5.01201e-03,1.64117e+02
5.14367e-03,1.54761e+02
5.27878e-03,1.45936e+02
5.41745e-03,1.37612e+02
5.55975e-03,1.29760e+02
5.70580e-03,1.22354e+02
5.85568e-03,1.15368e+02
6.00950e-03,1.08778e+02
6.16736e-03,1.02563e+02
6.32937e-03,9.67007e+01
6.49563e-03,9.11713e+01
6.66626e-03,8.59559e+01
6.84137e-03,8.10368e+01
7.02108e-03,7.63973e+01
7.20551e-03,7.20214e+01
7.39479e-03,6.78943e+01
7.58904e-03,6.40019e+01
7.78839e-03,6.03308e+01
7.99298e-03,5.68685e+01
8.20294e-03,5.36033e+01
8.41842e-03,5.05239e+01
8.63956e-03,4.76197e+01
8.86650e-03,4.48810e+01
9.09941e-03,4.22982e+01
9.33844e-03,3.98626e+01
9.58374e-03,3.75657e+01
9.83549e-03,3.53999e+01
1.00939e-02,3.33575e+01
1.03590e-02,3.14316e+01
1.06311e-02,2.96156e+01
1.09104e-02,2.79033e+01
1.11970e-02,2.62888e+01
1.14911e-02,2.47665e+01
1.17930e-02,2.33312e+01
1.21027e-02,2.19779e+01
1.24207e-02,2.07021e+01
1.27469e-02,1.94992e+01
1.30818e-02,1.83652e+01
1.34254e-02,1.72962e+01
1.37781e-02,1.62884e+01
1.41400e-02,1.53384e+01
1.45114e-02,1.44429e+01
1.48926e-02,1.35988e+01
1.52838e-02,1.28031e+01
1.56853e-02,1.20532e+01
1.60973e-02,1.13464e+01
1.65202e-02,1.06802e+01
1.69541e-02,1.00524e+01
1.73995e-02,9.46075e+00
1.78565e-02,8.90321e+00
1.83256e-02,8.37783e+00
1.88070e-02,7.88277e+00
1.93010e-02,7.41632e+00
1.98080e-02,6.97683e+00
2.03283e-02,6.56278e+00
2.08623e-02,6.17270e+00
2.14104e-02,5.80523e+00
2.19728e-02,5.45909e+00
2.25500e-02,5.13304e+00
2.31423e-02,4.82595e+00
2.37502e-02,4.53672e+00
2.43741e-02,4.26435e+00
2.50144e-02,4.00785e+00
2.56714e-02,3.76633e+00
2.63458e-02,3.53893e+00
2.70379e-02,3.32483e+00
2.77481e-02,3.12327e+00
2.84770e-02,2.93354e+00
2.92250e-02,2.75495e+00
2.99927e-02,2.58686e+00
3.07806e-02,2.42868e+00
3.15891e-02,2.27983e+00
3.24189e-02,2.13977e+00
3.32705e-02,2.00800e+00
3.41445e-02,1.88403e+00
3.50414e-02,1.76743e+00
3.59619e-02,1.65776e+00
3.69065e-02,1.55462e+00
3.78760e-02,1.45764e+00
3.88710e-02,1.36645e+00
3.98920e-02,1.28073e+00
4.09399e-02,1.20015e+00
4.20154e-02,1.12442e+00
4.31190e-02,1.05325e+00
4.42517e-02,9.86383e-01
4.54141e-02,9.23563e-01
4.66071e-02,8.64556e-01
4.78313e-02,8.09137e-01
4.90878e-02,7.57098e-01
5.03773e-02,7.08240e-01
5.17006e-02,6.62376e-01
5.30587e-02,6.19331e-01
5.44524e-02,5.78939e-01
5.58828e-02,5.41042e-01
5.73508e-02,5.05494e-01
5.88573e-02,4.72156e-01
6.04033e-02,4.40897e-01
6.19900e-02,4.11592e-01
6.36184e-02,3.84127e-01
6.52896e-02,3.58391e-01
6.70046e-02,3.34280e-01
6.87647e-02,3.11698e-01
7.05710e-02,2.90552e-01
7.24248e-02,2.70756e-01
7.43273e-02,2.52229e-01
7.62798e-02,2.34894e-01
7.82835e-02,2.18678e-01
8.03399e-02,2.03513e-01
8.24503e-02,1.89336e-01
8.46161e-02,1.76085e-01
8.68388e-02,1.63704e-01
8.91199e-02,1.52140e-01
9.14610e-02,1.41341e-01
9.38635e-02,1.31260e-01
9.63291e-02,1.21853e-01
9.88595e-02,1.13077e-01
1.01456e-01,1.04893e-01
1.04122e-01,9.72632e-02
1.06857e-01,9.01530e-02
1.09664e-01,8.35293e-02
1.12544e-01,7.73609e-02
1.15501e-01,7.16188e-02
1.18535e-01,6.62754e-02
1.21648e-01,6.13051e-02
1.24844e-01,5.66834e-02
1.28123e-01,5.23878e-02
1.31489e-01,4.83968e-02
1.34943e-01,4.46902e-02
1.38488e-01,4.12493e-02
1.42125e-01,3.80563e-02
1.45859e-01,3.50946e-02
1.49690e-01,3.23486e-02
1.53622e-01,2.98037e-02
1.57658e-01,2.74462e-02
1.61799e-01,2.52633e-02
1.66049e-01,2.32428e-02
1.70411e-01,2.13736e-02
1.74888e-01,1.96451e-02
1.79482e-01,1.80474e-02
1.84196e-01,1.65712e-02
1.89035e-01,1.52080e-02
1.94000e-01,1.39496e-02
1.99097e-01,1.27886e-02
2.04326e-01,1.17178e-02
2.09694e-01,1.07307e-02
2.15202e-01,9.82117e-03
2.20855e-01,8.98348e-03
2.26657e-01,8.21230e-03
2.32610e-01,7.50266e-03
2.38721e-01,6.84994e-03
2.44992e-01,6.24984e-03
2.51427e-01,5.69835e-03
2.58032e-01,5.19176e-03
2.64810e-01,4.72661e-03
2.71766e-01,4.29969e-03
2.78905e-01,3.90802e-03
2.86231e-01,3.54885e-03
2.93750e-01,3.21960e-03
3.01466e-01,2.91791e-03
3.09385e-01,2.64158e-03
3.17512e-01,2.38858e-03
3.25853e-01,2.15702e-03
3.34412e-01,1.94518e-03
3.43197e-01,1.75144e-03
3.52212e-01,1.57433e-03
3.61464e-01,1.41246e-03
3.70959e-01,1.26459e-03
3.80703e-01,1.12955e-03
3.90704e-01,1.00627e-03
4.00967e-01,8.93760e-04
4.11500e-01,7.91113e-04
4.22309e-01,6.97494e-04
4.33403e-01,6.12137e-04
4.44787e-01,5.34334e-04
4.56471e-01,4.63439e-04
4.68462e-01,3.98857e-04
4.80768e-01,3.40041e-04
4.93397e-01,2.86492e-04
5.06357e-01,2.37751e-04
5.19658e-01,1.93397e-04
5.33309e-01,1.53046e-04
5.47318e-01,1.16346e-04
5.61695e-01,8.29735e-05
5.76450e-01,5.26341e-05
5.91592e-01,2.50584e-05
6.07133e-01,0.00000e+00
