m1=780870.019, m2=30.684, gsp=2.162, rhosp=368.583
fGW[Hz],dPh[rad]
1.18597e-03,3.27424e+02
1.19529e-03,3.17718e+02
1.20469e-03,3.08298e+02
1.21415e-03,2.99154e+02
1.22369e-03,2.90280e+02
1.23331e-03,2.81666e+02
1.24300e-03,2.73306e+02
1.25277e-03,2.65192e+02
1.26262e-03,2.57317e+02
1.27254e-03,2.49673e+02
1.28254e-03,2.42255e+02
1.29262e-03,2.35055e+02
1.30278e-03,2.28068e+02
1.31301e-03,2.21286e+02
1.32333e-03,2.14704e+02
1.33373e-03,2.08317e+02
1.34421e-03,2.02117e+02
1.35478e-03,1.96101e+02
1.36542e-03,1.90262e+02
1.37615e-03,1.84595e+02
1.38697e-03,1.79096e+02
1.39787e-03,1.73759e+02
1.40885e-03,1.68580e+02
1.41992e-03,1.63553e+02
1.43108e-03,1.58675e+02
1.44233e-03,1.53942e+02
1.45366e-03,1.49348e+02
1.46509e-03,1.44890e+02
1.47660e-03,1.40563e+02
1.48820e-03,1.36365e+02
1.49990e-03,1.32291e+02
1.51169e-03,1.28337e+02
1.52357e-03,1.24500e+02
1.53554e-03,1.20777e+02
1.54761e-03,1.17164e+02
1.55977e-03,1.13658e+02
1.57203e-03,1.10256e+02
1.58438e-03,1.06954e+02
1.59683e-03,1.03751e+02
1.60938e-03,1.00642e+02
1.62203e-03,9.76252e+01
1.63477e-03,9.46979e+01
1.64762e-03,9.18573e+01
1.66057e-03,8.91009e+01
1.67362e-03,8.64263e+01
1.68677e-03,8.38309e+01
1.70002e-03,8.13126e+01
1.71338e-03,7.88689e+01
1.72685e-03,7.64977e+01
1.74042e-03,7.41968e+01
1.75410e-03,7.19642e+01
1.76788e-03,6.97979e+01
1.78177e-03,6.76958e+01
1.79578e-03,6.56562e+01
1.80989e-03,6.36771e+01
1.82411e-03,6.17568e+01
1.83845e-03,5.98935e+01
1.85289e-03,5.80856e+01
1.86746e-03,5.63313e+01
1.88213e-03,5.46292e+01
1.89692e-03,5.29776e+01
1.91183e-03,5.13752e+01
1.92685e-03,4.98203e+01
1.94199e-03,4.83117e+01
1.95726e-03,4.68479e+01
1.97264e-03,4.54276e+01
1.98814e-03,4.40496e+01
2.00376e-03,4.27125e+01
2.01951e-03,4.14152e+01
2.03538e-03,4.01565e+01
2.05138e-03,3.89352e+01
2.06750e-03,3.77503e+01
2.08374e-03,3.66006e+01
2.10012e-03,3.54852e+01
2.11662e-03,3.44029e+01
2.13326e-03,3.33528e+01
2.15002e-03,3.23340e+01
2.16692e-03,3.13456e+01
2.18395e-03,3.03865e+01
2.20111e-03,2.94560e+01
2.21841e-03,2.85533e+01
2.23584e-03,2.76774e+01
2.25341e-03,2.68276e+01
2.27112e-03,2.60031e+01
2.28897e-03,2.52032e+01
2.30695e-03,2.44271e+01
2.32508e-03,2.36741e+01
2.34335e-03,2.29436e+01
2.36177e-03,2.22348e+01
2.38033e-03,2.15472e+01
2.39904e-03,2.08801e+01
2.41789e-03,2.02328e+01
2.43689e-03,1.96049e+01
2.45604e-03,1.89956e+01
2.47534e-03,1.84045e+01
2.49479e-03,1.78311e+01
2.51440e-03,1.72748e+01
2.53416e-03,1.67350e+01
2.55407e-03,1.62114e+01
2.57414e-03,1.57033e+01
2.59437e-03,1.52105e+01
2.61476e-03,1.47323e+01
2.63531e-03,1.42684e+01
2.65602e-03,1.38183e+01
2.67689e-03,1.33817e+01
2.69793e-03,1.29581e+01
2.71913e-03,1.25471e+01
2.74050e-03,1.21484e+01
2.76203e-03,1.17616e+01
2.78374e-03,1.13864e+01
2.80562e-03,1.10223e+01
2.82766e-03,1.06691e+01
2.84988e-03,1.03265e+01
2.87228e-03,9.99410e+00
2.89485e-03,9.67162e+00
2.91760e-03,9.35878e+00
2.94053e-03,9.05527e+00
2.96364e-03,8.76083e+00
2.98693e-03,8.47518e+00
3.01040e-03,8.19807e+00
3.03406e-03,7.92923e+00
3.05790e-03,7.66842e+00
3.08193e-03,7.41541e+00
3.10615e-03,7.16996e+00
3.13056e-03,6.93183e+00
3.15516e-03,6.70083e+00
3.17996e-03,6.47672e+00
3.20495e-03,6.25932e+00
3.23013e-03,6.04841e+00
3.25552e-03,5.84380e+00
3.28110e-03,5.64531e+00
3.30689e-03,5.45275e+00
3.33287e-03,5.26595e+00
3.35906e-03,5.08473e+00
3.38546e-03,4.90893e+00
3.41207e-03,4.73839e+00
3.43888e-03,4.57294e+00
3.46591e-03,4.41244e+00
3.49314e-03,4.25674e+00
3.52059e-03,4.10569e+00
3.54826e-03,3.95917e+00
3.57614e-03,3.81702e+00
3.60425e-03,3.67912e+00
3.63257e-03,3.54535e+00
3.66112e-03,3.41558e+00
3.68989e-03,3.28969e+00
3.71889e-03,3.16757e+00
3.74811e-03,3.04909e+00
3.77757e-03,2.93417e+00
3.80725e-03,2.82268e+00
3.83717e-03,2.71452e+00
3.86733e-03,2.60960e+00
3.89772e-03,2.50782e+00
3.92835e-03,2.40909e+00
3.95922e-03,2.31331e+00
3.99033e-03,2.22040e+00
4.02169e-03,2.13026e+00
4.05329e-03,2.04282e+00
4.08515e-03,1.95800e+00
4.11725e-03,1.87572e+00
4.14961e-03,1.79590e+00
4.18222e-03,1.71847e+00
4.21508e-03,1.64336e+00
4.24821e-03,1.57049e+00
4.28159e-03,1.49981e+00
4.31524e-03,1.43124e+00
4.34915e-03,1.36472e+00
4.38333e-03,1.30020e+00
4.41777e-03,1.23760e+00
4.45249e-03,1.17688e+00
4.48748e-03,1.11798e+00
4.52275e-03,1.06084e+00
4.55829e-03,1.00541e+00
4.59411e-03,9.51645e-01
4.63021e-03,8.99487e-01
4.66660e-03,8.48890e-01
4.70327e-03,7.99808e-01
4.74023e-03,7.52195e-01
4.77748e-03,7.06009e-01
4.81503e-03,6.61205e-01
4.85287e-03,6.17743e-01
4.89100e-03,5.75583e-01
4.92944e-03,5.34685e-01
4.96818e-03,4.95012e-01
5.00722e-03,4.56527e-01
5.04657e-03,4.19195e-01
5.08623e-03,3.82980e-01
5.12620e-03,3.47851e-01
5.16648e-03,3.13774e-01
5.20708e-03,2.80717e-01
5.24800e-03,2.48651e-01
5.28925e-03,2.17545e-01
5.33081e-03,1.87370e-01
5.37270e-03,1.58100e-01
5.41493e-03,1.29707e-01
5.45748e-03,1.02164e-01
5.50037e-03,7.54460e-02
5.54359e-03,4.95286e-02
5.58716e-03,2.43877e-02
5.63106e-03,0.00000e+00
