m1=9234.678, m2=12.713, gsp=2.489, rhosp=1032.529
fGW[Hz],dPh[rad]
5.00536e-03,4.38351e+05
5.12127e-03,4.18014e+05
5.23987e-03,3.98602e+05
5.36122e-03,3.80073e+05
5.48537e-03,3.62388e+05
5.61240e-03,3.45509e+05
5.74237e-03,3.29399e+05
5.87536e-03,3.14023e+05
6.01142e-03,2.99349e+05
6.15063e-03,2.85345e+05
6.29307e-03,2.71981e+05
6.43880e-03,2.59227e+05
6.58791e-03,2.47057e+05
6.74048e-03,2.35443e+05
6.89657e-03,2.24362e+05
7.05628e-03,2.13787e+05
7.21969e-03,2.03698e+05
7.38689e-03,1.94072e+05
7.55795e-03,1.84887e+05
7.73298e-03,1.76125e+05
7.91206e-03,1.67765e+05
8.09529e-03,1.59790e+05
8.28276e-03,1.52182e+05
8.47457e-03,1.44925e+05
8.67083e-03,1.38003e+05
8.87163e-03,1.31400e+05
9.07708e-03,1.25103e+05
9.28728e-03,1.19097e+05
9.50236e-03,1.13369e+05
9.72242e-03,1.07906e+05
9.94757e-03,1.02697e+05
1.01779e-02,9.77299e+04
1.04136e-02,9.29938e+04
1.06548e-02,8.84781e+04
1.09015e-02,8.41729e+04
1.11540e-02,8.00686e+04
1.14123e-02,7.61562e+04
1.16766e-02,7.24267e+04
1.19470e-02,6.88720e+04
1.22237e-02,6.54840e+04
1.25067e-02,6.22553e+04
1.27964e-02,5.91784e+04
1.30927e-02,5.62465e+04
1.33959e-02,5.34529e+04
1.37061e-02,5.07915e+04
1.40235e-02,4.82560e+04
1.43483e-02,4.58408e+04
1.46806e-02,4.35403e+04
1.50206e-02,4.13493e+04
1.53684e-02,3.92627e+04
1.57243e-02,3.72759e+04
1.60884e-02,3.53842e+04
1.64610e-02,3.35831e+04
1.68422e-02,3.18687e+04
1.72323e-02,3.02368e+04
1.76313e-02,2.86837e+04
1.80396e-02,2.72057e+04
1.84574e-02,2.57994e+04
1.88848e-02,2.44614e+04
1.93222e-02,2.31886e+04
1.97696e-02,2.19780e+04
2.02275e-02,2.08266e+04
2.06959e-02,1.97318e+04
2.11752e-02,1.86909e+04
2.16655e-02,1.77014e+04
2.21673e-02,1.67608e+04
2.26806e-02,1.58669e+04
2.32059e-02,1.50176e+04
2.37433e-02,1.42106e+04
2.42931e-02,1.34441e+04
2.48557e-02,1.27161e+04
2.54313e-02,1.20249e+04
2.60202e-02,1.13685e+04
2.66228e-02,1.07456e+04
2.72394e-02,1.01543e+04
2.78702e-02,9.59327e+03
2.85156e-02,9.06102e+03
2.91760e-02,8.55618e+03
2.98516e-02,8.07743e+03
3.05429e-02,7.62353e+03
3.12502e-02,7.19327e+03
3.19739e-02,6.78552e+03
3.27144e-02,6.39917e+03
3.34720e-02,6.03320e+03
3.42471e-02,5.68661e+03
3.50402e-02,5.35846e+03
3.58517e-02,5.04783e+03
3.66819e-02,4.75386e+03
3.75314e-02,4.47574e+03
3.84006e-02,4.21267e+03
3.92899e-02,3.96391e+03
4.01997e-02,3.72875e+03
4.11307e-02,3.50649e+03
4.20832e-02,3.29650e+03
4.30578e-02,3.09814e+03
4.40549e-02,2.91084e+03
4.50751e-02,2.73402e+03
4.61190e-02,2.56715e+03
4.71870e-02,2.40972e+03
4.82797e-02,2.26123e+03
4.93978e-02,2.12123e+03
5.05418e-02,1.98927e+03
5.17122e-02,1.86492e+03
5.29098e-02,1.74780e+03
5.41351e-02,1.63750e+03
5.53887e-02,1.53367e+03
5.66714e-02,1.43597e+03
5.79838e-02,1.34406e+03
5.93266e-02,1.25762e+03
6.07005e-02,1.17637e+03
6.21062e-02,1.10000e+03
6.35445e-02,1.02827e+03
6.50160e-02,9.60899e+02
6.65217e-02,8.97655e+02
6.80622e-02,8.38303e+02
6.96384e-02,7.82624e+02
7.12511e-02,7.30409e+02
7.29011e-02,6.81460e+02
7.45893e-02,6.35588e+02
7.63167e-02,5.92616e+02
7.80840e-02,5.52374e+02
7.98923e-02,5.14703e+02
8.17425e-02,4.79450e+02
8.36355e-02,4.46472e+02
8.55723e-02,4.15634e+02
8.75540e-02,3.86806e+02
8.95816e-02,3.59867e+02
9.16561e-02,3.34702e+02
9.37787e-02,3.11202e+02
9.59504e-02,2.89264e+02
9.81724e-02,2.68793e+02
1.00446e-01,2.49695e+02
1.02772e-01,2.31886e+02
1.05152e-01,2.15284e+02
1.07587e-01,1.99811e+02
1.10079e-01,1.85396e+02
1.12628e-01,1.71972e+02
1.15236e-01,1.59473e+02
1.17905e-01,1.47840e+02
1.20635e-01,1.37015e+02
1.23429e-01,1.26947e+02
1.26287e-01,1.17585e+02
1.29212e-01,1.08882e+02
1.32204e-01,1.00795e+02
1.35266e-01,9.32805e+01
1.38398e-01,8.63015e+01
1.41603e-01,7.98213e+01
1.44882e-01,7.38059e+01
1.48238e-01,6.82235e+01
1.51671e-01,6.30442e+01
1.55183e-01,5.82403e+01
1.58777e-01,5.37856e+01
1.62454e-01,4.96559e+01
1.66216e-01,4.58282e+01
1.70065e-01,4.22814e+01
1.74003e-01,3.89957e+01
1.78033e-01,3.59525e+01
1.82156e-01,3.31346e+01
1.86374e-01,3.05258e+01
1.90690e-01,2.81111e+01
1.95106e-01,2.58767e+01
1.99625e-01,2.38093e+01
2.04247e-01,2.18970e+01
2.08977e-01,2.01284e+01
2.13817e-01,1.84931e+01
2.18769e-01,1.69813e+01
2.23835e-01,1.55838e+01
2.29018e-01,1.42923e+01
2.34322e-01,1.30990e+01
2.39748e-01,1.19965e+01
2.45301e-01,1.09782e+01
2.50981e-01,1.00377e+01
2.56793e-01,9.16917e+00
2.62740e-01,8.36729e+00
2.68825e-01,7.62703e+00
2.75050e-01,6.94376e+00
2.81420e-01,6.31316e+00
2.87937e-01,5.73125e+00
2.94605e-01,5.19434e+00
3.01428e-01,4.69901e+00
3.08408e-01,4.24210e+00
3.15550e-01,3.82067e+00
3.22858e-01,3.43201e+00
3.30335e-01,3.07362e+00
3.37984e-01,2.74317e+00
3.45811e-01,2.43851e+00
3.53820e-01,2.15766e+00
3.62014e-01,1.89878e+00
3.70397e-01,1.66017e+00
3.78975e-01,1.44027e+00
3.87751e-01,1.23763e+00
3.96731e-01,1.05091e+00
4.05918e-01,8.78874e-01
4.15318e-01,7.20375e-01
4.24936e-01,5.74362e-01
4.34777e-01,4.39860e-01
4.44846e-01,3.15971e-01
4.55147e-01,2.01865e-01
4.65688e-01,9.67770e-02
4.76472e-01,0.00000e+00
