m1=4211.036, m2=13.071, gsp=2.027, rhosp=248.569
fGW[Hz],dPh[rad]
6.02930e-03,4.47241e+01
6.18756e-03,4.21028e+01
6.34996e-03,3.96346e+01
6.51664e-03,3.73105e+01
6.68768e-03,3.51221e+01
6.86322e-03,3.30615e+01
7.04336e-03,3.11213e+01
7.22823e-03,2.92944e+01
7.41796e-03,2.75742e+01
7.61266e-03,2.59546e+01
7.81247e-03,2.44296e+01
8.01753e-03,2.29937e+01
8.22797e-03,2.16418e+01
8.44394e-03,2.03689e+01
8.66557e-03,1.91705e+01
8.89302e-03,1.80421e+01
9.12644e-03,1.69798e+01
9.36599e-03,1.59796e+01
9.61182e-03,1.50379e+01
9.86411e-03,1.41514e+01
1.01230e-02,1.33167e+01
1.03887e-02,1.25309e+01
1.06614e-02,1.17912e+01
1.09412e-02,1.10948e+01
1.12284e-02,1.04391e+01
1.15231e-02,9.82196e+00
1.18256e-02,9.24094e+00
1.21360e-02,8.69400e+00
1.24545e-02,8.17914e+00
1.27814e-02,7.69448e+00
1.31169e-02,7.23827e+00
1.34612e-02,6.80884e+00
1.38145e-02,6.40463e+00
1.41771e-02,6.02416e+00
1.45492e-02,5.66605e+00
1.49311e-02,5.32899e+00
1.53230e-02,5.01175e+00
1.57252e-02,4.71317e+00
1.61380e-02,4.43216e+00
1.65615e-02,4.16770e+00
1.69962e-02,3.91881e+00
1.74424e-02,3.68459e+00
1.79002e-02,3.46417e+00
1.83700e-02,3.25675e+00
1.88522e-02,3.06157e+00
1.93470e-02,2.87792e+00
1.98548e-02,2.70511e+00
2.03760e-02,2.54251e+00
2.09108e-02,2.38953e+00
2.14596e-02,2.24560e+00
2.20229e-02,2.11018e+00
2.26009e-02,1.98279e+00
2.31942e-02,1.86295e+00
2.38030e-02,1.75022e+00
2.44277e-02,1.64418e+00
2.50689e-02,1.54443e+00
2.57269e-02,1.45062e+00
2.64022e-02,1.36238e+00
2.70952e-02,1.27940e+00
2.78063e-02,1.20136e+00
2.85362e-02,1.12797e+00
2.92852e-02,1.05896e+00
3.00539e-02,9.94074e-01
3.08427e-02,9.33066e-01
3.16522e-02,8.75710e-01
3.24830e-02,8.21789e-01
3.33356e-02,7.71101e-01
3.42106e-02,7.23455e-01
3.51086e-02,6.78673e-01
3.60301e-02,6.36584e-01
3.69758e-02,5.97031e-01
3.79463e-02,5.59862e-01
3.89423e-02,5.24938e-01
3.99645e-02,4.92124e-01
4.10134e-02,4.61297e-01
4.20899e-02,4.32339e-01
4.31947e-02,4.05138e-01
4.43284e-02,3.79591e-01
4.54920e-02,3.55600e-01
4.66860e-02,3.33071e-01
4.79114e-02,3.11918e-01
4.91690e-02,2.92059e-01
5.04595e-02,2.73418e-01
5.17840e-02,2.55920e-01
5.31432e-02,2.39499e-01
5.45381e-02,2.24090e-01
5.59695e-02,2.09632e-01
5.74386e-02,1.96068e-01
5.89462e-02,1.83345e-01
6.04934e-02,1.71412e-01
6.20812e-02,1.60223e-01
6.37107e-02,1.49731e-01
6.53830e-02,1.39896e-01
6.70991e-02,1.30677e-01
6.88603e-02,1.22037e-01
7.06677e-02,1.13942e-01
7.25226e-02,1.06358e-01
7.44261e-02,9.92543e-02
7.63796e-02,9.26017e-02
7.83844e-02,8.63728e-02
8.04418e-02,8.05417e-02
8.25532e-02,7.50841e-02
8.47200e-02,6.99771e-02
8.69437e-02,6.51993e-02
8.92258e-02,6.07304e-02
9.15678e-02,5.65514e-02
9.39712e-02,5.26444e-02
9.64377e-02,4.89925e-02
9.89690e-02,4.55800e-02
1.01567e-01,4.23919e-02
1.04233e-01,3.94142e-02
1.06968e-01,3.66339e-02
1.09776e-01,3.40385e-02
1.12657e-01,3.16165e-02
1.15614e-01,2.93568e-02
1.18649e-01,2.72492e-02
1.21763e-01,2.52841e-02
1.24959e-01,2.34524e-02
1.28239e-01,2.17456e-02
1.31605e-01,2.01556e-02
1.35059e-01,1.86751e-02
1.38604e-01,1.72968e-02
1.42242e-01,1.60141e-02
1.45976e-01,1.48209e-02
1.49807e-01,1.37113e-02
1.53740e-01,1.26799e-02
1.57775e-01,1.17213e-02
1.61916e-01,1.08310e-02
1.66166e-01,1.00042e-02
1.70527e-01,9.23680e-03
1.75003e-01,8.52478e-03
1.79597e-01,7.86439e-03
1.84311e-01,7.25215e-03
1.89148e-01,6.68478e-03
1.94113e-01,6.15921e-03
1.99208e-01,5.67255e-03
2.04437e-01,5.22212e-03
2.09803e-01,4.80540e-03
2.15310e-01,4.42004e-03
2.20961e-01,4.06382e-03
2.26761e-01,3.73468e-03
2.32713e-01,3.43071e-03
2.38821e-01,3.15009e-03
2.45089e-01,2.89116e-03
2.51522e-01,2.65233e-03
2.58124e-01,2.43216e-03
2.64899e-01,2.22926e-03
2.71852e-01,2.04238e-03
2.78988e-01,1.87032e-03
2.86310e-01,1.71198e-03
2.93825e-01,1.56632e-03
3.01538e-01,1.43240e-03
3.09452e-01,1.30932e-03
3.17575e-01,1.19625e-03
3.25910e-01,1.09243e-03
3.34465e-01,9.97142e-04
3.43243e-01,9.09719e-04
3.52253e-01,8.29548e-04
3.61499e-01,7.56059e-04
3.70987e-01,6.88724e-04
3.80724e-01,6.27054e-04
3.90718e-01,5.70594e-04
4.00973e-01,5.18926e-04
4.11498e-01,4.71662e-04
4.22298e-01,4.28444e-04
4.33383e-01,3.88941e-04
4.44758e-01,3.52848e-04
4.56432e-01,3.19883e-04
4.68412e-01,2.89786e-04
4.80707e-01,2.62317e-04
4.93324e-01,2.37256e-04
5.06273e-01,2.14400e-04
5.19561e-01,1.93563e-04
5.33198e-01,1.74572e-04
5.47193e-01,1.57269e-04
5.61556e-01,1.41510e-04
5.76295e-01,1.27161e-04
5.91422e-01,1.14100e-04
6.06945e-01,1.02216e-04
6.22876e-01,9.14050e-05
6.39225e-01,8.15732e-05
6.56003e-01,7.26346e-05
6.73222e-01,6.45101e-05
6.90892e-01,5.71276e-05
7.09026e-01,5.04211e-05
7.27637e-01,4.43301e-05
7.46735e-01,3.87995e-05
7.66335e-01,3.37791e-05
7.86450e-01,2.92226e-05
8.07092e-01,2.50883e-05
8.28276e-01,2.13378e-05
8.50017e-01,1.79361e-05
8.72327e-01,1.48515e-05
8.95224e-01,1.20550e-05
9.18721e-01,9.52009e-06
9.42836e-01,7.22278e-06
9.67583e-01,5.14115e-06
9.92980e-01,3.25529e-06
1.01904e+00,1.54707e-06
1.04579e+00,0.00000e+00
