m1=7362.493, m2=77.491, gsp=2.297, rhosp=750.678
fGW[Hz],dPh[rad]
2.69248e-03,1.67316e+03
2.76664e-03,1.57860e+03
2.84285e-03,1.48938e+03
2.92115e-03,1.40520e+03
3.00161e-03,1.32576e+03
3.08428e-03,1.25081e+03
3.16924e-03,1.18008e+03
3.25653e-03,1.11335e+03
3.34622e-03,1.05038e+03
3.43839e-03,9.90962e+02
3.53310e-03,9.34899e+02
3.63041e-03,8.82001e+02
3.73041e-03,8.32088e+02
3.83316e-03,7.84993e+02
3.93873e-03,7.40555e+02
4.04722e-03,6.98627e+02
4.15870e-03,6.59065e+02
4.27324e-03,6.21737e+02
4.39094e-03,5.86516e+02
4.51189e-03,5.53284e+02
4.63616e-03,5.21929e+02
4.76386e-03,4.92344e+02
4.89507e-03,4.64431e+02
5.02990e-03,4.38094e+02
5.16844e-03,4.13245e+02
5.31080e-03,3.89799e+02
5.45708e-03,3.67679e+02
5.60739e-03,3.46808e+02
5.76183e-03,3.27116e+02
5.92054e-03,3.08538e+02
6.08361e-03,2.91009e+02
6.25117e-03,2.74472e+02
6.42335e-03,2.58869e+02
6.60028e-03,2.44149e+02
6.78207e-03,2.30261e+02
6.96888e-03,2.17159e+02
7.16082e-03,2.04797e+02
7.35806e-03,1.93135e+02
7.56073e-03,1.82133e+02
7.76898e-03,1.71754e+02
7.98296e-03,1.61962e+02
8.20284e-03,1.52724e+02
8.42878e-03,1.44010e+02
8.66094e-03,1.35789e+02
8.89949e-03,1.28034e+02
9.14462e-03,1.20718e+02
9.39649e-03,1.13816e+02
9.65531e-03,1.07306e+02
9.92125e-03,1.01165e+02
1.01945e-02,9.53721e+01
1.04753e-02,8.99078e+01
1.07638e-02,8.47534e+01
1.10603e-02,7.98916e+01
1.13650e-02,7.53058e+01
1.16780e-02,7.09804e+01
1.19996e-02,6.69006e+01
1.23302e-02,6.30527e+01
1.26698e-02,5.94234e+01
1.30187e-02,5.60005e+01
1.33773e-02,5.27722e+01
1.37458e-02,4.97276e+01
1.41244e-02,4.68563e+01
1.45134e-02,4.41485e+01
1.49132e-02,4.15949e+01
1.53240e-02,3.91869e+01
1.57460e-02,3.69161e+01
1.61797e-02,3.47748e+01
1.66254e-02,3.27557e+01
1.70833e-02,3.08519e+01
1.75538e-02,2.90568e+01
1.80373e-02,2.73644e+01
1.85342e-02,2.57686e+01
1.90447e-02,2.42642e+01
1.95692e-02,2.28460e+01
2.01082e-02,2.15089e+01
2.06621e-02,2.02485e+01
2.12312e-02,1.90604e+01
2.18160e-02,1.79405e+01
2.24169e-02,1.68849e+01
2.30343e-02,1.58900e+01
2.36688e-02,1.49523e+01
2.43207e-02,1.40686e+01
2.49906e-02,1.32358e+01
2.56789e-02,1.24511e+01
2.63862e-02,1.17116e+01
2.71130e-02,1.10149e+01
2.78597e-02,1.03585e+01
2.86271e-02,9.74002e+00
2.94156e-02,9.15742e+00
3.02258e-02,8.60861e+00
3.10583e-02,8.09167e+00
3.19138e-02,7.60479e+00
3.27928e-02,7.14625e+00
3.36961e-02,6.71444e+00
3.46242e-02,6.30783e+00
3.55779e-02,5.92497e+00
3.65578e-02,5.56452e+00
3.75647e-02,5.22519e+00
3.85994e-02,4.90578e+00
3.96626e-02,4.60514e+00
4.07550e-02,4.32219e+00
4.18776e-02,4.05594e+00
4.30310e-02,3.80541e+00
4.42163e-02,3.56970e+00
4.54341e-02,3.34796e+00
4.66856e-02,3.13940e+00
4.79715e-02,2.94324e+00
4.92928e-02,2.75878e+00
5.06505e-02,2.58534e+00
5.20456e-02,2.42229e+00
5.34791e-02,2.26902e+00
5.49521e-02,2.12497e+00
5.64657e-02,1.98960e+00
5.80210e-02,1.86241e+00
5.96191e-02,1.74293e+00
6.12612e-02,1.63071e+00
6.29485e-02,1.52533e+00
6.46824e-02,1.42638e+00
6.64640e-02,1.33349e+00
6.82946e-02,1.24631e+00
7.01757e-02,1.16450e+00
7.21086e-02,1.08774e+00
7.40947e-02,1.01575e+00
7.61356e-02,9.48235e-01
7.82326e-02,8.84934e-01
8.03875e-02,8.25598e-01
8.26016e-02,7.69992e-01
8.48768e-02,7.17895e-01
8.72146e-02,6.69097e-01
8.96168e-02,6.23401e-01
9.20852e-02,5.80622e-01
9.46215e-02,5.40585e-01
9.72278e-02,5.03124e-01
9.99058e-02,4.68084e-01
1.02658e-01,4.35318e-01
1.05485e-01,4.04689e-01
1.08391e-01,3.76066e-01
1.11376e-01,3.49326e-01
1.14444e-01,3.24353e-01
1.17596e-01,3.01040e-01
1.20835e-01,2.79283e-01
1.24163e-01,2.58985e-01
1.27583e-01,2.40056e-01
1.31097e-01,2.22410e-01
1.34708e-01,2.05966e-01
1.38418e-01,1.90649e-01
1.42231e-01,1.76386e-01
1.46149e-01,1.63111e-01
1.50174e-01,1.50760e-01
1.54310e-01,1.39274e-01
1.58561e-01,1.28597e-01
1.62928e-01,1.18676e-01
1.67416e-01,1.09462e-01
1.72027e-01,1.00908e-01
1.76765e-01,9.29698e-02
1.81634e-01,8.56075e-02
1.86637e-01,7.87820e-02
1.91777e-01,7.24572e-02
1.97060e-01,6.65992e-02
2.02487e-01,6.11760e-02
2.08065e-01,5.61579e-02
2.13795e-01,5.15168e-02
2.19684e-01,4.72264e-02
2.25735e-01,4.32623e-02
2.31953e-01,3.96015e-02
2.38341e-01,3.62223e-02
2.44906e-01,3.31047e-02
2.51652e-01,3.02299e-02
2.58583e-01,2.75802e-02
2.65706e-01,2.51393e-02
2.73024e-01,2.28917e-02
2.80544e-01,2.08233e-02
2.88271e-01,1.89207e-02
2.96211e-01,1.71714e-02
3.04370e-01,1.55639e-02
3.12754e-01,1.40873e-02
3.21368e-01,1.27318e-02
3.30220e-01,1.14879e-02
3.39315e-01,1.03469e-02
3.48661e-01,9.30097e-03
3.58265e-01,8.34251e-03
3.68133e-01,7.46461e-03
3.78272e-01,6.66089e-03
3.88691e-01,5.92538e-03
3.99397e-01,5.25260e-03
4.10398e-01,4.63747e-03
4.21702e-01,4.07528e-03
4.33317e-01,3.56168e-03
4.45252e-01,3.09267e-03
4.57516e-01,2.66455e-03
4.70118e-01,2.27391e-03
4.83067e-01,1.91760e-03
4.96372e-01,1.59273e-03
5.10044e-01,1.29663e-03
5.24092e-01,1.02685e-03
5.38528e-01,7.81134e-04
5.53361e-01,5.57417e-04
5.68602e-01,3.53795e-04
5.84264e-01,1.68523e-04
6.00357e-01,0.00000e+00
