m1=9893.653, m2=3.180, gsp=2.402, rhosp=23.501
fGW[Hz],dPh[rad]
8.27126e-03,1.88845e+05
8.43853e-03,1.80165e+05
8.60918e-03,1.71862e+05
8.78328e-03,1.63920e+05
8.96090e-03,1.56325e+05
9.14212e-03,1.49063e+05
9.32700e-03,1.42118e+05
9.51561e-03,1.35478e+05
9.70804e-03,1.29131e+05
9.90437e-03,1.23063e+05
1.01047e-02,1.17263e+05
1.03090e-02,1.11720e+05
1.05175e-02,1.06423e+05
1.07302e-02,1.01362e+05
1.09472e-02,9.65267e+04
1.11685e-02,9.19075e+04
1.13944e-02,8.74954e+04
1.16248e-02,8.32815e+04
1.18599e-02,7.92575e+04
1.20998e-02,7.54153e+04
1.23444e-02,7.17472e+04
1.25941e-02,6.82457e+04
1.28488e-02,6.49038e+04
1.31086e-02,6.17146e+04
1.33737e-02,5.86715e+04
1.36441e-02,5.57683e+04
1.39201e-02,5.29990e+04
1.42016e-02,5.03577e+04
1.44888e-02,4.78390e+04
1.47818e-02,4.54376e+04
1.50807e-02,4.31483e+04
1.53857e-02,4.09663e+04
1.56968e-02,3.88869e+04
1.60142e-02,3.69056e+04
1.63381e-02,3.50181e+04
1.66685e-02,3.32203e+04
1.70056e-02,3.15082e+04
1.73495e-02,2.98780e+04
1.77003e-02,2.83262e+04
1.80583e-02,2.68492e+04
1.84235e-02,2.54438e+04
1.87960e-02,2.41066e+04
1.91761e-02,2.28346e+04
1.95639e-02,2.16250e+04
1.99596e-02,2.04748e+04
2.03632e-02,1.93814e+04
2.07750e-02,1.83423e+04
2.11951e-02,1.73548e+04
2.16238e-02,1.64168e+04
2.20610e-02,1.55258e+04
2.25072e-02,1.46797e+04
2.29623e-02,1.38765e+04
2.34267e-02,1.31142e+04
2.39004e-02,1.23908e+04
2.43838e-02,1.17044e+04
2.48769e-02,1.10535e+04
2.53800e-02,1.04363e+04
2.58932e-02,9.85110e+03
2.64168e-02,9.29650e+03
2.69511e-02,8.77100e+03
2.74961e-02,8.27320e+03
2.80521e-02,7.80175e+03
2.86194e-02,7.35537e+03
2.91982e-02,6.93285e+03
2.97887e-02,6.53300e+03
3.03911e-02,6.15471e+03
3.10056e-02,5.79691e+03
3.16327e-02,5.45859e+03
3.22724e-02,5.13876e+03
3.29250e-02,4.83650e+03
3.35908e-02,4.55091e+03
3.42701e-02,4.28116e+03
3.49632e-02,4.02642e+03
3.56702e-02,3.78594e+03
3.63916e-02,3.55896e+03
3.71275e-02,3.34480e+03
3.78783e-02,3.14279e+03
3.86443e-02,2.95228e+03
3.94258e-02,2.77267e+03
4.02231e-02,2.60338e+03
4.10365e-02,2.44387e+03
4.18664e-02,2.29360e+03
4.27130e-02,2.15208e+03
4.35768e-02,2.01884e+03
4.44581e-02,1.89342e+03
4.53571e-02,1.77541e+03
4.62744e-02,1.66438e+03
4.72102e-02,1.55995e+03
4.81649e-02,1.46177e+03
4.91389e-02,1.36947e+03
5.01326e-02,1.28273e+03
5.11464e-02,1.20123e+03
5.21808e-02,1.12468e+03
5.32360e-02,1.05279e+03
5.43126e-02,9.85299e+02
5.54109e-02,9.21952e+02
5.65315e-02,8.62508e+02
5.76747e-02,8.06741e+02
5.88410e-02,7.54436e+02
6.00310e-02,7.05389e+02
6.12450e-02,6.59408e+02
6.24835e-02,6.16312e+02
6.37471e-02,5.75928e+02
6.50362e-02,5.38096e+02
6.63514e-02,5.02660e+02
6.76932e-02,4.69477e+02
6.90622e-02,4.38410e+02
7.04588e-02,4.09331e+02
7.18837e-02,3.82117e+02
7.33373e-02,3.56655e+02
7.48204e-02,3.32837e+02
7.63335e-02,3.10560e+02
7.78772e-02,2.89730e+02
7.94520e-02,2.70255e+02
8.10588e-02,2.52052e+02
8.26980e-02,2.35040e+02
8.43704e-02,2.19144e+02
8.60766e-02,2.04294e+02
8.78173e-02,1.90424e+02
8.95932e-02,1.77470e+02
9.14050e-02,1.65374e+02
9.32535e-02,1.54082e+02
9.51393e-02,1.43542e+02
9.70633e-02,1.33705e+02
9.90262e-02,1.24525e+02
1.01029e-01,1.15961e+02
1.03072e-01,1.07972e+02
1.05156e-01,1.00520e+02
1.07283e-01,9.35700e+01
1.09452e-01,8.70896e+01
1.11666e-01,8.10477e+01
1.13924e-01,7.54153e+01
1.16228e-01,7.01654e+01
1.18578e-01,6.52725e+01
1.20976e-01,6.07130e+01
1.23423e-01,5.64647e+01
1.25919e-01,5.25067e+01
1.28465e-01,4.88197e+01
1.31063e-01,4.53855e+01
1.33713e-01,4.21870e+01
1.36417e-01,3.92085e+01
1.39176e-01,3.64350e+01
1.41991e-01,3.38528e+01
1.44862e-01,3.14488e+01
1.47792e-01,2.92110e+01
1.50780e-01,2.71281e+01
1.53829e-01,2.51895e+01
1.56940e-01,2.33854e+01
1.60114e-01,2.17066e+01
1.63352e-01,2.01445e+01
1.66655e-01,1.86912e+01
1.70026e-01,1.73391e+01
1.73464e-01,1.60813e+01
1.76972e-01,1.49113e+01
1.80551e-01,1.38231e+01
1.84202e-01,1.28110e+01
1.87927e-01,1.18698e+01
1.91727e-01,1.09945e+01
1.95605e-01,1.01806e+01
1.99560e-01,9.42381e+00
2.03596e-01,8.72019e+00
2.07713e-01,8.06604e+00
2.11914e-01,7.45790e+00
2.16199e-01,6.89258e+00
2.20571e-01,6.36708e+00
2.25032e-01,5.87863e+00
2.29583e-01,5.42464e+00
2.34226e-01,5.00270e+00
2.38962e-01,4.61056e+00
2.43795e-01,4.24613e+00
2.48725e-01,3.90748e+00
2.53755e-01,3.59279e+00
2.58886e-01,3.30038e+00
2.64122e-01,3.02868e+00
2.69463e-01,2.77624e+00
2.74912e-01,2.54170e+00
2.80472e-01,2.32380e+00
2.86144e-01,2.12136e+00
2.91930e-01,1.93330e+00
2.97834e-01,1.75860e+00
3.03857e-01,1.59631e+00
3.10002e-01,1.44556e+00
3.16271e-01,1.30554e+00
3.22667e-01,1.17548e+00
3.29192e-01,1.05467e+00
3.35849e-01,9.42472e-01
3.42641e-01,8.38263e-01
3.49570e-01,7.41480e-01
3.56639e-01,6.51595e-01
3.63851e-01,5.68120e-01
3.71209e-01,4.90599e-01
3.78716e-01,4.18609e-01
3.86375e-01,3.51757e-01
3.94188e-01,2.89677e-01
4.02160e-01,2.32030e-01
4.10293e-01,1.78501e-01
4.18590e-01,1.28796e-01
4.27055e-01,8.26435e-02
4.35691e-01,3.97898e-02
4.44502e-01,0.00000e+00
