m1=4638.149, m2=6.403, gsp=2.053, rhosp=33.152
fGW[Hz],dPh[rad]
7.68942e-03,8.53575e+01
7.87775e-03,8.06594e+01
8.07070e-03,7.62174e+01
8.26837e-03,7.20176e+01
8.47088e-03,6.80469e+01
8.67835e-03,6.42928e+01
8.89090e-03,6.07436e+01
9.10866e-03,5.73881e+01
9.33175e-03,5.42159e+01
9.56030e-03,5.12170e+01
9.79445e-03,4.83820e+01
1.00343e-02,4.57020e+01
1.02801e-02,4.31685e+01
1.05319e-02,4.07736e+01
1.07898e-02,3.85099e+01
1.10541e-02,3.63700e+01
1.13248e-02,3.43474e+01
1.16022e-02,3.24356e+01
1.18864e-02,3.06287e+01
1.21775e-02,2.89208e+01
1.24758e-02,2.73067e+01
1.27813e-02,2.57812e+01
1.30944e-02,2.43395e+01
1.34151e-02,2.29771e+01
1.37436e-02,2.16896e+01
1.40802e-02,2.04729e+01
1.44251e-02,1.93232e+01
1.47784e-02,1.82368e+01
1.51404e-02,1.72104e+01
1.55112e-02,1.62406e+01
1.58911e-02,1.53243e+01
1.62803e-02,1.44586e+01
1.66790e-02,1.36407e+01
1.70875e-02,1.28681e+01
1.75060e-02,1.21383e+01
1.79348e-02,1.14489e+01
1.83741e-02,1.07978e+01
1.88241e-02,1.01828e+01
1.92851e-02,9.60192e+00
1.97575e-02,9.05336e+00
2.02414e-02,8.53532e+00
2.07371e-02,8.04613e+00
2.12450e-02,7.58422e+00
2.17654e-02,7.14809e+00
2.22984e-02,6.73633e+00
2.28446e-02,6.34760e+00
2.34041e-02,5.98063e+00
2.39773e-02,5.63423e+00
2.45646e-02,5.30727e+00
2.51662e-02,4.99869e+00
2.57826e-02,4.70747e+00
2.64140e-02,4.43265e+00
2.70610e-02,4.17334e+00
2.77238e-02,3.92867e+00
2.84028e-02,3.69785e+00
2.90984e-02,3.48010e+00
2.98111e-02,3.27471e+00
3.05413e-02,3.08098e+00
3.12893e-02,2.89829e+00
3.20556e-02,2.72601e+00
3.28407e-02,2.56356e+00
3.36451e-02,2.41041e+00
3.44691e-02,2.26604e+00
3.53133e-02,2.12995e+00
3.61782e-02,2.00170e+00
3.70643e-02,1.88083e+00
3.79721e-02,1.76695e+00
3.89021e-02,1.65965e+00
3.98549e-02,1.55858e+00
4.08311e-02,1.46338e+00
4.18311e-02,1.37373e+00
4.28556e-02,1.28931e+00
4.39053e-02,1.20983e+00
4.49806e-02,1.13501e+00
4.60823e-02,1.06460e+00
4.72109e-02,9.98333e-01
4.83672e-02,9.35985e-01
4.95519e-02,8.77332e-01
5.07655e-02,8.22165e-01
5.20088e-02,7.70286e-01
5.32827e-02,7.21507e-01
5.45877e-02,6.75653e-01
5.59246e-02,6.32556e-01
5.72944e-02,5.92058e-01
5.86976e-02,5.54011e-01
6.01353e-02,5.18273e-01
6.16081e-02,4.84711e-01
6.31170e-02,4.53200e-01
6.46629e-02,4.23622e-01
6.62466e-02,3.95863e-01
6.78692e-02,3.69819e-01
6.95314e-02,3.45388e-01
7.12344e-02,3.22478e-01
7.29791e-02,3.00998e-01
7.47665e-02,2.80865e-01
7.65977e-02,2.61998e-01
7.84737e-02,2.44324e-01
8.03957e-02,2.27771e-01
8.23648e-02,2.12273e-01
8.43821e-02,1.97766e-01
8.64488e-02,1.84191e-01
8.85661e-02,1.71492e-01
9.07353e-02,1.59616e-01
9.29576e-02,1.48513e-01
9.52343e-02,1.38136e-01
9.75668e-02,1.28440e-01
9.99565e-02,1.19385e-01
1.02405e-01,1.10930e-01
1.04913e-01,1.03038e-01
1.07482e-01,9.56736e-02
1.10115e-01,8.88048e-02
1.12812e-01,8.24002e-02
1.15575e-01,7.64304e-02
1.18405e-01,7.08679e-02
1.21305e-01,6.56868e-02
1.24276e-01,6.08627e-02
1.27320e-01,5.63727e-02
1.30439e-01,5.21951e-02
1.33633e-01,4.83097e-02
1.36906e-01,4.46974e-02
1.40259e-01,4.13402e-02
1.43695e-01,3.82215e-02
1.47214e-01,3.53252e-02
1.50820e-01,3.26367e-02
1.54514e-01,3.01419e-02
1.58298e-01,2.78279e-02
1.62175e-01,2.56823e-02
1.66147e-01,2.36936e-02
1.70216e-01,2.18512e-02
1.74385e-01,2.01448e-02
1.78656e-01,1.85652e-02
1.83032e-01,1.71034e-02
1.87515e-01,1.57511e-02
1.92108e-01,1.45008e-02
1.96813e-01,1.33450e-02
2.01633e-01,1.22771e-02
2.06572e-01,1.12908e-02
2.11631e-01,1.03802e-02
2.16814e-01,9.53974e-03
2.22124e-01,8.76438e-03
2.27565e-01,8.04932e-03
2.33138e-01,7.39011e-03
2.38848e-01,6.78262e-03
2.44698e-01,6.22298e-03
2.50692e-01,5.70762e-03
2.56831e-01,5.23319e-03
2.63122e-01,4.79659e-03
2.69566e-01,4.39496e-03
2.76169e-01,4.02560e-03
2.82933e-01,3.68604e-03
2.89862e-01,3.37399e-03
2.96962e-01,3.08729e-03
3.04235e-01,2.82398e-03
3.11686e-01,2.58223e-03
3.19320e-01,2.36033e-03
3.27141e-01,2.15672e-03
3.35153e-01,1.96994e-03
3.43362e-01,1.79866e-03
3.51772e-01,1.64162e-03
3.60387e-01,1.49770e-03
3.69214e-01,1.36582e-03
3.78257e-01,1.24501e-03
3.87521e-01,1.13437e-03
3.97012e-01,1.03307e-03
4.06736e-01,9.40349e-04
4.16698e-01,8.55493e-04
4.26904e-01,7.77856e-04
4.37360e-01,7.06840e-04
4.48071e-01,6.41895e-04
4.59046e-01,5.82515e-04
4.70289e-01,5.28235e-04
4.81807e-01,4.78626e-04
4.93608e-01,4.33296e-04
5.05697e-01,3.91883e-04
5.18083e-01,3.54057e-04
5.30772e-01,3.19513e-04
5.43772e-01,2.87971e-04
5.57090e-01,2.59177e-04
5.70734e-01,2.32894e-04
5.84713e-01,2.08908e-04
5.99033e-01,1.87022e-04
6.13705e-01,1.67054e-04
6.28736e-01,1.48839e-04
6.44135e-01,1.32226e-04
6.59912e-01,1.17077e-04
6.76074e-01,1.03263e-04
6.92633e-01,9.06685e-05
7.09597e-01,7.91879e-05
7.26976e-01,6.87236e-05
7.44782e-01,5.91868e-05
7.63023e-01,5.04963e-05
7.81711e-01,4.25778e-05
8.00857e-01,3.53636e-05
8.20472e-01,2.87916e-05
8.40567e-01,2.28053e-05
8.61154e-01,1.73530e-05
8.82246e-01,1.23875e-05
9.03854e-01,7.86586e-06
9.25991e-01,3.74863e-06
9.48671e-01,0.00000e+00
