m1=2293.775, m2=11.751, gsp=2.477, rhosp=1980.333
fGW[Hz],dPh[rad]
7.30595e-03,1.61763e+05
7.51342e-03,1.52852e+05
7.72678e-03,1.44430e+05
7.94620e-03,1.36472e+05
8.17185e-03,1.28950e+05
8.40391e-03,1.21842e+05
8.64256e-03,1.15125e+05
8.88799e-03,1.08777e+05
9.14039e-03,1.02777e+05
9.39995e-03,9.71075e+04
9.66689e-03,9.17496e+04
9.94140e-03,8.66861e+04
1.02237e-02,8.19011e+04
1.05140e-02,7.73791e+04
1.08126e-02,7.31058e+04
1.11197e-02,6.90675e+04
1.14354e-02,6.52512e+04
1.17602e-02,6.16449e+04
1.20941e-02,5.82369e+04
1.24376e-02,5.50164e+04
1.27908e-02,5.19731e+04
1.31540e-02,4.90972e+04
1.35275e-02,4.63796e+04
1.39117e-02,4.38115e+04
1.43067e-02,4.13848e+04
1.47130e-02,3.90917e+04
1.51308e-02,3.69249e+04
1.55605e-02,3.48774e+04
1.60024e-02,3.29426e+04
1.64568e-02,3.11144e+04
1.69242e-02,2.93869e+04
1.74048e-02,2.77546e+04
1.78990e-02,2.62123e+04
1.84073e-02,2.47549e+04
1.89300e-02,2.33779e+04
1.94676e-02,2.20769e+04
2.00204e-02,2.08476e+04
2.05889e-02,1.96861e+04
2.11736e-02,1.85887e+04
2.17749e-02,1.75518e+04
2.23933e-02,1.65722e+04
2.30292e-02,1.56467e+04
2.36831e-02,1.47723e+04
2.43557e-02,1.39462e+04
2.50473e-02,1.31658e+04
2.57586e-02,1.24284e+04
2.64901e-02,1.17319e+04
2.72423e-02,1.10739e+04
2.80160e-02,1.04523e+04
2.88115e-02,9.86510e+03
2.96297e-02,9.31041e+03
3.04711e-02,8.78645e+03
3.13364e-02,8.29152e+03
3.22263e-02,7.82403e+03
3.31415e-02,7.38247e+03
3.40826e-02,6.96540e+03
3.50504e-02,6.57149e+03
3.60458e-02,6.19945e+03
3.70694e-02,5.84808e+03
3.81221e-02,5.51624e+03
3.92047e-02,5.20286e+03
4.03180e-02,4.90693e+03
4.14629e-02,4.62747e+03
4.26403e-02,4.36358e+03
4.38512e-02,4.11441e+03
4.50965e-02,3.87913e+03
4.63771e-02,3.65700e+03
4.76941e-02,3.44727e+03
4.90485e-02,3.24927e+03
5.04414e-02,3.06235e+03
5.18738e-02,2.88590e+03
5.33469e-02,2.71933e+03
5.48618e-02,2.56211e+03
5.64197e-02,2.41372e+03
5.80219e-02,2.27367e+03
5.96696e-02,2.14149e+03
6.13640e-02,2.01676e+03
6.31066e-02,1.89906e+03
6.48987e-02,1.78800e+03
6.67417e-02,1.68322e+03
6.86370e-02,1.58436e+03
7.05861e-02,1.49110e+03
7.25905e-02,1.40313e+03
7.46519e-02,1.32015e+03
7.67719e-02,1.24190e+03
7.89520e-02,1.16810e+03
8.11940e-02,1.09850e+03
8.34997e-02,1.03288e+03
8.58709e-02,9.71020e+02
8.83095e-02,9.12701e+02
9.08172e-02,8.57728e+02
9.33962e-02,8.05917e+02
9.60484e-02,7.57091e+02
9.87760e-02,7.11083e+02
1.01581e-01,6.67735e+02
1.04466e-01,6.26900e+02
1.07432e-01,5.88436e+02
1.10483e-01,5.52211e+02
1.13620e-01,5.18099e+02
1.16847e-01,4.85982e+02
1.20165e-01,4.55747e+02
1.23578e-01,4.27290e+02
1.27087e-01,4.00509e+02
1.30696e-01,3.75310e+02
1.34407e-01,3.51605e+02
1.38224e-01,3.29308e+02
1.42149e-01,3.08339e+02
1.46186e-01,2.88624e+02
1.50337e-01,2.70092e+02
1.54606e-01,2.52674e+02
1.58997e-01,2.36308e+02
1.63512e-01,2.20934e+02
1.68155e-01,2.06494e+02
1.72931e-01,1.92935e+02
1.77841e-01,1.80207e+02
1.82892e-01,1.68261e+02
1.88085e-01,1.57054e+02
1.93426e-01,1.46540e+02
1.98919e-01,1.36682e+02
2.04568e-01,1.27440e+02
2.10377e-01,1.18778e+02
2.16351e-01,1.10663e+02
2.22495e-01,1.03062e+02
2.28814e-01,9.59456e+01
2.35311e-01,8.92844e+01
2.41994e-01,8.30518e+01
2.48866e-01,7.72221e+01
2.55933e-01,7.17713e+01
2.63201e-01,6.66767e+01
2.70675e-01,6.19167e+01
2.78361e-01,5.74711e+01
2.86266e-01,5.33209e+01
2.94395e-01,4.94479e+01
3.02756e-01,4.58351e+01
3.11353e-01,4.24665e+01
3.20195e-01,3.93269e+01
3.29287e-01,3.64020e+01
3.38638e-01,3.36785e+01
3.48255e-01,3.11435e+01
3.58144e-01,2.87851e+01
3.68315e-01,2.65921e+01
3.78774e-01,2.45538e+01
3.89530e-01,2.26603e+01
4.00592e-01,2.09020e+01
4.11968e-01,1.92703e+01
4.23667e-01,1.77566e+01
4.35698e-01,1.63533e+01
4.48070e-01,1.50528e+01
4.60795e-01,1.38484e+01
4.73880e-01,1.27334e+01
4.87337e-01,1.17019e+01
5.01176e-01,1.07479e+01
5.15408e-01,9.86629e+00
5.30045e-01,9.05185e+00
5.45097e-01,8.29992e+00
5.60576e-01,7.60605e+00
5.76495e-01,6.96611e+00
5.92866e-01,6.37622e+00
6.09702e-01,5.83275e+00
6.27016e-01,5.33231e+00
6.44822e-01,4.87174e+00
6.63133e-01,4.44808e+00
6.81964e-01,4.05857e+00
7.01330e-01,3.70065e+00
7.21246e-01,3.37192e+00
7.41728e-01,3.07016e+00
7.62791e-01,2.79328e+00
7.84453e-01,2.53937e+00
8.06729e-01,2.30663e+00
8.29638e-01,2.09340e+00
8.53198e-01,1.89814e+00
8.77427e-01,1.71941e+00
9.02343e-01,1.55589e+00
9.27968e-01,1.40636e+00
9.54320e-01,1.26967e+00
9.81420e-01,1.14478e+00
1.00929e+00,1.03072e+00
1.03795e+00,9.26595e-01
1.06743e+00,8.31575e-01
1.09774e+00,7.44900e-01
1.12891e+00,6.65867e-01
1.16097e+00,5.93830e-01
1.19394e+00,5.28194e-01
1.22784e+00,4.68412e-01
1.26271e+00,4.13981e-01
1.29857e+00,3.64438e-01
1.33545e+00,3.19360e-01
1.37337e+00,2.78358e-01
1.41237e+00,2.41075e-01
1.45248e+00,2.07183e-01
1.49372e+00,1.76383e-01
1.53614e+00,1.48402e-01
1.57976e+00,1.22988e-01
1.62463e+00,9.99119e-02
1.67076e+00,7.89641e-02
1.71821e+00,5.99530e-02
1.76700e+00,4.27038e-02
1.81718e+00,2.70569e-02
1.86878e+00,1.28665e-02
1.92185e+00,0.00000e+00
