m1=280371.083, m2=11.388, gsp=2.462, rhosp=1764.194
fGW[Hz],dPh[rad]
2.22181e-03,1.68186e+05
2.24373e-03,1.62343e+05
2.26588e-03,1.56701e+05
2.28824e-03,1.51253e+05
2.31082e-03,1.45992e+05
2.33362e-03,1.40912e+05
2.35665e-03,1.36007e+05
2.37991e-03,1.31271e+05
2.40340e-03,1.26697e+05
2.42712e-03,1.22282e+05
2.45107e-03,1.18019e+05
2.47526e-03,1.13902e+05
2.49969e-03,1.09928e+05
2.52436e-03,1.06091e+05
2.54927e-03,1.02387e+05
2.57443e-03,9.88105e+04
2.59983e-03,9.53578e+04
2.62549e-03,9.20245e+04
2.65140e-03,8.88066e+04
2.67757e-03,8.57002e+04
2.70399e-03,8.27013e+04
2.73068e-03,7.98064e+04
2.75763e-03,7.70118e+04
2.78484e-03,7.43142e+04
2.81232e-03,7.17101e+04
2.84008e-03,6.91965e+04
2.86811e-03,6.67701e+04
2.89641e-03,6.44280e+04
2.92500e-03,6.21673e+04
2.95386e-03,5.99852e+04
2.98301e-03,5.78790e+04
3.01245e-03,5.58461e+04
3.04218e-03,5.38839e+04
3.07221e-03,5.19901e+04
3.10252e-03,5.01622e+04
3.13314e-03,4.83979e+04
3.16406e-03,4.66952e+04
3.19529e-03,4.50518e+04
3.22682e-03,4.34658e+04
3.25867e-03,4.19350e+04
3.29083e-03,4.04577e+04
3.32330e-03,3.90320e+04
3.35610e-03,3.76561e+04
3.38922e-03,3.63282e+04
3.42267e-03,3.50467e+04
3.45645e-03,3.38100e+04
3.49056e-03,3.26165e+04
3.52501e-03,3.14648e+04
3.55979e-03,3.03533e+04
3.59493e-03,2.92808e+04
3.63040e-03,2.82458e+04
3.66623e-03,2.72470e+04
3.70241e-03,2.62832e+04
3.73895e-03,2.53532e+04
3.77585e-03,2.44557e+04
3.81311e-03,2.35897e+04
3.85074e-03,2.27541e+04
3.88875e-03,2.19478e+04
3.92712e-03,2.11697e+04
3.96588e-03,2.04189e+04
4.00502e-03,1.96945e+04
4.04454e-03,1.89955e+04
4.08446e-03,1.83211e+04
4.12477e-03,1.76703e+04
4.16547e-03,1.70424e+04
4.20658e-03,1.64365e+04
4.24810e-03,1.58520e+04
4.29002e-03,1.52879e+04
4.33236e-03,1.47437e+04
4.37511e-03,1.42187e+04
4.41829e-03,1.37121e+04
4.46189e-03,1.32233e+04
4.50593e-03,1.27517e+04
4.55040e-03,1.22967e+04
4.59530e-03,1.18577e+04
4.64065e-03,1.14342e+04
4.68645e-03,1.10255e+04
4.73270e-03,1.06313e+04
4.77941e-03,1.02510e+04
4.82658e-03,9.88401e+03
4.87421e-03,9.52999e+03
4.92231e-03,9.18844e+03
4.97089e-03,8.85893e+03
5.01995e-03,8.54104e+03
5.06949e-03,8.23435e+03
5.11952e-03,7.93847e+03
5.17004e-03,7.65303e+03
5.22106e-03,7.37765e+03
5.27259e-03,7.11200e+03
5.32462e-03,6.85571e+03
5.37717e-03,6.60846e+03
5.43024e-03,6.36995e+03
5.48383e-03,6.13985e+03
5.53795e-03,5.91787e+03
5.59260e-03,5.70373e+03
5.64779e-03,5.49716e+03
5.70353e-03,5.29787e+03
5.75982e-03,5.10563e+03
5.81666e-03,4.92018e+03
5.87406e-03,4.74128e+03
5.93203e-03,4.56870e+03
5.99058e-03,4.40222e+03
6.04970e-03,4.24162e+03
6.10940e-03,4.08670e+03
6.16969e-03,3.93726e+03
6.23058e-03,3.79310e+03
6.29207e-03,3.65404e+03
6.35416e-03,3.51990e+03
6.41687e-03,3.39050e+03
6.48020e-03,3.26567e+03
6.54415e-03,3.14527e+03
6.60874e-03,3.02912e+03
6.67396e-03,2.91708e+03
6.73982e-03,2.80901e+03
6.80633e-03,2.70476e+03
6.87350e-03,2.60420e+03
6.94134e-03,2.50720e+03
7.00984e-03,2.41364e+03
7.07902e-03,2.32338e+03
7.14888e-03,2.23632e+03
7.21943e-03,2.15235e+03
7.29068e-03,2.07135e+03
7.36263e-03,1.99322e+03
7.43529e-03,1.91785e+03
7.50867e-03,1.84516e+03
7.58277e-03,1.77504e+03
7.65761e-03,1.70740e+03
7.73318e-03,1.64216e+03
7.80949e-03,1.57923e+03
7.88657e-03,1.51853e+03
7.96440e-03,1.45999e+03
8.04300e-03,1.40352e+03
8.12237e-03,1.34905e+03
8.20253e-03,1.29651e+03
8.28348e-03,1.24583e+03
8.36523e-03,1.19695e+03
8.44778e-03,1.14980e+03
8.53115e-03,1.10433e+03
8.61535e-03,1.06046e+03
8.70037e-03,1.01816e+03
8.78623e-03,9.77351e+02
8.87294e-03,9.37991e+02
8.96051e-03,9.00027e+02
9.04894e-03,8.63410e+02
9.13824e-03,8.28092e+02
9.22842e-03,7.94027e+02
9.31950e-03,7.61171e+02
9.41147e-03,7.29480e+02
9.50435e-03,6.98914e+02
9.59815e-03,6.69432e+02
9.69287e-03,6.40997e+02
9.78853e-03,6.13570e+02
9.88513e-03,5.87117e+02
9.98268e-03,5.61603e+02
1.00812e-02,5.36995e+02
1.01807e-02,5.13260e+02
1.02812e-02,4.90367e+02
1.03826e-02,4.68287e+02
1.04851e-02,4.46991e+02
1.05886e-02,4.26451e+02
1.06931e-02,4.06641e+02
1.07986e-02,3.87534e+02
1.09052e-02,3.69105e+02
1.10128e-02,3.51330e+02
1.11215e-02,3.34187e+02
1.12312e-02,3.17653e+02
1.13421e-02,3.01706e+02
1.14540e-02,2.86325e+02
1.15670e-02,2.71490e+02
1.16812e-02,2.57183e+02
1.17965e-02,2.43383e+02
1.19129e-02,2.30074e+02
1.20304e-02,2.17238e+02
1.21492e-02,2.04857e+02
1.22691e-02,1.92917e+02
1.23902e-02,1.81400e+02
1.25124e-02,1.70293e+02
1.26359e-02,1.59580e+02
1.27606e-02,1.49248e+02
1.28866e-02,1.39283e+02
1.30137e-02,1.29673e+02
1.31422e-02,1.20403e+02
1.32719e-02,1.11463e+02
1.34028e-02,1.02841e+02
1.35351e-02,9.45255e+01
1.36687e-02,8.65053e+01
1.38036e-02,7.87701e+01
1.39398e-02,7.13098e+01
1.40774e-02,6.41147e+01
1.42163e-02,5.71754e+01
1.43566e-02,5.04826e+01
1.44983e-02,4.40278e+01
1.46414e-02,3.78025e+01
1.47859e-02,3.17984e+01
1.49318e-02,2.60078e+01
1.50791e-02,2.04230e+01
1.52279e-02,1.50367e+01
1.53782e-02,9.84200e+00
1.55300e-02,4.83194e+00
1.56833e-02,0.00000e+00
