m1=11633.786, m2=3.406, gsp=2.252, rhosp=5747.877
fGW[Hz],dPh[rad]
7.74129e-03,4.33067e+04
7.89403e-03,4.12574e+04
8.04980e-03,3.92999e+04
8.20863e-03,3.74303e+04
8.37060e-03,3.56449e+04
8.53577e-03,3.39400e+04
8.70419e-03,3.23121e+04
8.87594e-03,3.07579e+04
9.05107e-03,2.92743e+04
9.22967e-03,2.78581e+04
9.41178e-03,2.65065e+04
9.59749e-03,2.52167e+04
9.78687e-03,2.39860e+04
9.97998e-03,2.28118e+04
1.01769e-02,2.16916e+04
1.03777e-02,2.06231e+04
1.05825e-02,1.96041e+04
1.07913e-02,1.86324e+04
1.10042e-02,1.77058e+04
1.12213e-02,1.68225e+04
1.14428e-02,1.59805e+04
1.16685e-02,1.51780e+04
1.18988e-02,1.44133e+04
1.21336e-02,1.36846e+04
1.23730e-02,1.29904e+04
1.26171e-02,1.23292e+04
1.28661e-02,1.16995e+04
1.31199e-02,1.10998e+04
1.33788e-02,1.05289e+04
1.36428e-02,9.98545e+03
1.39120e-02,9.46820e+03
1.41865e-02,8.97597e+03
1.44664e-02,8.50765e+03
1.47519e-02,8.06215e+03
1.50429e-02,7.63843e+03
1.53398e-02,7.23550e+03
1.56424e-02,6.85241e+03
1.59511e-02,6.48826e+03
1.62658e-02,6.14217e+03
1.65868e-02,5.81331e+03
1.69141e-02,5.50088e+03
1.72478e-02,5.20413e+03
1.75881e-02,4.92232e+03
1.79352e-02,4.65475e+03
1.82891e-02,4.40076e+03
1.86499e-02,4.15972e+03
1.90179e-02,3.93100e+03
1.93932e-02,3.71403e+03
1.97759e-02,3.50824e+03
2.01661e-02,3.31311e+03
2.05640e-02,3.12812e+03
2.09697e-02,2.95279e+03
2.13835e-02,2.78665e+03
2.18054e-02,2.62926e+03
2.22357e-02,2.48018e+03
2.26744e-02,2.33902e+03
2.31218e-02,2.20539e+03
2.35781e-02,2.07890e+03
2.40433e-02,1.95922e+03
2.45177e-02,1.84600e+03
2.50015e-02,1.73891e+03
2.54948e-02,1.63766e+03
2.59979e-02,1.54195e+03
2.65108e-02,1.45149e+03
2.70339e-02,1.36603e+03
2.75674e-02,1.28529e+03
2.81113e-02,1.20905e+03
2.86660e-02,1.13707e+03
2.92316e-02,1.06913e+03
2.98084e-02,1.00502e+03
3.03966e-02,9.44542e+02
3.09963e-02,8.87499e+02
3.16080e-02,8.33711e+02
3.22316e-02,7.83007e+02
3.28676e-02,7.35222e+02
3.35161e-02,6.90200e+02
3.41775e-02,6.47791e+02
3.48518e-02,6.07854e+02
3.55395e-02,5.70255e+02
3.62408e-02,5.34865e+02
3.69559e-02,5.01564e+02
3.76851e-02,4.70236e+02
3.84287e-02,4.40771e+02
3.91869e-02,4.13066e+02
3.99601e-02,3.87023e+02
4.07486e-02,3.62546e+02
4.15526e-02,3.39549e+02
4.23725e-02,3.17946e+02
4.32086e-02,2.97658e+02
4.40612e-02,2.78610e+02
4.49306e-02,2.60730e+02
4.58172e-02,2.43951e+02
4.67212e-02,2.28208e+02
4.76431e-02,2.13441e+02
4.85832e-02,1.99593e+02
4.95418e-02,1.86609e+02
5.05193e-02,1.74438e+02
5.15161e-02,1.63032e+02
5.25326e-02,1.52345e+02
5.35692e-02,1.42334e+02
5.46262e-02,1.32958e+02
5.57041e-02,1.24179e+02
5.68032e-02,1.15960e+02
5.79240e-02,1.08268e+02
5.90669e-02,1.01070e+02
6.02324e-02,9.43353e+01
6.14209e-02,8.80358e+01
6.26329e-02,8.21443e+01
6.38687e-02,7.66356e+01
6.51289e-02,7.14856e+01
6.64140e-02,6.66720e+01
6.77245e-02,6.21736e+01
6.90608e-02,5.79704e+01
7.04235e-02,5.40439e+01
7.18130e-02,5.03763e+01
7.32300e-02,4.69513e+01
7.46750e-02,4.37533e+01
7.61484e-02,4.07677e+01
7.76510e-02,3.79809e+01
7.91831e-02,3.53801e+01
8.07456e-02,3.29531e+01
8.23388e-02,3.06888e+01
8.39635e-02,2.85765e+01
8.56202e-02,2.66064e+01
8.73096e-02,2.47690e+01
8.90324e-02,2.30557e+01
9.07891e-02,2.14583e+01
9.25806e-02,1.99692e+01
9.44073e-02,1.85813e+01
9.62701e-02,1.72877e+01
9.81697e-02,1.60823e+01
1.00107e-01,1.49591e+01
1.02082e-01,1.39127e+01
1.04096e-01,1.29379e+01
1.06150e-01,1.20300e+01
1.08245e-01,1.11844e+01
1.10381e-01,1.03970e+01
1.12559e-01,9.66379e+00
1.14780e-01,8.98113e+00
1.17044e-01,8.34561e+00
1.19354e-01,7.75402e+00
1.21709e-01,7.20338e+00
1.24110e-01,6.69091e+00
1.26559e-01,6.21399e+00
1.29056e-01,5.77021e+00
1.31603e-01,5.35729e+00
1.34200e-01,4.97311e+00
1.36848e-01,4.61572e+00
1.39548e-01,4.28326e+00
1.42301e-01,3.97401e+00
1.45109e-01,3.68639e+00
1.47972e-01,3.41889e+00
1.50892e-01,3.17012e+00
1.53870e-01,2.93880e+00
1.56906e-01,2.72370e+00
1.60002e-01,2.52371e+00
1.63159e-01,2.33777e+00
1.66378e-01,2.16491e+00
1.69661e-01,2.00422e+00
1.73009e-01,1.85485e+00
1.76422e-01,1.71601e+00
1.79904e-01,1.58696e+00
1.83453e-01,1.46702e+00
1.87073e-01,1.35556e+00
1.90764e-01,1.25197e+00
1.94528e-01,1.15571e+00
1.98367e-01,1.06626e+00
2.02281e-01,9.83148e-01
2.06272e-01,9.05924e-01
2.10342e-01,8.34174e-01
2.14493e-01,7.67514e-01
2.18725e-01,7.05584e-01
2.23041e-01,6.48052e-01
2.27442e-01,5.94607e-01
2.31930e-01,5.44961e-01
2.36506e-01,4.98845e-01
2.41173e-01,4.56009e-01
2.45931e-01,4.16223e-01
2.50784e-01,3.79269e-01
2.55732e-01,3.44947e-01
2.60778e-01,3.13071e-01
2.65924e-01,2.83468e-01
2.71171e-01,2.55975e-01
2.76522e-01,2.30444e-01
2.81978e-01,2.06735e-01
2.87542e-01,1.84718e-01
2.93215e-01,1.64274e-01
2.99001e-01,1.45290e-01
3.04901e-01,1.27663e-01
3.10917e-01,1.11295e-01
3.17052e-01,9.60980e-02
3.23308e-01,8.19877e-02
3.29687e-01,6.88869e-02
3.36192e-01,5.67235e-02
3.42826e-01,4.54307e-02
3.49590e-01,3.49464e-02
3.56488e-01,2.52130e-02
3.63523e-01,1.61767e-02
3.70695e-01,7.78775e-03
3.78010e-01,0.00000e+00
