m1=13075.158, m2=7.057, gsp=2.295, rhosp=96.601
fGW[Hz],dPh[rad]
5.72136e-03,1.95217e+04
5.83970e-03,1.86135e+04
5.96049e-03,1.77458e+04
6.08377e-03,1.69170e+04
6.20960e-03,1.61254e+04
6.33804e-03,1.53692e+04
6.46913e-03,1.46470e+04
6.60294e-03,1.39573e+04
6.73951e-03,1.32987e+04
6.87891e-03,1.26697e+04
7.02119e-03,1.20692e+04
7.16641e-03,1.14959e+04
7.31464e-03,1.09485e+04
7.46593e-03,1.04260e+04
7.62035e-03,9.92721e+03
7.77797e-03,9.45116e+03
7.93884e-03,8.99681e+03
8.10305e-03,8.56323e+03
8.27065e-03,8.14950e+03
8.44171e-03,7.75473e+03
8.61632e-03,7.37811e+03
8.79453e-03,7.01882e+03
8.97644e-03,6.67610e+03
9.16210e-03,6.34922e+03
9.35161e-03,6.03748e+03
9.54503e-03,5.74021e+03
9.74246e-03,5.45677e+03
9.94396e-03,5.18653e+03
1.01496e-02,4.92892e+03
1.03596e-02,4.68337e+03
1.05738e-02,4.44935e+03
1.07925e-02,4.22634e+03
1.10158e-02,4.01385e+03
1.12436e-02,3.81140e+03
1.14762e-02,3.61855e+03
1.17135e-02,3.43486e+03
1.19558e-02,3.25993e+03
1.22031e-02,3.09336e+03
1.24555e-02,2.93477e+03
1.27131e-02,2.78380e+03
1.29761e-02,2.64011e+03
1.32445e-02,2.50336e+03
1.35184e-02,2.37324e+03
1.37980e-02,2.24945e+03
1.40834e-02,2.13170e+03
1.43747e-02,2.01971e+03
1.46720e-02,1.91322e+03
1.49755e-02,1.81197e+03
1.52853e-02,1.71573e+03
1.56014e-02,1.62426e+03
1.59241e-02,1.53734e+03
1.62535e-02,1.45476e+03
1.65897e-02,1.37632e+03
1.69328e-02,1.30182e+03
1.72830e-02,1.23108e+03
1.76405e-02,1.16393e+03
1.80054e-02,1.10019e+03
1.83778e-02,1.03971e+03
1.87579e-02,9.82321e+02
1.91459e-02,9.27888e+02
1.95419e-02,8.76266e+02
1.99461e-02,8.27321e+02
2.03586e-02,7.80925e+02
2.07797e-02,7.36954e+02
2.12095e-02,6.95291e+02
2.16482e-02,6.55824e+02
2.20960e-02,6.18447e+02
2.25530e-02,5.83057e+02
2.30195e-02,5.49556e+02
2.34956e-02,5.17851e+02
2.39816e-02,4.87854e+02
2.44776e-02,4.59479e+02
2.49839e-02,4.32646e+02
2.55006e-02,4.07277e+02
2.60281e-02,3.83299e+02
2.65664e-02,3.60641e+02
2.71159e-02,3.39236e+02
2.76768e-02,3.19020e+02
2.82492e-02,2.99932e+02
2.88335e-02,2.81915e+02
2.94299e-02,2.64912e+02
3.00386e-02,2.48871e+02
3.06599e-02,2.33742e+02
3.12941e-02,2.19476e+02
3.19413e-02,2.06029e+02
3.26020e-02,1.93356e+02
3.32763e-02,1.81417e+02
3.39646e-02,1.70172e+02
3.46671e-02,1.59584e+02
3.53841e-02,1.49617e+02
3.61160e-02,1.40237e+02
3.68630e-02,1.31413e+02
3.76255e-02,1.23113e+02
3.84037e-02,1.15310e+02
3.91980e-02,1.07974e+02
4.00088e-02,1.01080e+02
4.08363e-02,9.46040e+01
4.16809e-02,8.85213e+01
4.25430e-02,8.28099e+01
4.34230e-02,7.74487e+01
4.43211e-02,7.24176e+01
4.52378e-02,6.76976e+01
4.61735e-02,6.32706e+01
4.71285e-02,5.91196e+01
4.81033e-02,5.52284e+01
4.90983e-02,5.15818e+01
5.01138e-02,4.81653e+01
5.11503e-02,4.49653e+01
5.22083e-02,4.19687e+01
5.32882e-02,3.91634e+01
5.43903e-02,3.65379e+01
5.55153e-02,3.40812e+01
5.66636e-02,3.17832e+01
5.78356e-02,2.96340e+01
5.90318e-02,2.76245e+01
6.02528e-02,2.57462e+01
6.14991e-02,2.39909e+01
6.27711e-02,2.23508e+01
6.40694e-02,2.08189e+01
6.53946e-02,1.93883e+01
6.67472e-02,1.80526e+01
6.81278e-02,1.68058e+01
6.95369e-02,1.56422e+01
7.09751e-02,1.45565e+01
7.24432e-02,1.35438e+01
7.39415e-02,1.25992e+01
7.54709e-02,1.17185e+01
7.70319e-02,1.08975e+01
7.86252e-02,1.01322e+01
8.02515e-02,9.41899e+00
8.19113e-02,8.75452e+00
8.36056e-02,8.13555e+00
8.53348e-02,7.55906e+00
8.70999e-02,7.02223e+00
8.89014e-02,6.52243e+00
9.07402e-02,6.05718e+00
9.26170e-02,5.62417e+00
9.45327e-02,5.22123e+00
9.64879e-02,4.84634e+00
9.84836e-02,4.49759e+00
1.00521e-01,4.17321e+00
1.02600e-01,3.87156e+00
1.04722e-01,3.59107e+00
1.06888e-01,3.33030e+00
1.09099e-01,3.08789e+00
1.11355e-01,2.86260e+00
1.13658e-01,2.65323e+00
1.16009e-01,2.45869e+00
1.18409e-01,2.27794e+00
1.20858e-01,2.11004e+00
1.23358e-01,1.95409e+00
1.25909e-01,1.80925e+00
1.28513e-01,1.67475e+00
1.31172e-01,1.54987e+00
1.33885e-01,1.43393e+00
1.36654e-01,1.32630e+00
1.39480e-01,1.22639e+00
1.42365e-01,1.13367e+00
1.45310e-01,1.04762e+00
1.48315e-01,9.67772e-01
1.51383e-01,8.93685e-01
1.54514e-01,8.24949e-01
1.57710e-01,7.61184e-01
1.60972e-01,7.02035e-01
1.64302e-01,6.47173e-01
1.67700e-01,5.96291e-01
1.71169e-01,5.49104e-01
1.74709e-01,5.05348e-01
1.78323e-01,4.64775e-01
1.82011e-01,4.27157e-01
1.85776e-01,3.92281e-01
1.89618e-01,3.59950e-01
1.93540e-01,3.29979e-01
1.97543e-01,3.02199e-01
2.01629e-01,2.76450e-01
2.05799e-01,2.52586e-01
2.10056e-01,2.30470e-01
2.14401e-01,2.09975e-01
2.18835e-01,1.90983e-01
2.23362e-01,1.73385e-01
2.27982e-01,1.57080e-01
2.32697e-01,1.41973e-01
2.37510e-01,1.27977e-01
2.42423e-01,1.15011e-01
2.47437e-01,1.03000e-01
2.52555e-01,9.18731e-02
2.57778e-01,8.15666e-02
2.63110e-01,7.20202e-02
2.68552e-01,6.31782e-02
2.74107e-01,5.49889e-02
2.79776e-01,4.74044e-02
2.85563e-01,4.03803e-02
2.91469e-01,3.38754e-02
2.97498e-01,2.78516e-02
3.03651e-01,2.22735e-02
3.09932e-01,1.71082e-02
3.16342e-01,1.23254e-02
3.22886e-01,7.89685e-03
3.29564e-01,3.79645e-03
3.36380e-01,0.00000e+00
