m1=89393.652, m2=59.838, gsp=2.240, rhosp=11.550
fGW[Hz],dPh[rad]
1.58728e-03,1.52805e+03
1.61491e-03,1.46331e+03
1.64302e-03,1.40117e+03
1.67162e-03,1.34151e+03
1.70071e-03,1.28426e+03
1.73031e-03,1.22931e+03
1.76043e-03,1.17658e+03
1.79107e-03,1.12599e+03
1.82225e-03,1.07744e+03
1.85397e-03,1.03086e+03
1.88624e-03,9.86185e+02
1.91907e-03,9.43328e+02
1.95247e-03,9.02222e+02
1.98645e-03,8.62801e+02
2.02103e-03,8.24998e+02
2.05621e-03,7.88751e+02
2.09200e-03,7.53999e+02
2.12841e-03,7.20684e+02
2.16546e-03,6.88750e+02
2.20315e-03,6.58143e+02
2.24150e-03,6.28811e+02
2.28051e-03,6.00704e+02
2.32020e-03,5.73774e+02
2.36059e-03,5.47974e+02
2.40168e-03,5.23260e+02
2.44348e-03,4.99589e+02
2.48601e-03,4.76920e+02
2.52928e-03,4.55213e+02
2.57331e-03,4.34429e+02
2.61810e-03,4.14533e+02
2.66367e-03,3.95488e+02
2.71003e-03,3.77261e+02
2.75720e-03,3.59818e+02
2.80519e-03,3.43129e+02
2.85402e-03,3.27163e+02
2.90369e-03,3.11890e+02
2.95424e-03,2.97283e+02
3.00566e-03,2.83314e+02
3.05797e-03,2.69958e+02
3.11120e-03,2.57190e+02
3.16535e-03,2.44986e+02
3.22045e-03,2.33322e+02
3.27650e-03,2.22176e+02
3.33353e-03,2.11527e+02
3.39155e-03,2.01355e+02
3.45059e-03,1.91639e+02
3.51065e-03,1.82360e+02
3.57175e-03,1.73502e+02
3.63392e-03,1.65045e+02
3.69717e-03,1.56972e+02
3.76152e-03,1.49269e+02
3.82700e-03,1.41919e+02
3.89361e-03,1.34906e+02
3.96138e-03,1.28218e+02
4.03033e-03,1.21840e+02
4.10048e-03,1.15758e+02
4.17185e-03,1.09960e+02
4.24447e-03,1.04434e+02
4.31835e-03,9.91675e+01
4.39351e-03,9.41497e+01
4.46998e-03,8.93697e+01
4.54779e-03,8.48171e+01
4.62694e-03,8.04817e+01
4.70748e-03,7.63541e+01
4.78942e-03,7.24251e+01
4.87278e-03,6.86857e+01
4.95759e-03,6.51276e+01
5.04389e-03,6.17426e+01
5.13168e-03,5.85229e+01
5.22100e-03,5.54610e+01
5.31187e-03,5.25498e+01
5.40433e-03,4.97824e+01
5.49840e-03,4.71522e+01
5.59410e-03,4.46529e+01
5.69147e-03,4.22785e+01
5.79054e-03,4.00231e+01
5.89132e-03,3.78813e+01
5.99387e-03,3.58477e+01
6.09820e-03,3.39173e+01
6.20434e-03,3.20851e+01
6.31233e-03,3.03465e+01
6.42220e-03,2.86971e+01
6.53399e-03,2.71326e+01
6.64771e-03,2.56490e+01
6.76342e-03,2.42423e+01
6.88115e-03,2.29087e+01
7.00092e-03,2.16449e+01
7.12277e-03,2.04473e+01
7.24675e-03,1.93126e+01
7.37289e-03,1.82379e+01
7.50122e-03,1.72201e+01
7.63178e-03,1.62565e+01
7.76462e-03,1.53442e+01
7.89977e-03,1.44807e+01
8.03727e-03,1.36637e+01
8.17716e-03,1.28906e+01
8.31949e-03,1.21594e+01
8.46430e-03,1.14678e+01
8.61163e-03,1.08139e+01
8.76152e-03,1.01956e+01
8.91402e-03,9.61127e+00
9.06918e-03,9.05901e+00
9.22703e-03,8.53718e+00
9.38764e-03,8.04420e+00
9.55104e-03,7.57856e+00
9.71728e-03,7.13882e+00
9.88642e-03,6.72360e+00
1.00585e-02,6.33162e+00
1.02336e-02,5.96163e+00
1.04117e-02,5.61245e+00
1.05929e-02,5.28298e+00
1.07773e-02,4.97215e+00
1.09649e-02,4.67895e+00
1.11557e-02,4.40244e+00
1.13499e-02,4.14169e+00
1.15475e-02,3.89585e+00
1.17485e-02,3.66411e+00
1.19529e-02,3.44568e+00
1.21610e-02,3.23984e+00
1.23727e-02,3.04588e+00
1.25880e-02,2.86316e+00
1.28071e-02,2.69103e+00
1.30300e-02,2.52892e+00
1.32568e-02,2.37626e+00
1.34876e-02,2.23251e+00
1.37224e-02,2.09718e+00
1.39612e-02,1.96980e+00
1.42042e-02,1.84990e+00
1.44514e-02,1.73706e+00
1.47030e-02,1.63089e+00
1.49589e-02,1.53099e+00
1.52193e-02,1.43702e+00
1.54842e-02,1.34863e+00
1.57537e-02,1.26549e+00
1.60279e-02,1.18731e+00
1.63069e-02,1.11380e+00
1.65907e-02,1.04468e+00
1.68795e-02,9.79709e-01
1.71733e-02,9.18633e-01
1.74722e-02,8.61229e-01
1.77763e-02,8.07281e-01
1.80857e-02,7.56586e-01
1.84005e-02,7.08953e-01
1.87208e-02,6.64200e-01
1.90466e-02,6.22159e-01
1.93782e-02,5.82668e-01
1.97155e-02,5.45576e-01
2.00586e-02,5.10741e-01
2.04078e-02,4.78027e-01
2.07630e-02,4.47308e-01
2.11244e-02,4.18466e-01
2.14920e-02,3.91387e-01
2.18661e-02,3.65966e-01
2.22467e-02,3.42103e-01
2.26339e-02,3.19705e-01
2.30279e-02,2.98683e-01
2.34287e-02,2.78954e-01
2.38365e-02,2.60439e-01
2.42514e-02,2.43066e-01
2.46735e-02,2.26764e-01
2.51030e-02,2.11470e-01
2.55399e-02,1.97121e-01
2.59845e-02,1.83660e-01
2.64368e-02,1.71033e-01
2.68969e-02,1.59188e-01
2.73651e-02,1.48079e-01
2.78414e-02,1.37660e-01
2.83260e-02,1.27888e-01
2.88190e-02,1.18724e-01
2.93206e-02,1.10131e-01
2.98310e-02,1.02073e-01
3.03502e-02,9.45180e-02
3.08785e-02,8.74342e-02
3.14159e-02,8.07928e-02
3.19628e-02,7.45665e-02
3.25191e-02,6.87296e-02
3.30851e-02,6.32579e-02
3.36610e-02,5.81289e-02
3.42469e-02,5.33213e-02
3.48430e-02,4.88151e-02
3.54494e-02,4.45916e-02
3.60665e-02,4.06333e-02
3.66942e-02,3.69236e-02
3.73329e-02,3.34470e-02
3.79827e-02,3.01890e-02
3.86439e-02,2.71361e-02
3.93165e-02,2.42753e-02
4.00008e-02,2.15946e-02
4.06971e-02,1.90829e-02
4.14054e-02,1.67295e-02
4.21261e-02,1.45246e-02
4.28594e-02,1.24588e-02
4.36054e-02,1.05233e-02
4.43643e-02,8.71015e-03
4.51365e-02,7.01151e-03
4.59222e-02,5.42024e-03
4.67215e-02,3.92958e-03
4.75347e-02,2.53322e-03
4.83621e-02,1.22521e-03
4.92039e-02,0.00000e+00
