m1=128470.531, m2=6.208, gsp=2.159, rhosp=328.911
fGW[Hz],dPh[rad]
3.39044e-03,1.51355e+03
3.43006e-03,1.45001e+03
3.47014e-03,1.38909e+03
3.51069e-03,1.33067e+03
3.55172e-03,1.27466e+03
3.59323e-03,1.22097e+03
3.63522e-03,1.16949e+03
3.67770e-03,1.12014e+03
3.72068e-03,1.07284e+03
3.76416e-03,1.02750e+03
3.80815e-03,9.84036e+02
3.85265e-03,9.42382e+02
3.89767e-03,9.02460e+02
3.94322e-03,8.64200e+02
3.98930e-03,8.27535e+02
4.03592e-03,7.92399e+02
4.08308e-03,7.58731e+02
4.13080e-03,7.26471e+02
4.17907e-03,6.95560e+02
4.22791e-03,6.65944e+02
4.27732e-03,6.37570e+02
4.32730e-03,6.10386e+02
4.37787e-03,5.84345e+02
4.42903e-03,5.59397e+02
4.48079e-03,5.35500e+02
4.53315e-03,5.12609e+02
4.58613e-03,4.90683e+02
4.63972e-03,4.69681e+02
4.69394e-03,4.49567e+02
4.74880e-03,4.30302e+02
4.80429e-03,4.11851e+02
4.86044e-03,3.94182e+02
4.91723e-03,3.77261e+02
4.97470e-03,3.61057e+02
5.03283e-03,3.45541e+02
5.09165e-03,3.30683e+02
5.15115e-03,3.16456e+02
5.21135e-03,3.02834e+02
5.27225e-03,2.89791e+02
5.33386e-03,2.77304e+02
5.39619e-03,2.65349e+02
5.45925e-03,2.53903e+02
5.52305e-03,2.42945e+02
5.58759e-03,2.32455e+02
5.65289e-03,2.22413e+02
5.71895e-03,2.12801e+02
5.78578e-03,2.03599e+02
5.85339e-03,1.94791e+02
5.92180e-03,1.86360e+02
5.99100e-03,1.78290e+02
6.06101e-03,1.70567e+02
6.13184e-03,1.63174e+02
6.20350e-03,1.56099e+02
6.27599e-03,1.49327e+02
6.34934e-03,1.42846e+02
6.42353e-03,1.36644e+02
6.49860e-03,1.30709e+02
6.57454e-03,1.25029e+02
6.65138e-03,1.19593e+02
6.72910e-03,1.14392e+02
6.80774e-03,1.09415e+02
6.88730e-03,1.04652e+02
6.96778e-03,1.00095e+02
7.04921e-03,9.57339e+01
7.13159e-03,9.15615e+01
7.21493e-03,8.75692e+01
7.29924e-03,8.37495e+01
7.38454e-03,8.00949e+01
7.47084e-03,7.65983e+01
7.55814e-03,7.32530e+01
7.64647e-03,7.00524e+01
7.73583e-03,6.69905e+01
7.82623e-03,6.40611e+01
7.91769e-03,6.12587e+01
8.01021e-03,5.85778e+01
8.10382e-03,5.60131e+01
8.19852e-03,5.35597e+01
8.29433e-03,5.12127e+01
8.39126e-03,4.89676e+01
8.48932e-03,4.68200e+01
8.58853e-03,4.47657e+01
8.68890e-03,4.28007e+01
8.79043e-03,4.09211e+01
8.89316e-03,3.91232e+01
8.99709e-03,3.74035e+01
9.10223e-03,3.57587e+01
9.20860e-03,3.41854e+01
9.31621e-03,3.26806e+01
9.42508e-03,3.12414e+01
9.53522e-03,2.98649e+01
9.64665e-03,2.85483e+01
9.75938e-03,2.72891e+01
9.87343e-03,2.60848e+01
9.98882e-03,2.49331e+01
1.01055e-02,2.38315e+01
1.02236e-02,2.27781e+01
1.03431e-02,2.17706e+01
1.04640e-02,2.08071e+01
1.05863e-02,1.98857e+01
1.07100e-02,1.90045e+01
1.08351e-02,1.81618e+01
1.09618e-02,1.73559e+01
1.10899e-02,1.65853e+01
1.12195e-02,1.58483e+01
1.13506e-02,1.51436e+01
1.14832e-02,1.44697e+01
1.16174e-02,1.38253e+01
1.17532e-02,1.32090e+01
1.18905e-02,1.26198e+01
1.20295e-02,1.20563e+01
1.21701e-02,1.15175e+01
1.23123e-02,1.10023e+01
1.24562e-02,1.05097e+01
1.26017e-02,1.00386e+01
1.27490e-02,9.58817e+00
1.28980e-02,9.15748e+00
1.30487e-02,8.74567e+00
1.32012e-02,8.35192e+00
1.33555e-02,7.97542e+00
1.35115e-02,7.61544e+00
1.36694e-02,7.27124e+00
1.38292e-02,6.94214e+00
1.39908e-02,6.62748e+00
1.41543e-02,6.32663e+00
1.43197e-02,6.03898e+00
1.44870e-02,5.76396e+00
1.46563e-02,5.50101e+00
1.48276e-02,5.24960e+00
1.50009e-02,5.00923e+00
1.51762e-02,4.77942e+00
1.53535e-02,4.55971e+00
1.55330e-02,4.34964e+00
1.57145e-02,4.14881e+00
1.58981e-02,3.95680e+00
1.60839e-02,3.77322e+00
1.62719e-02,3.59772e+00
1.64620e-02,3.42993e+00
1.66544e-02,3.26952e+00
1.68490e-02,3.11615e+00
1.70459e-02,2.96954e+00
1.72451e-02,2.82937e+00
1.74466e-02,2.69536e+00
1.76505e-02,2.56725e+00
1.78568e-02,2.44478e+00
1.80655e-02,2.32769e+00
1.82766e-02,2.21576e+00
1.84902e-02,2.10875e+00
1.87062e-02,2.00645e+00
1.89248e-02,1.90865e+00
1.91460e-02,1.81516e+00
1.93697e-02,1.72578e+00
1.95961e-02,1.64034e+00
1.98251e-02,1.55866e+00
2.00568e-02,1.48058e+00
2.02912e-02,1.40593e+00
2.05283e-02,1.33458e+00
2.07682e-02,1.26636e+00
2.10109e-02,1.20115e+00
2.12564e-02,1.13881e+00
2.15048e-02,1.07922e+00
2.17561e-02,1.02226e+00
2.20104e-02,9.67803e-01
2.22676e-02,9.15747e-01
2.25278e-02,8.65985e-01
2.27911e-02,8.18416e-01
2.30574e-02,7.72943e-01
2.33269e-02,7.29475e-01
2.35995e-02,6.87923e-01
2.38753e-02,6.48203e-01
2.41543e-02,6.10234e-01
2.44365e-02,5.73939e-01
2.47221e-02,5.39244e-01
2.50110e-02,5.06079e-01
2.53033e-02,4.74376e-01
2.55990e-02,4.44072e-01
2.58981e-02,4.15104e-01
2.62008e-02,3.87413e-01
2.65070e-02,3.60944e-01
2.68167e-02,3.35643e-01
2.71301e-02,3.11457e-01
2.74472e-02,2.88339e-01
2.77679e-02,2.66240e-01
2.80924e-02,2.45116e-01
2.84207e-02,2.24924e-01
2.87528e-02,2.05624e-01
2.90888e-02,1.87174e-01
2.94288e-02,1.69539e-01
2.97727e-02,1.52683e-01
3.01206e-02,1.36570e-01
3.04726e-02,1.21168e-01
3.08287e-02,1.06446e-01
3.11890e-02,9.23733e-02
3.15535e-02,7.89221e-02
3.19222e-02,6.60646e-02
3.22952e-02,5.37747e-02
3.26727e-02,4.20274e-02
3.30545e-02,3.07986e-02
3.34407e-02,2.00655e-02
3.38315e-02,9.80628e-03
3.42269e-02,0.00000e+00
