m1=61879.037, m2=8.168, gsp=2.028, rhosp=129.055
fGW[Hz],dPh[rad]
3.67183e-03,1.87239e+02
3.72691e-03,1.78430e+02
3.78282e-03,1.70012e+02
3.83956e-03,1.61969e+02
3.89715e-03,1.54286e+02
3.95561e-03,1.46948e+02
4.01495e-03,1.39941e+02
4.07517e-03,1.33249e+02
4.13630e-03,1.26861e+02
4.19835e-03,1.20763e+02
4.26132e-03,1.14943e+02
4.32524e-03,1.09389e+02
4.39012e-03,1.04089e+02
4.45598e-03,9.90333e+01
4.52282e-03,9.42107e+01
4.59066e-03,8.96113e+01
4.65952e-03,8.52254e+01
4.72942e-03,8.10437e+01
4.80036e-03,7.70573e+01
4.87236e-03,7.32575e+01
4.94545e-03,6.96363e+01
5.01963e-03,6.61857e+01
5.09493e-03,6.28981e+01
5.17136e-03,5.97664e+01
5.24893e-03,5.67835e+01
5.32766e-03,5.39428e+01
5.40758e-03,5.12380e+01
5.48869e-03,4.86628e+01
5.57103e-03,4.62115e+01
5.65459e-03,4.38784e+01
5.73941e-03,4.16581e+01
5.82550e-03,3.95455e+01
5.91289e-03,3.75356e+01
6.00158e-03,3.56237e+01
6.09161e-03,3.38053e+01
6.18298e-03,3.20760e+01
6.27573e-03,3.04318e+01
6.36987e-03,2.88685e+01
6.46542e-03,2.73826e+01
6.56240e-03,2.59703e+01
6.66084e-03,2.46281e+01
6.76075e-03,2.33528e+01
6.86216e-03,2.21411e+01
6.96510e-03,2.09901e+01
7.06958e-03,1.98968e+01
7.17562e-03,1.88586e+01
7.28326e-03,1.78727e+01
7.39251e-03,1.69366e+01
7.50340e-03,1.60479e+01
7.61595e-03,1.52044e+01
7.73019e-03,1.44038e+01
7.84615e-03,1.36440e+01
7.96384e-03,1.29231e+01
8.08330e-03,1.22391e+01
8.20455e-03,1.15903e+01
8.32762e-03,1.09748e+01
8.45254e-03,1.03911e+01
8.57933e-03,9.83756e+00
8.70802e-03,9.31268e+00
8.83864e-03,8.81503e+00
8.97122e-03,8.34326e+00
9.10579e-03,7.89608e+00
9.24238e-03,7.47224e+00
9.38102e-03,7.07057e+00
9.52174e-03,6.68994e+00
9.66457e-03,6.32931e+00
9.80954e-03,5.98764e+00
9.95668e-03,5.66397e+00
1.01060e-02,5.35739e+00
1.02576e-02,5.06702e+00
1.04115e-02,4.79204e+00
1.05677e-02,4.53164e+00
1.07262e-02,4.28509e+00
1.08871e-02,4.05166e+00
1.10504e-02,3.83068e+00
1.12162e-02,3.62150e+00
1.13844e-02,3.42351e+00
1.15552e-02,3.23613e+00
1.17285e-02,3.05880e+00
1.19044e-02,2.89100e+00
1.20830e-02,2.73223e+00
1.22642e-02,2.58201e+00
1.24482e-02,2.43991e+00
1.26349e-02,2.30548e+00
1.28245e-02,2.17832e+00
1.30168e-02,2.05806e+00
1.32121e-02,1.94432e+00
1.34103e-02,1.83676e+00
1.36114e-02,1.73505e+00
1.38156e-02,1.63887e+00
1.40228e-02,1.54794e+00
1.42332e-02,1.46198e+00
1.44467e-02,1.38071e+00
1.46634e-02,1.30389e+00
1.48833e-02,1.23128e+00
1.51066e-02,1.16265e+00
1.53332e-02,1.09779e+00
1.55632e-02,1.03649e+00
1.57967e-02,9.78560e-01
1.60336e-02,9.23823e-01
1.62741e-02,8.72102e-01
1.65182e-02,8.23235e-01
1.67660e-02,7.77067e-01
1.70175e-02,7.33450e-01
1.72728e-02,6.92247e-01
1.75319e-02,6.53325e-01
1.77948e-02,6.16561e-01
1.80618e-02,5.81835e-01
1.83327e-02,5.49038e-01
1.86077e-02,5.18063e-01
1.88868e-02,4.88810e-01
1.91701e-02,4.61185e-01
1.94577e-02,4.35099e-01
1.97496e-02,4.10467e-01
2.00458e-02,3.87209e-01
2.03465e-02,3.65248e-01
2.06517e-02,3.44515e-01
2.09615e-02,3.24940e-01
2.12759e-02,3.06460e-01
2.15950e-02,2.89015e-01
2.19190e-02,2.72546e-01
2.22478e-02,2.57001e-01
2.25815e-02,2.42327e-01
2.29202e-02,2.28477e-01
2.32640e-02,2.15404e-01
2.36130e-02,2.03065e-01
2.39672e-02,1.91420e-01
2.43267e-02,1.80430e-01
2.46916e-02,1.70059e-01
2.50620e-02,1.60271e-01
2.54379e-02,1.51034e-01
2.58195e-02,1.42318e-01
2.62068e-02,1.34094e-01
2.65999e-02,1.26333e-01
2.69989e-02,1.19011e-01
2.74039e-02,1.12102e-01
2.78150e-02,1.05583e-01
2.82322e-02,9.94325e-02
2.86557e-02,9.36298e-02
2.90855e-02,8.81554e-02
2.95218e-02,8.29907e-02
2.99647e-02,7.81184e-02
3.04141e-02,7.35220e-02
3.08704e-02,6.91860e-02
3.13334e-02,6.50958e-02
3.18034e-02,6.12374e-02
3.22805e-02,5.75979e-02
3.27647e-02,5.41649e-02
3.32562e-02,5.09267e-02
3.37550e-02,4.78723e-02
3.42614e-02,4.49914e-02
3.47753e-02,4.22742e-02
3.52969e-02,3.97113e-02
3.58264e-02,3.72942e-02
3.63638e-02,3.50145e-02
3.69093e-02,3.28645e-02
3.74629e-02,3.08368e-02
3.80249e-02,2.89245e-02
3.85952e-02,2.71210e-02
3.91742e-02,2.54202e-02
3.97618e-02,2.38163e-02
4.03582e-02,2.23038e-02
4.09636e-02,2.08775e-02
4.15781e-02,1.95324e-02
4.22018e-02,1.82641e-02
4.28348e-02,1.70681e-02
4.34773e-02,1.59402e-02
4.41295e-02,1.48768e-02
4.47915e-02,1.38740e-02
4.54633e-02,1.29284e-02
4.61453e-02,1.20368e-02
4.68375e-02,1.11962e-02
4.75401e-02,1.04035e-02
4.82532e-02,9.65609e-03
4.89770e-02,8.95139e-03
4.97117e-02,8.28696e-03
5.04573e-02,7.66050e-03
5.12142e-02,7.06985e-03
5.19824e-02,6.51296e-03
5.27622e-02,5.98791e-03
5.35536e-02,5.49289e-03
5.43570e-02,5.02618e-03
5.51723e-02,4.58617e-03
5.59999e-02,4.17133e-03
5.68399e-02,3.78023e-03
5.76925e-02,3.41151e-03
5.85579e-02,3.06390e-03
5.94363e-02,2.73618e-03
6.03279e-02,2.42723e-03
6.12328e-02,2.13596e-03
6.21513e-02,1.86138e-03
6.30836e-02,1.60252e-03
6.40299e-02,1.35849e-03
6.49903e-02,1.12844e-03
6.59652e-02,9.11573e-04
6.69547e-02,7.07129e-04
6.79590e-02,5.14402e-04
6.89784e-02,3.32719e-04
7.00131e-02,1.61451e-04
7.10634e-02,0.00000e+00
