m1=61323.394, m2=8.133, gsp=2.298, rhosp=18.540
fGW[Hz],dPh[rad]
3.68611e-03,1.52749e+04
3.74149e-03,1.45849e+04
3.79772e-03,1.39241e+04
3.85478e-03,1.32916e+04
3.91271e-03,1.26860e+04
3.97150e-03,1.21065e+04
4.03118e-03,1.15519e+04
4.09175e-03,1.10212e+04
4.15324e-03,1.05136e+04
4.21564e-03,1.00280e+04
4.27899e-03,9.56352e+03
4.34329e-03,9.11942e+03
4.40855e-03,8.69480e+03
4.47480e-03,8.28889e+03
4.54204e-03,7.90091e+03
4.61029e-03,7.53013e+03
4.67957e-03,7.17583e+03
4.74988e-03,6.83734e+03
4.82126e-03,6.51400e+03
4.89370e-03,6.20517e+03
4.96724e-03,5.91025e+03
5.04188e-03,5.62865e+03
5.11764e-03,5.35981e+03
5.19454e-03,5.10319e+03
5.27260e-03,4.85827e+03
5.35182e-03,4.62455e+03
5.43224e-03,4.40155e+03
5.51387e-03,4.18881e+03
5.59672e-03,3.98588e+03
5.68082e-03,3.79235e+03
5.76619e-03,3.60780e+03
5.85283e-03,3.43184e+03
5.94078e-03,3.26409e+03
6.03005e-03,3.10419e+03
6.12066e-03,2.95180e+03
6.21263e-03,2.80658e+03
6.30598e-03,2.66822e+03
6.40074e-03,2.53641e+03
6.49692e-03,2.41085e+03
6.59455e-03,2.29126e+03
6.69364e-03,2.17738e+03
6.79422e-03,2.06895e+03
6.89631e-03,1.96572e+03
6.99994e-03,1.86745e+03
7.10513e-03,1.77392e+03
7.21189e-03,1.68491e+03
7.32026e-03,1.60020e+03
7.43026e-03,1.51961e+03
7.54191e-03,1.44295e+03
7.65524e-03,1.37002e+03
7.77027e-03,1.30066e+03
7.88703e-03,1.23470e+03
8.00554e-03,1.17197e+03
8.12584e-03,1.11234e+03
8.24794e-03,1.05565e+03
8.37188e-03,1.00176e+03
8.49768e-03,9.50539e+02
8.62537e-03,9.01863e+02
8.75497e-03,8.55609e+02
8.88653e-03,8.11661e+02
9.02006e-03,7.69909e+02
9.15560e-03,7.30246e+02
9.29318e-03,6.92573e+02
9.43282e-03,6.56793e+02
9.57456e-03,6.22814e+02
9.71844e-03,5.90548e+02
9.86447e-03,5.59913e+02
1.00127e-02,5.30829e+02
1.01632e-02,5.03220e+02
1.03159e-02,4.77013e+02
1.04709e-02,4.52139e+02
1.06282e-02,4.28533e+02
1.07879e-02,4.06133e+02
1.09500e-02,3.84877e+02
1.11146e-02,3.64711e+02
1.12816e-02,3.45578e+02
1.14511e-02,3.27429e+02
1.16232e-02,3.10213e+02
1.17978e-02,2.93885e+02
1.19751e-02,2.78399e+02
1.21551e-02,2.63713e+02
1.23377e-02,2.49787e+02
1.25231e-02,2.36583e+02
1.27113e-02,2.24064e+02
1.29023e-02,2.12195e+02
1.30962e-02,2.00944e+02
1.32929e-02,1.90278e+02
1.34927e-02,1.80169e+02
1.36954e-02,1.70588e+02
1.39012e-02,1.61508e+02
1.41101e-02,1.52903e+02
1.43221e-02,1.44748e+02
1.45373e-02,1.37022e+02
1.47558e-02,1.29701e+02
1.49775e-02,1.22766e+02
1.52026e-02,1.16195e+02
1.54310e-02,1.09970e+02
1.56629e-02,1.04074e+02
1.58983e-02,9.84887e+01
1.61371e-02,9.31987e+01
1.63796e-02,8.81885e+01
1.66258e-02,8.34435e+01
1.68756e-02,7.89500e+01
1.71292e-02,7.46948e+01
1.73866e-02,7.06654e+01
1.76478e-02,6.68502e+01
1.79130e-02,6.32378e+01
1.81822e-02,5.98176e+01
1.84554e-02,5.65796e+01
1.87327e-02,5.35142e+01
1.90142e-02,5.06123e+01
1.92999e-02,4.78653e+01
1.95899e-02,4.52650e+01
1.98843e-02,4.28038e+01
2.01831e-02,4.04742e+01
2.04864e-02,3.82693e+01
2.07942e-02,3.61826e+01
2.11067e-02,3.42077e+01
2.14238e-02,3.23388e+01
2.17457e-02,3.05701e+01
2.20725e-02,2.88965e+01
2.24042e-02,2.73128e+01
2.27408e-02,2.58143e+01
2.30825e-02,2.43964e+01
2.34294e-02,2.30548e+01
2.37814e-02,2.17855e+01
2.41388e-02,2.05845e+01
2.45015e-02,1.94484e+01
2.48697e-02,1.83735e+01
2.52434e-02,1.73567e+01
2.56227e-02,1.63947e+01
2.60077e-02,1.54848e+01
2.63985e-02,1.46240e+01
2.67952e-02,1.38098e+01
2.71978e-02,1.30396e+01
2.76065e-02,1.23111e+01
2.80214e-02,1.16221e+01
2.84424e-02,1.09704e+01
2.88698e-02,1.03540e+01
2.93036e-02,9.77099e+00
2.97440e-02,9.21963e+00
3.01909e-02,8.69819e+00
3.06446e-02,8.20505e+00
3.11050e-02,7.73869e+00
3.15724e-02,7.29767e+00
3.20469e-02,6.88060e+00
3.25284e-02,6.48621e+00
3.30172e-02,6.11326e+00
3.35133e-02,5.76059e+00
3.40169e-02,5.42711e+00
3.45281e-02,5.11179e+00
3.50469e-02,4.81363e+00
3.55735e-02,4.53170e+00
3.61081e-02,4.26514e+00
3.66507e-02,4.01309e+00
3.72014e-02,3.77479e+00
3.77604e-02,3.54948e+00
3.83278e-02,3.33645e+00
3.89037e-02,3.13504e+00
3.94883e-02,2.94463e+00
4.00817e-02,2.76460e+00
4.06840e-02,2.59440e+00
4.12953e-02,2.43349e+00
4.19158e-02,2.28138e+00
4.25457e-02,2.13757e+00
4.31850e-02,2.00161e+00
4.38339e-02,1.87309e+00
4.44926e-02,1.75159e+00
4.51611e-02,1.63673e+00
4.58398e-02,1.52816e+00
4.65286e-02,1.42552e+00
4.72277e-02,1.32850e+00
4.79374e-02,1.23678e+00
4.86577e-02,1.15008e+00
4.93889e-02,1.06813e+00
5.01310e-02,9.90665e-01
5.08843e-02,9.17440e-01
5.16489e-02,8.48225e-01
5.24250e-02,7.82800e-01
5.32128e-02,7.20958e-01
5.40124e-02,6.62505e-01
5.48240e-02,6.07254e-01
5.56478e-02,5.55031e-01
5.64840e-02,5.05670e-01
5.73327e-02,4.59014e-01
5.81943e-02,4.14917e-01
5.90687e-02,3.73237e-01
5.99563e-02,3.33842e-01
6.08572e-02,2.96608e-01
6.17717e-02,2.61416e-01
6.26999e-02,2.28155e-01
6.36421e-02,1.96718e-01
6.45984e-02,1.67006e-01
6.55691e-02,1.38925e-01
6.65543e-02,1.12384e-01
6.75544e-02,8.73006e-02
6.85695e-02,6.35937e-02
6.95999e-02,4.11882e-02
7.06457e-02,2.00128e-02
7.17073e-02,0.00000e+00
