m1=19946.475, m2=47.369, gsp=2.339, rhosp=2631.395
fGW[Hz],dPh[rad]
2.52152e-03,1.67078e+04
2.57883e-03,1.59165e+04
2.63743e-03,1.51621e+04
2.69737e-03,1.44430e+04
2.75867e-03,1.37575e+04
2.82137e-03,1.31040e+04
2.88549e-03,1.24811e+04
2.95107e-03,1.18874e+04
3.01813e-03,1.13214e+04
3.08673e-03,1.07819e+04
3.15688e-03,1.02677e+04
3.22862e-03,9.77760e+03
3.30200e-03,9.31046e+03
3.37704e-03,8.86523e+03
3.45379e-03,8.44090e+03
3.53228e-03,8.03648e+03
3.61256e-03,7.65106e+03
3.69466e-03,7.28374e+03
3.77863e-03,6.93370e+03
3.86450e-03,6.60012e+03
3.95233e-03,6.28224e+03
4.04215e-03,5.97933e+03
4.13402e-03,5.69069e+03
4.22797e-03,5.41566e+03
4.32405e-03,5.15360e+03
4.42233e-03,4.90392e+03
4.52283e-03,4.66603e+03
4.62562e-03,4.43938e+03
4.73074e-03,4.22346e+03
4.83826e-03,4.01776e+03
4.94821e-03,3.82180e+03
5.06067e-03,3.63513e+03
5.17568e-03,3.45732e+03
5.29331e-03,3.28795e+03
5.41360e-03,3.12664e+03
5.53664e-03,2.97299e+03
5.66247e-03,2.82666e+03
5.79115e-03,2.68731e+03
5.92277e-03,2.55460e+03
6.05737e-03,2.42823e+03
6.19503e-03,2.30789e+03
6.33583e-03,2.19332e+03
6.47982e-03,2.08423e+03
6.62708e-03,1.98038e+03
6.77769e-03,1.88151e+03
6.93173e-03,1.78739e+03
7.08926e-03,1.69780e+03
7.25037e-03,1.61252e+03
7.41515e-03,1.53136e+03
7.58367e-03,1.45412e+03
7.75602e-03,1.38062e+03
7.93229e-03,1.31068e+03
8.11256e-03,1.24413e+03
8.29693e-03,1.18081e+03
8.48549e-03,1.12057e+03
8.67834e-03,1.06327e+03
8.87557e-03,1.00876e+03
9.07728e-03,9.56924e+02
9.28358e-03,9.07622e+02
9.49456e-03,8.60739e+02
9.71034e-03,8.16160e+02
9.93102e-03,7.73776e+02
1.01567e-02,7.33482e+02
1.03875e-02,6.95180e+02
1.06236e-02,6.58775e+02
1.08651e-02,6.24177e+02
1.11120e-02,5.91299e+02
1.13645e-02,5.60060e+02
1.16228e-02,5.30381e+02
1.18869e-02,5.02187e+02
1.21571e-02,4.75409e+02
1.24334e-02,4.49977e+02
1.27159e-02,4.25828e+02
1.30049e-02,4.02899e+02
1.33005e-02,3.81133e+02
1.36028e-02,3.60472e+02
1.39119e-02,3.40864e+02
1.42281e-02,3.22258e+02
1.45514e-02,3.04606e+02
1.48821e-02,2.87860e+02
1.52204e-02,2.71977e+02
1.55663e-02,2.56915e+02
1.59200e-02,2.42635e+02
1.62818e-02,2.29097e+02
1.66519e-02,2.16266e+02
1.70303e-02,2.04106e+02
1.74174e-02,1.92585e+02
1.78132e-02,1.81672e+02
1.82180e-02,1.71335e+02
1.86321e-02,1.61548e+02
1.90555e-02,1.52282e+02
1.94886e-02,1.43511e+02
1.99315e-02,1.35212e+02
2.03844e-02,1.27359e+02
2.08477e-02,1.19932e+02
2.13215e-02,1.12907e+02
2.18061e-02,1.06266e+02
2.23017e-02,9.99885e+01
2.28085e-02,9.40560e+01
2.33269e-02,8.84511e+01
2.38570e-02,8.31569e+01
2.43992e-02,7.81576e+01
2.49537e-02,7.34379e+01
2.55208e-02,6.89834e+01
2.61008e-02,6.47804e+01
2.66940e-02,6.08156e+01
2.73006e-02,5.70766e+01
2.79211e-02,5.35516e+01
2.85556e-02,5.02292e+01
2.92046e-02,4.70988e+01
2.98683e-02,4.41500e+01
3.05471e-02,4.13732e+01
3.12414e-02,3.87592e+01
3.19514e-02,3.62991e+01
3.26775e-02,3.39846e+01
3.34202e-02,3.18078e+01
3.41797e-02,2.97611e+01
3.49565e-02,2.78373e+01
3.57509e-02,2.60297e+01
3.65634e-02,2.43318e+01
3.73944e-02,2.27374e+01
3.82442e-02,2.12407e+01
3.91134e-02,1.98362e+01
4.00023e-02,1.85187e+01
4.09114e-02,1.72832e+01
4.18412e-02,1.61249e+01
4.27921e-02,1.50395e+01
4.37646e-02,1.40226e+01
4.47592e-02,1.30703e+01
4.57765e-02,1.21788e+01
4.68168e-02,1.13444e+01
4.78808e-02,1.05638e+01
4.89689e-02,9.83382e+00
5.00818e-02,9.15130e+00
5.12200e-02,8.51342e+00
5.23841e-02,7.91746e+00
5.35746e-02,7.36086e+00
5.47922e-02,6.84118e+00
5.60374e-02,6.35615e+00
5.73109e-02,5.90360e+00
5.86134e-02,5.48149e+00
5.99455e-02,5.08792e+00
6.13079e-02,4.72107e+00
6.27012e-02,4.37923e+00
6.41262e-02,4.06081e+00
6.55835e-02,3.76430e+00
6.70740e-02,3.48826e+00
6.85984e-02,3.23138e+00
7.01574e-02,2.99240e+00
7.17518e-02,2.77013e+00
7.33825e-02,2.56347e+00
7.50502e-02,2.37139e+00
7.67558e-02,2.19290e+00
7.85002e-02,2.02709e+00
8.02843e-02,1.87311e+00
8.21089e-02,1.73015e+00
8.39749e-02,1.59746e+00
8.58834e-02,1.47433e+00
8.78352e-02,1.36011e+00
8.98314e-02,1.25419e+00
9.18730e-02,1.15597e+00
9.39609e-02,1.06493e+00
9.60963e-02,9.80569e-01
9.82803e-02,9.02406e-01
1.00514e-01,8.30007e-01
1.02798e-01,7.62962e-01
1.05134e-01,7.00891e-01
1.07524e-01,6.43436e-01
1.09967e-01,5.90267e-01
1.12467e-01,5.41073e-01
1.15023e-01,4.95569e-01
1.17637e-01,4.53485e-01
1.20310e-01,4.14572e-01
1.23044e-01,3.78599e-01
1.25841e-01,3.45349e-01
1.28701e-01,3.14623e-01
1.31626e-01,2.86234e-01
1.34617e-01,2.60008e-01
1.37676e-01,2.35786e-01
1.40805e-01,2.13417e-01
1.44005e-01,1.92764e-01
1.47278e-01,1.73698e-01
1.50625e-01,1.56099e-01
1.54048e-01,1.39858e-01
1.57549e-01,1.24871e-01
1.61130e-01,1.11044e-01
1.64792e-01,9.82889e-02
1.68537e-01,8.65241e-02
1.72367e-01,7.56740e-02
1.76285e-01,6.56689e-02
1.80291e-01,5.64441e-02
1.84388e-01,4.79398e-02
1.88579e-01,4.01006e-02
1.92865e-01,3.28753e-02
1.97248e-01,2.62166e-02
2.01730e-01,2.00806e-02
2.06315e-01,1.44269e-02
2.11004e-01,9.21823e-03
2.15799e-01,4.41989e-03
2.20704e-01,0.00000e+00
