m1=4819.101, m2=10.850, gsp=2.447, rhosp=159.000
fGW[Hz],dPh[rad]
6.25040e-03,1.14736e+05
6.40894e-03,1.08954e+05
6.57150e-03,1.03460e+05
6.73818e-03,9.82414e+04
6.90909e-03,9.32833e+04
7.08434e-03,8.85730e+04
7.26403e-03,8.40982e+04
7.44828e-03,7.98472e+04
7.63720e-03,7.58088e+04
7.83091e-03,7.19725e+04
8.02954e-03,6.83281e+04
8.23320e-03,6.48661e+04
8.44204e-03,6.15775e+04
8.65616e-03,5.84536e+04
8.87572e-03,5.54861e+04
9.10085e-03,5.26673e+04
9.33169e-03,4.99899e+04
9.56838e-03,4.74467e+04
9.81108e-03,4.50310e+04
1.00599e-02,4.27365e+04
1.03151e-02,4.05572e+04
1.05767e-02,3.84873e+04
1.08450e-02,3.65214e+04
1.11201e-02,3.46543e+04
1.14021e-02,3.28810e+04
1.16913e-02,3.11969e+04
1.19879e-02,2.95975e+04
1.22920e-02,2.80786e+04
1.26037e-02,2.66362e+04
1.29234e-02,2.52665e+04
1.32512e-02,2.39658e+04
1.35873e-02,2.27307e+04
1.39320e-02,2.15579e+04
1.42853e-02,2.04443e+04
1.46477e-02,1.93870e+04
1.50192e-02,1.83831e+04
1.54002e-02,1.74300e+04
1.57908e-02,1.65252e+04
1.61913e-02,1.56661e+04
1.66020e-02,1.48506e+04
1.70231e-02,1.40765e+04
1.74549e-02,1.33416e+04
1.78976e-02,1.26440e+04
1.83516e-02,1.19819e+04
1.88171e-02,1.13535e+04
1.92943e-02,1.07571e+04
1.97837e-02,1.01911e+04
2.02855e-02,9.65393e+03
2.08001e-02,9.14420e+03
2.13276e-02,8.66051e+03
2.18686e-02,8.20156e+03
2.24233e-02,7.76612e+03
2.29921e-02,7.35299e+03
2.35752e-02,6.96106e+03
2.41732e-02,6.58927e+03
2.47864e-02,6.23660e+03
2.54150e-02,5.90210e+03
2.60597e-02,5.58484e+03
2.67207e-02,5.28396e+03
2.73984e-02,4.99864e+03
2.80934e-02,4.72809e+03
2.88059e-02,4.47157e+03
2.95366e-02,4.22837e+03
3.02858e-02,3.99782e+03
3.10540e-02,3.77928e+03
3.18416e-02,3.57214e+03
3.26493e-02,3.37582e+03
3.34774e-02,3.18979e+03
3.43265e-02,3.01351e+03
3.51972e-02,2.84650e+03
3.60900e-02,2.68828e+03
3.70054e-02,2.53840e+03
3.79440e-02,2.39645e+03
3.89064e-02,2.26202e+03
3.98933e-02,2.13473e+03
4.09051e-02,2.01421e+03
4.19427e-02,1.90012e+03
4.30065e-02,1.79213e+03
4.40974e-02,1.68992e+03
4.52159e-02,1.59321e+03
4.63628e-02,1.50171e+03
4.75387e-02,1.41515e+03
4.87445e-02,1.33327e+03
4.99809e-02,1.25585e+03
5.12486e-02,1.18264e+03
5.25485e-02,1.11344e+03
5.38814e-02,1.04802e+03
5.52481e-02,9.86204e+02
5.66494e-02,9.27797e+02
5.80863e-02,8.72622e+02
5.95596e-02,8.20510e+02
6.10703e-02,7.71303e+02
6.26193e-02,7.24848e+02
6.42076e-02,6.81000e+02
6.58362e-02,6.39622e+02
6.75061e-02,6.00585e+02
6.92184e-02,5.63764e+02
7.09741e-02,5.29043e+02
7.27743e-02,4.96309e+02
7.46202e-02,4.65457e+02
7.65129e-02,4.36385e+02
7.84536e-02,4.09000e+02
8.04435e-02,3.83209e+02
8.24839e-02,3.58927e+02
8.45761e-02,3.36073e+02
8.67213e-02,3.14568e+02
8.89210e-02,2.94339e+02
9.11764e-02,2.75316e+02
9.34890e-02,2.57432e+02
9.58603e-02,2.40626e+02
9.82918e-02,2.24837e+02
1.00785e-01,2.10009e+02
1.03341e-01,1.96087e+02
1.05962e-01,1.83021e+02
1.08650e-01,1.70763e+02
1.11406e-01,1.59267e+02
1.14232e-01,1.48488e+02
1.17129e-01,1.38387e+02
1.20100e-01,1.28925e+02
1.23146e-01,1.20063e+02
1.26270e-01,1.11767e+02
1.29473e-01,1.04005e+02
1.32757e-01,9.67441e+01
1.36124e-01,8.99551e+01
1.39577e-01,8.36098e+01
1.43117e-01,7.76818e+01
1.46747e-01,7.21457e+01
1.50469e-01,6.69778e+01
1.54286e-01,6.21556e+01
1.58199e-01,5.76579e+01
1.62212e-01,5.34646e+01
1.66326e-01,4.95566e+01
1.70545e-01,4.59162e+01
1.74871e-01,4.25265e+01
1.79306e-01,3.93715e+01
1.83854e-01,3.64362e+01
1.88518e-01,3.37065e+01
1.93299e-01,3.11690e+01
1.98202e-01,2.88113e+01
2.03230e-01,2.66215e+01
2.08384e-01,2.45885e+01
2.13670e-01,2.27018e+01
2.19090e-01,2.09518e+01
2.24647e-01,1.93291e+01
2.30345e-01,1.78250e+01
2.36187e-01,1.64316e+01
2.42178e-01,1.51412e+01
2.48321e-01,1.39466e+01
2.54619e-01,1.28412e+01
2.61078e-01,1.18187e+01
2.67700e-01,1.08733e+01
2.74490e-01,9.99951e+00
2.81452e-01,9.19217e+00
2.88591e-01,8.44654e+00
2.95911e-01,7.75815e+00
3.03416e-01,7.12284e+00
3.11112e-01,6.53672e+00
3.19004e-01,5.99618e+00
3.27095e-01,5.49784e+00
3.35392e-01,5.03857e+00
3.43899e-01,4.61544e+00
3.52621e-01,4.22574e+00
3.61566e-01,3.86694e+00
3.70736e-01,3.53669e+00
3.80140e-01,3.23282e+00
3.89782e-01,2.95330e+00
3.99669e-01,2.69626e+00
4.09806e-01,2.45995e+00
4.20201e-01,2.24277e+00
4.30859e-01,2.04322e+00
4.41787e-01,1.85992e+00
4.52993e-01,1.69159e+00
4.64483e-01,1.53704e+00
4.76264e-01,1.39519e+00
4.88344e-01,1.26502e+00
5.00731e-01,1.14559e+00
5.13432e-01,1.03605e+00
5.26455e-01,9.35594e-01
5.39808e-01,8.43494e-01
5.53500e-01,7.59071e-01
5.67539e-01,6.81701e-01
5.81934e-01,6.10807e-01
5.96695e-01,5.45861e-01
6.11830e-01,4.86374e-01
6.27349e-01,4.31897e-01
6.43261e-01,3.82017e-01
6.59577e-01,3.36354e-01
6.76307e-01,2.94557e-01
6.93461e-01,2.56305e-01
7.11050e-01,2.21303e-01
7.29086e-01,1.89280e-01
7.47578e-01,1.59986e-01
7.66540e-01,1.33192e-01
7.85983e-01,1.08688e-01
8.05919e-01,8.62814e-02
8.26361e-01,6.57950e-02
8.47321e-01,4.70664e-02
8.68813e-01,2.99468e-02
8.90850e-01,1.42997e-02
9.13446e-01,0.00000e+00
