m1=38274.361, m2=19.920, gsp=2.336, rhosp=9688.001
fGW[Hz],dPh[rad]
2.96402e-03,7.23398e+04
3.01900e-03,6.91939e+04
3.07501e-03,6.61773e+04
3.13205e-03,6.32849e+04
3.19015e-03,6.05118e+04
3.24932e-03,5.78534e+04
3.30960e-03,5.53050e+04
3.37099e-03,5.28623e+04
3.43352e-03,5.05213e+04
3.49721e-03,4.82777e+04
3.56209e-03,4.61279e+04
3.62816e-03,4.40681e+04
3.69547e-03,4.20946e+04
3.76402e-03,4.02041e+04
3.83384e-03,3.83933e+04
3.90496e-03,3.66590e+04
3.97739e-03,3.49980e+04
4.05117e-03,3.34076e+04
4.12632e-03,3.18849e+04
4.20287e-03,3.04271e+04
4.28083e-03,2.90317e+04
4.36024e-03,2.76961e+04
4.44112e-03,2.64180e+04
4.52350e-03,2.51949e+04
4.60741e-03,2.40248e+04
4.69288e-03,2.29054e+04
4.77993e-03,2.18346e+04
4.86860e-03,2.08105e+04
4.95891e-03,1.98313e+04
5.05090e-03,1.88950e+04
5.14460e-03,1.79999e+04
5.24003e-03,1.71443e+04
5.33723e-03,1.63266e+04
5.43624e-03,1.55452e+04
5.53708e-03,1.47986e+04
5.63979e-03,1.40854e+04
5.74441e-03,1.34042e+04
5.85097e-03,1.27537e+04
5.95950e-03,1.21325e+04
6.07005e-03,1.15395e+04
6.18265e-03,1.09735e+04
6.29734e-03,1.04333e+04
6.41415e-03,9.91780e+03
6.53313e-03,9.42602e+03
6.65432e-03,8.95693e+03
6.77776e-03,8.50955e+03
6.90349e-03,8.08297e+03
7.03155e-03,7.67628e+03
7.16198e-03,7.28864e+03
7.29484e-03,6.91922e+03
7.43016e-03,6.56722e+03
7.56799e-03,6.23190e+03
7.70837e-03,5.91253e+03
7.85136e-03,5.60840e+03
7.99700e-03,5.31884e+03
8.14535e-03,5.04322e+03
8.29644e-03,4.78091e+03
8.45034e-03,4.53133e+03
8.60710e-03,4.29390e+03
8.76676e-03,4.06808e+03
8.92938e-03,3.85335e+03
9.09502e-03,3.64921e+03
9.26373e-03,3.45517e+03
9.43557e-03,3.27078e+03
9.61060e-03,3.09559e+03
9.78888e-03,2.92918e+03
9.97046e-03,2.77115e+03
1.01554e-02,2.62110e+03
1.03438e-02,2.47867e+03
1.05357e-02,2.34349e+03
1.07311e-02,2.21524e+03
1.09302e-02,2.09357e+03
1.11329e-02,1.97818e+03
1.13394e-02,1.86877e+03
1.15498e-02,1.76505e+03
1.17640e-02,1.66675e+03
1.19823e-02,1.57361e+03
1.22045e-02,1.48537e+03
1.24309e-02,1.40180e+03
1.26615e-02,1.32267e+03
1.28964e-02,1.24776e+03
1.31356e-02,1.17685e+03
1.33793e-02,1.10976e+03
1.36275e-02,1.04629e+03
1.38802e-02,9.86259e+02
1.41377e-02,9.29491e+02
1.44000e-02,8.75824e+02
1.46671e-02,8.25098e+02
1.49392e-02,7.77164e+02
1.52163e-02,7.31877e+02
1.54986e-02,6.89101e+02
1.57861e-02,6.48706e+02
1.60789e-02,6.10568e+02
1.63771e-02,5.74567e+02
1.66809e-02,5.40593e+02
1.69904e-02,5.08537e+02
1.73055e-02,4.78298e+02
1.76266e-02,4.49779e+02
1.79535e-02,4.22887e+02
1.82866e-02,3.97535e+02
1.86258e-02,3.73641e+02
1.89713e-02,3.51123e+02
1.93232e-02,3.29909e+02
1.96817e-02,3.09925e+02
2.00467e-02,2.91105e+02
2.04186e-02,2.73384e+02
2.07974e-02,2.56701e+02
2.11832e-02,2.40999e+02
2.15761e-02,2.26222e+02
2.19764e-02,2.12319e+02
2.23840e-02,1.99240e+02
2.27992e-02,1.86939e+02
2.32222e-02,1.75371e+02
2.36529e-02,1.64495e+02
2.40917e-02,1.54271e+02
2.45386e-02,1.44662e+02
2.49938e-02,1.35632e+02
2.54574e-02,1.27148e+02
2.59296e-02,1.19177e+02
2.64106e-02,1.11691e+02
2.69006e-02,1.04661e+02
2.73996e-02,9.80597e+01
2.79078e-02,9.18624e+01
2.84255e-02,8.60450e+01
2.89528e-02,8.05852e+01
2.94899e-02,7.54616e+01
3.00369e-02,7.06543e+01
3.05941e-02,6.61444e+01
3.11616e-02,6.19140e+01
3.17397e-02,5.79463e+01
3.23284e-02,5.42256e+01
3.29281e-02,5.07369e+01
3.35389e-02,4.74661e+01
3.41611e-02,4.44001e+01
3.47948e-02,4.15263e+01
3.54402e-02,3.88330e+01
3.60976e-02,3.63091e+01
3.67672e-02,3.39444e+01
3.74493e-02,3.17289e+01
3.81439e-02,2.96536e+01
3.88515e-02,2.77097e+01
3.95722e-02,2.58891e+01
4.03063e-02,2.41841e+01
4.10540e-02,2.25876e+01
4.18155e-02,2.10929e+01
4.25912e-02,1.96935e+01
4.33812e-02,1.83835e+01
4.41860e-02,1.71573e+01
4.50056e-02,1.60097e+01
4.58405e-02,1.49356e+01
4.66908e-02,1.39306e+01
4.75569e-02,1.29901e+01
4.84391e-02,1.21102e+01
4.93376e-02,1.12870e+01
5.02528e-02,1.05169e+01
5.11850e-02,9.79654e+00
5.21345e-02,9.12274e+00
5.31016e-02,8.49256e+00
5.40866e-02,7.90319e+00
5.50899e-02,7.35204e+00
5.61119e-02,6.83667e+00
5.71527e-02,6.35477e+00
5.82129e-02,5.90421e+00
5.92928e-02,5.48298e+00
6.03926e-02,5.08918e+00
6.15129e-02,4.72105e+00
6.26540e-02,4.37694e+00
6.38162e-02,4.05530e+00
6.50000e-02,3.75468e+00
6.62057e-02,3.47371e+00
6.74339e-02,3.21113e+00
6.86847e-02,2.96574e+00
6.99588e-02,2.73644e+00
7.12566e-02,2.52217e+00
7.25784e-02,2.32196e+00
7.39247e-02,2.13489e+00
7.52960e-02,1.96012e+00
7.66927e-02,1.79683e+00
7.81154e-02,1.64428e+00
7.95644e-02,1.50177e+00
8.10403e-02,1.36865e+00
8.25436e-02,1.24429e+00
8.40748e-02,1.12814e+00
8.56344e-02,1.01964e+00
8.72229e-02,9.18299e-01
8.88409e-02,8.23649e-01
9.04889e-02,7.35250e-01
9.21675e-02,6.52691e-01
9.38772e-02,5.75589e-01
9.56186e-02,5.03585e-01
9.73923e-02,4.36345e-01
9.91989e-02,3.73554e-01
1.01039e-01,3.14921e-01
1.02913e-01,2.60170e-01
1.04822e-01,2.09047e-01
1.06767e-01,1.61312e-01
1.08747e-01,1.16742e-01
1.10765e-01,7.51283e-02
1.12819e-01,3.62749e-02
1.14912e-01,0.00000e+00
