m1=1432.892, m2=24.566, gsp=2.359, rhosp=30.500
fGW[Hz],dPh[rad]
6.24170e-03,2.53484e+03
6.43943e-03,2.37450e+03
6.64342e-03,2.22430e+03
6.85388e-03,2.08360e+03
7.07100e-03,1.95179e+03
7.29500e-03,1.82832e+03
7.52609e-03,1.71265e+03
7.76451e-03,1.60430e+03
8.01048e-03,1.50279e+03
8.26424e-03,1.40771e+03
8.52603e-03,1.31864e+03
8.79613e-03,1.23520e+03
9.07478e-03,1.15703e+03
9.36225e-03,1.08381e+03
9.65883e-03,1.01522e+03
9.96481e-03,9.50968e+02
1.02805e-02,8.90777e+02
1.06062e-02,8.34393e+02
1.09421e-02,7.81575e+02
1.12888e-02,7.32097e+02
1.16464e-02,6.85748e+02
1.20153e-02,6.42330e+02
1.23960e-02,6.01658e+02
1.27886e-02,5.63558e+02
1.31938e-02,5.27869e+02
1.36117e-02,4.94436e+02
1.40429e-02,4.63119e+02
1.44878e-02,4.33782e+02
1.49467e-02,4.06301e+02
1.54202e-02,3.80558e+02
1.59087e-02,3.56444e+02
1.64127e-02,3.33856e+02
1.69326e-02,3.12696e+02
1.74690e-02,2.92875e+02
1.80224e-02,2.74308e+02
1.85933e-02,2.56916e+02
1.91823e-02,2.40625e+02
1.97900e-02,2.25364e+02
2.04169e-02,2.11069e+02
2.10637e-02,1.97679e+02
2.17310e-02,1.85136e+02
2.24194e-02,1.73388e+02
2.31296e-02,1.62382e+02
2.38623e-02,1.52074e+02
2.46182e-02,1.42418e+02
2.53981e-02,1.33373e+02
2.62027e-02,1.24901e+02
2.70327e-02,1.16965e+02
2.78891e-02,1.09532e+02
2.87726e-02,1.02570e+02
2.96840e-02,9.60486e+01
3.06244e-02,8.99403e+01
3.15945e-02,8.42189e+01
3.25954e-02,7.88600e+01
3.36280e-02,7.38407e+01
3.46933e-02,6.91394e+01
3.57923e-02,6.47360e+01
3.69261e-02,6.06118e+01
3.80959e-02,5.67489e+01
3.93027e-02,5.31310e+01
4.05478e-02,4.97425e+01
4.18323e-02,4.65689e+01
4.31575e-02,4.35966e+01
4.45246e-02,4.08128e+01
4.59351e-02,3.82056e+01
4.73903e-02,3.57639e+01
4.88915e-02,3.34772e+01
5.04403e-02,3.13357e+01
5.20382e-02,2.93301e+01
5.36867e-02,2.74519e+01
5.53874e-02,2.56930e+01
5.71420e-02,2.40458e+01
5.89522e-02,2.25034e+01
6.08197e-02,2.10590e+01
6.27464e-02,1.97064e+01
6.47341e-02,1.84399e+01
6.67848e-02,1.72539e+01
6.89004e-02,1.61434e+01
7.10831e-02,1.51037e+01
7.33349e-02,1.41301e+01
7.56580e-02,1.32185e+01
7.80548e-02,1.23651e+01
8.05274e-02,1.15660e+01
8.30784e-02,1.08179e+01
8.57102e-02,1.01176e+01
8.84254e-02,9.46193e+00
9.12266e-02,8.84814e+00
9.41165e-02,8.27357e+00
9.70980e-02,7.73573e+00
1.00174e-01,7.23228e+00
1.03347e-01,6.76105e+00
1.06621e-01,6.31999e+00
1.09999e-01,5.90718e+00
1.13483e-01,5.52084e+00
1.17078e-01,5.15927e+00
1.20787e-01,4.82092e+00
1.24614e-01,4.50430e+00
1.28561e-01,4.20802e+00
1.32634e-01,3.93081e+00
1.36835e-01,3.67144e+00
1.41170e-01,3.42879e+00
1.45642e-01,3.20178e+00
1.50256e-01,2.98942e+00
1.55016e-01,2.79079e+00
1.59927e-01,2.60500e+00
1.64993e-01,2.43124e+00
1.70220e-01,2.26874e+00
1.75612e-01,2.11678e+00
1.81175e-01,1.97469e+00
1.86914e-01,1.84185e+00
1.92836e-01,1.71765e+00
1.98944e-01,1.60155e+00
2.05247e-01,1.49304e+00
2.11748e-01,1.39162e+00
2.18456e-01,1.29684e+00
2.25377e-01,1.20828e+00
2.32516e-01,1.12553e+00
2.39882e-01,1.04823e+00
2.47481e-01,9.76031e-01
2.55321e-01,9.08597e-01
2.63409e-01,8.45626e-01
2.71754e-01,7.86830e-01
2.80362e-01,7.31941e-01
2.89244e-01,6.80706e-01
2.98407e-01,6.32891e-01
3.07860e-01,5.88275e-01
3.17612e-01,5.46650e-01
3.27674e-01,5.07823e-01
3.38054e-01,4.71613e-01
3.48763e-01,4.37850e-01
3.59811e-01,4.06376e-01
3.71210e-01,3.77041e-01
3.82969e-01,3.49705e-01
3.95101e-01,3.24239e-01
4.07617e-01,3.00521e-01
4.20530e-01,2.78435e-01
4.33852e-01,2.57875e-01
4.47596e-01,2.38740e-01
4.61775e-01,2.20937e-01
4.76403e-01,2.04377e-01
4.91495e-01,1.88979e-01
5.07065e-01,1.74665e-01
5.23128e-01,1.61363e-01
5.39700e-01,1.49006e-01
5.56797e-01,1.37531e-01
5.74435e-01,1.26878e-01
5.92632e-01,1.16992e-01
6.11406e-01,1.07821e-01
6.30775e-01,9.93173e-02
6.50757e-01,9.14351e-02
6.71372e-01,8.41321e-02
6.92640e-01,7.73686e-02
7.14581e-01,7.11075e-02
7.37218e-01,6.53141e-02
7.60572e-01,5.99559e-02
7.84666e-01,5.50026e-02
8.09523e-01,5.04259e-02
8.35168e-01,4.61992e-02
8.61625e-01,4.22978e-02
8.88920e-01,3.86985e-02
9.17079e-01,3.53798e-02
9.46131e-01,3.23214e-02
9.76103e-01,2.95045e-02
1.00702e+00,2.69114e-02
1.03893e+00,2.45259e-02
1.07184e+00,2.23325e-02
1.10579e+00,2.03171e-02
1.14082e+00,1.84662e-02
1.17696e+00,1.67675e-02
1.21425e+00,1.52095e-02
1.25271e+00,1.37814e-02
1.29240e+00,1.24732e-02
1.33334e+00,1.12757e-02
1.37557e+00,1.01801e-02
1.41915e+00,9.17837e-03
1.46411e+00,8.26316e-03
1.51049e+00,7.42751e-03
1.55834e+00,6.66501e-03
1.60770e+00,5.96970e-03
1.65863e+00,5.33608e-03
1.71118e+00,4.75905e-03
1.76538e+00,4.23391e-03
1.82131e+00,3.75629e-03
1.87901e+00,3.32217e-03
1.93853e+00,2.92786e-03
1.99994e+00,2.56991e-03
2.06330e+00,2.24519e-03
2.12866e+00,1.95079e-03
2.19609e+00,1.68405e-03
2.26566e+00,1.44251e-03
2.33743e+00,1.22392e-03
2.41148e+00,1.02622e-03
2.48787e+00,8.47513e-04
2.56668e+00,6.86068e-04
2.64799e+00,5.40298e-04
2.73188e+00,4.08753e-04
2.81842e+00,2.90108e-04
2.90770e+00,1.83153e-04
2.99981e+00,8.67851e-05
3.09484e+00,0.00000e+00
