m1=459934.285, m2=13.427, gsp=2.009, rhosp=1108.473
fGW[Hz],dPh[rad]
1.84562e-03,5.06888e+01
1.86094e-03,4.90634e+01
1.87638e-03,4.74897e+01
1.89196e-03,4.59662e+01
1.90766e-03,4.44912e+01
1.92349e-03,4.30631e+01
1.93946e-03,4.16807e+01
1.95555e-03,4.03422e+01
1.97178e-03,3.90465e+01
1.98815e-03,3.77921e+01
2.00465e-03,3.65777e+01
2.02129e-03,3.54020e+01
2.03806e-03,3.42639e+01
2.05498e-03,3.31621e+01
2.07203e-03,3.20955e+01
2.08923e-03,3.10630e+01
2.10657e-03,3.00634e+01
2.12405e-03,2.90958e+01
2.14168e-03,2.81592e+01
2.15946e-03,2.72524e+01
2.17738e-03,2.63747e+01
2.19545e-03,2.55250e+01
2.21367e-03,2.47025e+01
2.23205e-03,2.39063e+01
2.25057e-03,2.31356e+01
2.26925e-03,2.23896e+01
2.28808e-03,2.16674e+01
2.30707e-03,2.09684e+01
2.32622e-03,2.02917e+01
2.34553e-03,1.96367e+01
2.36499e-03,1.90027e+01
2.38462e-03,1.83891e+01
2.40441e-03,1.77951e+01
2.42437e-03,1.72201e+01
2.44449e-03,1.66635e+01
2.46478e-03,1.61248e+01
2.48524e-03,1.56034e+01
2.50586e-03,1.50987e+01
2.52666e-03,1.46102e+01
2.54763e-03,1.41374e+01
2.56877e-03,1.36798e+01
2.59009e-03,1.32368e+01
2.61159e-03,1.28080e+01
2.63327e-03,1.23931e+01
2.65512e-03,1.19914e+01
2.67716e-03,1.16026e+01
2.69938e-03,1.12264e+01
2.72178e-03,1.08622e+01
2.74437e-03,1.05097e+01
2.76715e-03,1.01686e+01
2.79011e-03,9.83837e+00
2.81327e-03,9.51879e+00
2.83662e-03,9.20949e+00
2.86016e-03,8.91013e+00
2.88390e-03,8.62040e+00
2.90784e-03,8.33999e+00
2.93197e-03,8.06860e+00
2.95630e-03,7.80593e+00
2.98084e-03,7.55172e+00
3.00558e-03,7.30569e+00
3.03052e-03,7.06757e+00
3.05568e-03,6.83712e+00
3.08104e-03,6.61409e+00
3.10661e-03,6.39823e+00
3.13239e-03,6.18933e+00
3.15839e-03,5.98715e+00
3.18460e-03,5.79149e+00
3.21103e-03,5.60212e+00
3.23769e-03,5.41886e+00
3.26456e-03,5.24150e+00
3.29165e-03,5.06985e+00
3.31897e-03,4.90374e+00
3.34652e-03,4.74297e+00
3.37429e-03,4.58739e+00
3.40230e-03,4.43683e+00
3.43053e-03,4.29111e+00
3.45901e-03,4.15010e+00
3.48771e-03,4.01363e+00
3.51666e-03,3.88156e+00
3.54585e-03,3.75375e+00
3.57528e-03,3.63006e+00
3.60495e-03,3.51036e+00
3.63487e-03,3.39453e+00
3.66504e-03,3.28243e+00
3.69546e-03,3.17394e+00
3.72613e-03,3.06896e+00
3.75705e-03,2.96736e+00
3.78823e-03,2.86905e+00
3.81968e-03,2.77390e+00
3.85138e-03,2.68183e+00
3.88334e-03,2.59273e+00
3.91557e-03,2.50650e+00
3.94807e-03,2.42306e+00
3.98084e-03,2.34231e+00
4.01388e-03,2.26417e+00
4.04719e-03,2.18856e+00
4.08078e-03,2.11538e+00
4.11465e-03,2.04457e+00
4.14880e-03,1.97605e+00
4.18323e-03,1.90973e+00
4.21795e-03,1.84557e+00
4.25296e-03,1.78347e+00
4.28826e-03,1.72338e+00
4.32385e-03,1.66523e+00
4.35973e-03,1.60896e+00
4.39592e-03,1.55451e+00
4.43240e-03,1.50182e+00
4.46919e-03,1.45083e+00
4.50628e-03,1.40149e+00
4.54368e-03,1.35375e+00
4.58139e-03,1.30755e+00
4.61942e-03,1.26284e+00
4.65776e-03,1.21958e+00
4.69641e-03,1.17771e+00
4.73539e-03,1.13720e+00
4.77469e-03,1.09800e+00
4.81432e-03,1.06007e+00
4.85428e-03,1.02336e+00
4.89457e-03,9.87844e-01
4.93519e-03,9.53474e-01
4.97615e-03,9.20216e-01
5.01745e-03,8.88033e-01
5.05909e-03,8.56891e-01
5.10108e-03,8.26757e-01
5.14342e-03,7.97598e-01
5.18611e-03,7.69382e-01
5.22915e-03,7.42079e-01
5.27255e-03,7.15659e-01
5.31631e-03,6.90094e-01
5.36043e-03,6.65357e-01
5.40492e-03,6.41420e-01
5.44978e-03,6.18258e-01
5.49501e-03,5.95845e-01
5.54062e-03,5.74158e-01
5.58660e-03,5.53173e-01
5.63297e-03,5.32867e-01
5.67972e-03,5.13218e-01
5.72686e-03,4.94205e-01
5.77439e-03,4.75808e-01
5.82231e-03,4.58007e-01
5.87064e-03,4.40782e-01
5.91936e-03,4.24114e-01
5.96849e-03,4.07986e-01
6.01803e-03,3.92381e-01
6.06797e-03,3.77280e-01
6.11833e-03,3.62669e-01
6.16911e-03,3.48531e-01
6.22031e-03,3.34851e-01
6.27194e-03,3.21613e-01
6.32400e-03,3.08805e-01
6.37648e-03,2.96411e-01
6.42940e-03,2.84419e-01
6.48277e-03,2.72815e-01
6.53657e-03,2.61587e-01
6.59082e-03,2.50723e-01
6.64552e-03,2.40211e-01
6.70068e-03,2.30039e-01
6.75629e-03,2.20197e-01
6.81236e-03,2.10674e-01
6.86890e-03,2.01459e-01
6.92591e-03,1.92542e-01
6.98340e-03,1.83915e-01
7.04136e-03,1.75567e-01
7.09980e-03,1.67490e-01
7.15872e-03,1.59674e-01
7.21814e-03,1.52112e-01
7.27804e-03,1.44795e-01
7.33845e-03,1.37715e-01
7.39935e-03,1.30864e-01
7.46077e-03,1.24235e-01
7.52269e-03,1.17821e-01
7.58512e-03,1.11615e-01
7.64808e-03,1.05611e-01
7.71155e-03,9.98004e-02
7.77555e-03,9.41785e-02
7.84009e-03,8.87388e-02
7.90516e-03,8.34755e-02
7.97077e-03,7.83827e-02
8.03692e-03,7.34551e-02
8.10362e-03,6.86872e-02
8.17088e-03,6.40739e-02
8.23870e-03,5.96101e-02
8.30707e-03,5.52910e-02
8.37602e-03,5.11120e-02
8.44554e-03,4.70684e-02
8.51563e-03,4.31559e-02
8.58631e-03,3.93703e-02
8.65757e-03,3.57074e-02
8.72942e-03,3.21633e-02
8.80188e-03,2.87341e-02
8.87493e-03,2.54161e-02
8.94859e-03,2.22057e-02
9.02286e-03,1.90994e-02
9.09774e-03,1.60938e-02
9.17325e-03,1.31857e-02
9.24938e-03,1.03719e-02
9.32615e-03,7.64931e-03
9.40355e-03,5.01503e-03
9.48160e-03,2.46619e-03
9.56029e-03,0.00000e+00
