m1=459734.731, m2=46.816, gsp=2.436, rhosp=5786.481
fGW[Hz],dPh[rad]
1.15555e-03,9.97876e+04
1.16789e-03,9.61607e+04
1.18036e-03,9.26622e+04
1.19296e-03,8.92879e+04
1.20570e-03,8.60334e+04
1.21858e-03,8.28946e+04
1.23159e-03,7.98677e+04
1.24474e-03,7.69487e+04
1.25803e-03,7.41338e+04
1.27146e-03,7.14196e+04
1.28503e-03,6.88025e+04
1.29876e-03,6.62792e+04
1.31262e-03,6.38463e+04
1.32664e-03,6.15008e+04
1.34080e-03,5.92396e+04
1.35512e-03,5.70598e+04
1.36959e-03,5.49585e+04
1.38421e-03,5.29330e+04
1.39899e-03,5.09806e+04
1.41393e-03,4.90988e+04
1.42902e-03,4.72851e+04
1.44428e-03,4.55370e+04
1.45970e-03,4.38523e+04
1.47529e-03,4.22287e+04
1.49104e-03,4.06641e+04
1.50696e-03,3.91564e+04
1.52305e-03,3.77035e+04
1.53931e-03,3.63036e+04
1.55575e-03,3.49547e+04
1.57236e-03,3.36550e+04
1.58915e-03,3.24028e+04
1.60612e-03,3.11964e+04
1.62327e-03,3.00341e+04
1.64060e-03,2.89144e+04
1.65811e-03,2.78357e+04
1.67582e-03,2.67966e+04
1.69371e-03,2.57956e+04
1.71180e-03,2.48314e+04
1.73007e-03,2.39027e+04
1.74855e-03,2.30081e+04
1.76722e-03,2.21465e+04
1.78608e-03,2.13166e+04
1.80516e-03,2.05174e+04
1.82443e-03,1.97476e+04
1.84391e-03,1.90063e+04
1.86360e-03,1.82924e+04
1.88350e-03,1.76049e+04
1.90361e-03,1.69429e+04
1.92393e-03,1.63053e+04
1.94447e-03,1.56914e+04
1.96523e-03,1.51003e+04
1.98622e-03,1.45312e+04
2.00743e-03,1.39831e+04
2.02886e-03,1.34554e+04
2.05052e-03,1.29474e+04
2.07242e-03,1.24583e+04
2.09454e-03,1.19873e+04
2.11691e-03,1.15340e+04
2.13951e-03,1.10975e+04
2.16235e-03,1.06773e+04
2.18544e-03,1.02728e+04
2.20878e-03,9.88337e+03
2.23236e-03,9.50852e+03
2.25620e-03,9.14768e+03
2.28029e-03,8.80034e+03
2.30463e-03,8.46600e+03
2.32924e-03,8.14417e+03
2.35411e-03,7.83441e+03
2.37925e-03,7.53626e+03
2.40465e-03,7.24928e+03
2.43032e-03,6.97308e+03
2.45627e-03,6.70725e+03
2.48250e-03,6.45139e+03
2.50901e-03,6.20516e+03
2.53580e-03,5.96818e+03
2.56287e-03,5.74011e+03
2.59024e-03,5.52062e+03
2.61789e-03,5.30940e+03
2.64584e-03,5.10613e+03
2.67409e-03,4.91052e+03
2.70265e-03,4.72228e+03
2.73150e-03,4.54114e+03
2.76067e-03,4.36684e+03
2.79014e-03,4.19911e+03
2.81994e-03,4.03771e+03
2.85004e-03,3.88241e+03
2.88047e-03,3.73298e+03
2.91123e-03,3.58919e+03
2.94231e-03,3.45084e+03
2.97373e-03,3.31773e+03
3.00548e-03,3.18965e+03
3.03757e-03,3.06642e+03
3.07000e-03,2.94785e+03
3.10278e-03,2.83378e+03
3.13591e-03,2.72402e+03
3.16940e-03,2.61843e+03
3.20324e-03,2.51684e+03
3.23744e-03,2.41910e+03
3.27201e-03,2.32508e+03
3.30694e-03,2.23461e+03
3.34225e-03,2.14759e+03
3.37794e-03,2.06387e+03
3.41400e-03,1.98332e+03
3.45046e-03,1.90584e+03
3.48730e-03,1.83131e+03
3.52453e-03,1.75960e+03
3.56216e-03,1.69063e+03
3.60020e-03,1.62427e+03
3.63864e-03,1.56044e+03
3.67749e-03,1.49904e+03
3.71675e-03,1.43998e+03
3.75644e-03,1.38317e+03
3.79655e-03,1.32852e+03
3.83708e-03,1.27595e+03
3.87805e-03,1.22538e+03
3.91946e-03,1.17675e+03
3.96131e-03,1.12996e+03
4.00361e-03,1.08496e+03
4.04635e-03,1.04168e+03
4.08956e-03,1.00004e+03
4.13322e-03,9.60001e+02
4.17735e-03,9.21485e+02
4.22196e-03,8.84439e+02
4.26703e-03,8.48807e+02
4.31260e-03,8.14537e+02
4.35864e-03,7.81575e+02
4.40518e-03,7.49872e+02
4.45222e-03,7.19381e+02
4.49975e-03,6.90055e+02
4.54780e-03,6.61850e+02
4.59636e-03,6.34723e+02
4.64543e-03,6.08633e+02
4.69503e-03,5.83542e+02
4.74516e-03,5.59410e+02
4.79583e-03,5.36201e+02
4.84703e-03,5.13880e+02
4.89879e-03,4.92414e+02
4.95109e-03,4.71769e+02
5.00396e-03,4.51914e+02
5.05739e-03,4.32820e+02
5.11138e-03,4.14457e+02
5.16596e-03,3.96797e+02
5.22112e-03,3.79814e+02
5.27687e-03,3.63481e+02
5.33321e-03,3.47774e+02
5.39015e-03,3.32669e+02
5.44770e-03,3.18143e+02
5.50587e-03,3.04174e+02
5.56466e-03,2.90740e+02
5.62407e-03,2.77822e+02
5.68412e-03,2.65398e+02
5.74481e-03,2.53452e+02
5.80615e-03,2.41963e+02
5.86815e-03,2.30916e+02
5.93080e-03,2.20292e+02
5.99413e-03,2.10076e+02
6.05813e-03,2.00251e+02
6.12281e-03,1.90804e+02
6.18819e-03,1.81720e+02
6.25426e-03,1.72984e+02
6.32104e-03,1.64584e+02
6.38853e-03,1.56506e+02
6.45674e-03,1.48738e+02
6.52568e-03,1.41269e+02
6.59536e-03,1.34087e+02
6.66578e-03,1.27180e+02
6.73695e-03,1.20539e+02
6.80888e-03,1.14153e+02
6.88158e-03,1.08012e+02
6.95506e-03,1.02108e+02
7.02932e-03,9.64301e+01
7.10437e-03,9.09706e+01
7.18023e-03,8.57210e+01
7.25689e-03,8.06731e+01
7.33438e-03,7.58193e+01
7.41269e-03,7.11522e+01
7.49183e-03,6.66645e+01
7.57183e-03,6.23494e+01
7.65267e-03,5.82002e+01
7.73438e-03,5.42106e+01
7.81696e-03,5.03745e+01
7.90043e-03,4.66859e+01
7.98478e-03,4.31392e+01
8.07004e-03,3.97290e+01
8.15620e-03,3.64499e+01
8.24329e-03,3.32971e+01
8.33130e-03,3.02656e+01
8.42026e-03,2.73507e+01
8.51017e-03,2.45480e+01
8.60103e-03,2.18532e+01
8.69287e-03,1.92621e+01
8.78568e-03,1.67707e+01
8.87949e-03,1.43753e+01
8.97430e-03,1.20720e+01
9.07012e-03,9.85749e+00
9.16696e-03,7.72820e+00
9.26484e-03,5.68090e+00
9.36376e-03,3.71244e+00
9.46374e-03,1.81977e+00
9.56479e-03,0.00000e+00
