m1=22056.856, m2=9.916, gsp=2.122, rhosp=52.044
fGW[Hz],dPh[rad]
4.41893e-03,6.37893e+02
4.50433e-03,6.07879e+02
4.59139e-03,5.79214e+02
4.68013e-03,5.51840e+02
4.77058e-03,5.25701e+02
4.86278e-03,5.00742e+02
4.95676e-03,4.76913e+02
5.05256e-03,4.54163e+02
5.15021e-03,4.32447e+02
5.24975e-03,4.11719e+02
5.35121e-03,3.91935e+02
5.45464e-03,3.73054e+02
5.56006e-03,3.55038e+02
5.66752e-03,3.37847e+02
5.77706e-03,3.21445e+02
5.88871e-03,3.05799e+02
6.00252e-03,2.90874e+02
6.11853e-03,2.76639e+02
6.23679e-03,2.63063e+02
6.35732e-03,2.50118e+02
6.48019e-03,2.37775e+02
6.60544e-03,2.26007e+02
6.73310e-03,2.14790e+02
6.86323e-03,2.04098e+02
6.99588e-03,1.93908e+02
7.13109e-03,1.84198e+02
7.26891e-03,1.74947e+02
7.40940e-03,1.66133e+02
7.55260e-03,1.57737e+02
7.69857e-03,1.49741e+02
7.84736e-03,1.42127e+02
7.99903e-03,1.34876e+02
8.15362e-03,1.27974e+02
8.31121e-03,1.21404e+02
8.47184e-03,1.15150e+02
8.63558e-03,1.09200e+02
8.80248e-03,1.03538e+02
8.97260e-03,9.81513e+01
9.14602e-03,9.30280e+01
9.32278e-03,8.81557e+01
9.50296e-03,8.35228e+01
9.68663e-03,7.91183e+01
9.87384e-03,7.49317e+01
1.00647e-02,7.09528e+01
1.02592e-02,6.71720e+01
1.04575e-02,6.35801e+01
1.06596e-02,6.01683e+01
1.08656e-02,5.69280e+01
1.10756e-02,5.38514e+01
1.12897e-02,5.09305e+01
1.15079e-02,4.81582e+01
1.17303e-02,4.55273e+01
1.19570e-02,4.30312e+01
1.21881e-02,4.06633e+01
1.24236e-02,3.84176e+01
1.26638e-02,3.62882e+01
1.29085e-02,3.42695e+01
1.31580e-02,3.23561e+01
1.34123e-02,3.05429e+01
1.36715e-02,2.88250e+01
1.39357e-02,2.71979e+01
1.42051e-02,2.56569e+01
1.44796e-02,2.41980e+01
1.47595e-02,2.28170e+01
1.50447e-02,2.15100e+01
1.53355e-02,2.02734e+01
1.56319e-02,1.91036e+01
1.59340e-02,1.79974e+01
1.62420e-02,1.69514e+01
1.65559e-02,1.59626e+01
1.68759e-02,1.50282e+01
1.72020e-02,1.41453e+01
1.75345e-02,1.33113e+01
1.78734e-02,1.25237e+01
1.82188e-02,1.17801e+01
1.85709e-02,1.10781e+01
1.89298e-02,1.04157e+01
1.92957e-02,9.79075e+00
1.96686e-02,9.20124e+00
2.00488e-02,8.64532e+00
2.04363e-02,8.12122e+00
2.08312e-02,7.62721e+00
2.12338e-02,7.16170e+00
2.16442e-02,6.72315e+00
2.20625e-02,6.31009e+00
2.24889e-02,5.92114e+00
2.29236e-02,5.55499e+00
2.33666e-02,5.21037e+00
2.38182e-02,4.88611e+00
2.42786e-02,4.58107e+00
2.47478e-02,4.29418e+00
2.52261e-02,4.02443e+00
2.57137e-02,3.77086e+00
2.62106e-02,3.53255e+00
2.67172e-02,3.30864e+00
2.72336e-02,3.09830e+00
2.77599e-02,2.90077e+00
2.82964e-02,2.71530e+00
2.88433e-02,2.54120e+00
2.94008e-02,2.37780e+00
2.99690e-02,2.22449e+00
3.05482e-02,2.08068e+00
3.11386e-02,1.94581e+00
3.17405e-02,1.81934e+00
3.23539e-02,1.70079e+00
3.29792e-02,1.58968e+00
3.36166e-02,1.48556e+00
3.42663e-02,1.38803e+00
3.49286e-02,1.29667e+00
3.56036e-02,1.21112e+00
3.62918e-02,1.13102e+00
3.69932e-02,1.05605e+00
3.77081e-02,9.85880e-01
3.84369e-02,9.20226e-01
3.91798e-02,8.58807e-01
3.99370e-02,8.01360e-01
4.07089e-02,7.47639e-01
4.14957e-02,6.97411e-01
4.22977e-02,6.50458e-01
4.31152e-02,6.06575e-01
4.39485e-02,5.65567e-01
4.47978e-02,5.27254e-01
4.56637e-02,4.91463e-01
4.65462e-02,4.58036e-01
4.74458e-02,4.26820e-01
4.83628e-02,3.97675e-01
4.92975e-02,3.70467e-01
5.02503e-02,3.45072e-01
5.12215e-02,3.21372e-01
5.22114e-02,2.99258e-01
5.32205e-02,2.78626e-01
5.42491e-02,2.59380e-01
5.52976e-02,2.41430e-01
5.63663e-02,2.24690e-01
5.74557e-02,2.09081e-01
5.85662e-02,1.94529e-01
5.96981e-02,1.80963e-01
6.08519e-02,1.68319e-01
6.20280e-02,1.56536e-01
6.32268e-02,1.45555e-01
6.44488e-02,1.35324e-01
6.56944e-02,1.25793e-01
6.69641e-02,1.16914e-01
6.82583e-02,1.08645e-01
6.95775e-02,1.00943e-01
7.09223e-02,9.37716e-02
7.22930e-02,8.70939e-02
7.36902e-02,8.08768e-02
7.51144e-02,7.50891e-02
7.65661e-02,6.97017e-02
7.80459e-02,6.46874e-02
7.95543e-02,6.00208e-02
8.10919e-02,5.56780e-02
8.26592e-02,5.16371e-02
8.42567e-02,4.78774e-02
8.58852e-02,4.43795e-02
8.75451e-02,4.11255e-02
8.92371e-02,3.80987e-02
9.09617e-02,3.52834e-02
9.27198e-02,3.26649e-02
9.45118e-02,3.02298e-02
9.63384e-02,2.79653e-02
9.82003e-02,2.58597e-02
1.00098e-01,2.39018e-02
1.02033e-01,2.20816e-02
1.04005e-01,2.03893e-02
1.06015e-01,1.88161e-02
1.08064e-01,1.73537e-02
1.10152e-01,1.59945e-02
1.12281e-01,1.47310e-02
1.14451e-01,1.35568e-02
1.16663e-01,1.24656e-02
1.18918e-01,1.14514e-02
1.21217e-01,1.05090e-02
1.23559e-01,9.63334e-03
1.25947e-01,8.81967e-03
1.28382e-01,8.06366e-03
1.30863e-01,7.36127e-03
1.33392e-01,6.70871e-03
1.35970e-01,6.10248e-03
1.38598e-01,5.53931e-03
1.41277e-01,5.01617e-03
1.44007e-01,4.53022e-03
1.46790e-01,4.07884e-03
1.49627e-01,3.65959e-03
1.52519e-01,3.27019e-03
1.55467e-01,2.90853e-03
1.58472e-01,2.57265e-03
1.61535e-01,2.26071e-03
1.64657e-01,1.97103e-03
1.67839e-01,1.70202e-03
1.71083e-01,1.45221e-03
1.74389e-01,1.22024e-03
1.77760e-01,1.00485e-03
1.81195e-01,8.04845e-04
1.84697e-01,6.19141e-04
1.88267e-01,4.46717e-04
1.91906e-01,2.86627e-04
1.95614e-01,1.37994e-04
1.99395e-01,0.00000e+00
