m1=1242.555, m2=6.861, gsp=2.352, rhosp=582.586
fGW[Hz],dPh[rad]
1.04202e-02,1.65275e+04
1.07300e-02,1.55395e+04
1.10490e-02,1.46104e+04
1.13775e-02,1.37368e+04
1.17158e-02,1.29154e+04
1.20641e-02,1.21429e+04
1.24228e-02,1.14166e+04
1.27922e-02,1.07337e+04
1.31726e-02,1.00915e+04
1.35642e-02,9.48766e+03
1.39675e-02,8.91988e+03
1.43828e-02,8.38599e+03
1.48104e-02,7.88399e+03
1.52508e-02,7.41197e+03
1.57042e-02,6.96814e+03
1.61712e-02,6.55081e+03
1.66520e-02,6.15841e+03
1.71471e-02,5.78945e+03
1.76569e-02,5.44252e+03
1.81819e-02,5.11633e+03
1.87225e-02,4.80962e+03
1.92791e-02,4.52123e+03
1.98524e-02,4.25008e+03
2.04426e-02,3.99514e+03
2.10504e-02,3.75542e+03
2.16763e-02,3.53004e+03
2.23208e-02,3.31813e+03
2.29845e-02,3.11888e+03
2.36679e-02,2.93155e+03
2.43716e-02,2.75542e+03
2.50962e-02,2.58982e+03
2.58424e-02,2.43413e+03
2.66107e-02,2.28775e+03
2.74019e-02,2.15012e+03
2.82167e-02,2.02073e+03
2.90556e-02,1.89908e+03
2.99195e-02,1.78472e+03
3.08091e-02,1.67719e+03
3.17251e-02,1.57611e+03
3.26684e-02,1.48108e+03
3.36397e-02,1.39173e+03
3.46399e-02,1.30774e+03
3.56699e-02,1.22878e+03
3.67304e-02,1.15456e+03
3.78225e-02,1.08478e+03
3.89471e-02,1.01918e+03
4.01051e-02,9.57517e+02
4.12975e-02,8.99552e+02
4.25254e-02,8.45064e+02
4.37898e-02,7.93845e+02
4.50917e-02,7.45700e+02
4.64324e-02,7.00446e+02
4.78130e-02,6.57909e+02
4.92346e-02,6.17927e+02
5.06985e-02,5.80348e+02
5.22059e-02,5.45027e+02
5.37581e-02,5.11830e+02
5.53564e-02,4.80630e+02
5.70023e-02,4.51307e+02
5.86972e-02,4.23750e+02
6.04424e-02,3.97852e+02
6.22395e-02,3.73514e+02
6.40900e-02,3.50642e+02
6.59956e-02,3.29150e+02
6.79578e-02,3.08955e+02
6.99784e-02,2.89978e+02
7.20590e-02,2.72148e+02
7.42015e-02,2.55394e+02
7.64077e-02,2.39653e+02
7.86795e-02,2.24865e+02
8.10189e-02,2.10972e+02
8.34278e-02,1.97920e+02
8.59083e-02,1.85659e+02
8.84626e-02,1.74141e+02
9.10928e-02,1.63323e+02
9.38012e-02,1.53161e+02
9.65902e-02,1.43617e+02
9.94620e-02,1.34654e+02
1.02419e-01,1.26236e+02
1.05464e-01,1.18332e+02
1.08600e-01,1.10909e+02
1.11829e-01,1.03939e+02
1.15154e-01,9.73958e+01
1.18578e-01,9.12525e+01
1.22104e-01,8.54853e+01
1.25734e-01,8.00717e+01
1.29472e-01,7.49903e+01
1.33322e-01,7.02212e+01
1.37286e-01,6.57454e+01
1.41368e-01,6.15454e+01
1.45571e-01,5.76045e+01
1.49899e-01,5.39070e+01
1.54356e-01,5.04383e+01
1.58946e-01,4.71844e+01
1.63671e-01,4.41325e+01
1.68538e-01,4.12703e+01
1.73549e-01,3.85863e+01
1.78709e-01,3.60697e+01
1.84022e-01,3.37103e+01
1.89494e-01,3.14987e+01
1.95128e-01,2.94258e+01
2.00930e-01,2.74831e+01
2.06904e-01,2.56629e+01
2.13056e-01,2.39575e+01
2.19390e-01,2.23601e+01
2.25913e-01,2.08640e+01
2.32630e-01,1.94629e+01
2.39547e-01,1.81512e+01
2.46669e-01,1.69233e+01
2.54004e-01,1.57741e+01
2.61556e-01,1.46988e+01
2.69333e-01,1.36927e+01
2.77340e-01,1.27517e+01
2.85587e-01,1.18716e+01
2.94078e-01,1.10489e+01
3.02821e-01,1.02798e+01
3.11825e-01,9.56108e+00
3.21096e-01,8.88959e+00
3.30643e-01,8.26239e+00
3.40474e-01,7.67671e+00
3.50598e-01,7.12995e+00
3.61022e-01,6.61967e+00
3.71756e-01,6.14358e+00
3.82809e-01,5.69951e+00
3.94191e-01,5.28544e+00
4.05911e-01,4.89947e+00
4.17980e-01,4.53981e+00
4.30408e-01,4.20478e+00
4.43205e-01,3.89280e+00
4.56382e-01,3.60240e+00
4.69952e-01,3.33217e+00
4.83925e-01,3.08082e+00
4.98313e-01,2.84712e+00
5.13129e-01,2.62991e+00
5.28386e-01,2.42812e+00
5.44096e-01,2.24073e+00
5.60274e-01,2.06678e+00
5.76932e-01,1.90539e+00
5.94086e-01,1.75571e+00
6.11749e-01,1.61696e+00
6.29938e-01,1.48841e+00
6.48668e-01,1.36935e+00
6.67954e-01,1.25915e+00
6.87815e-01,1.15719e+00
7.08265e-01,1.06291e+00
7.29324e-01,9.75775e-01
7.51008e-01,8.95282e-01
7.73338e-01,8.20967e-01
7.96331e-01,7.52392e-01
8.20008e-01,6.89149e-01
8.44389e-01,6.30854e-01
8.69495e-01,5.77151e-01
8.95347e-01,5.27705e-01
9.21968e-01,4.82206e-01
9.49381e-01,4.40361e-01
9.77608e-01,4.01900e-01
1.00667e+00,3.66568e-01
1.03661e+00,3.34131e-01
1.06743e+00,3.04368e-01
1.09916e+00,2.77074e-01
1.13185e+00,2.52060e-01
1.16550e+00,2.29147e-01
1.20015e+00,2.08172e-01
1.23583e+00,1.88982e-01
1.27258e+00,1.71434e-01
1.31042e+00,1.55398e-01
1.34938e+00,1.40751e-01
1.38950e+00,1.27381e-01
1.43081e+00,1.15183e-01
1.47335e+00,1.04060e-01
1.51716e+00,9.39229e-02
1.56227e+00,8.46896e-02
1.60872e+00,7.62837e-02
1.65655e+00,6.86352e-02
1.70581e+00,6.16792e-02
1.75652e+00,5.53563e-02
1.80875e+00,4.96117e-02
1.86253e+00,4.43951e-02
1.91791e+00,3.96601e-02
1.97493e+00,3.53642e-02
2.03365e+00,3.14686e-02
2.09412e+00,2.79375e-02
2.15638e+00,2.47382e-02
2.22049e+00,2.18407e-02
2.28651e+00,1.92177e-02
2.35450e+00,1.68440e-02
2.42450e+00,1.46969e-02
2.49659e+00,1.27554e-02
2.57082e+00,1.10006e-02
2.64726e+00,9.41492e-03
2.72597e+00,7.98269e-03
2.80702e+00,6.68947e-03
2.89048e+00,5.52214e-03
2.97642e+00,4.46878e-03
3.06492e+00,3.51856e-03
3.15604e+00,2.66162e-03
3.24988e+00,1.88904e-03
3.34651e+00,1.19270e-03
3.44601e+00,5.65242e-04
3.54847e+00,0.00000e+00
