m1=11321.920, m2=98.451, gsp=2.384, rhosp=190.084
fGW[Hz],dPh[rad]
2.20975e-03,5.92754e+03
2.26795e-03,5.61458e+03
2.32768e-03,5.31809e+03
2.38898e-03,5.03721e+03
2.45191e-03,4.77112e+03
2.51648e-03,4.51905e+03
2.58276e-03,4.28024e+03
2.65079e-03,4.05401e+03
2.72060e-03,3.83970e+03
2.79226e-03,3.63667e+03
2.86580e-03,3.44433e+03
2.94128e-03,3.26213e+03
3.01875e-03,3.08953e+03
3.09825e-03,2.92602e+03
3.17985e-03,2.77113e+03
3.26360e-03,2.62440e+03
3.34956e-03,2.48540e+03
3.43778e-03,2.35372e+03
3.52832e-03,2.22899e+03
3.62125e-03,2.11084e+03
3.71663e-03,1.99891e+03
3.81452e-03,1.89289e+03
3.91498e-03,1.79245e+03
4.01810e-03,1.69732e+03
4.12392e-03,1.60720e+03
4.23254e-03,1.52183e+03
4.34401e-03,1.44098e+03
4.45843e-03,1.36438e+03
4.57585e-03,1.29183e+03
4.69637e-03,1.22311e+03
4.82006e-03,1.15802e+03
4.94701e-03,1.09637e+03
5.07731e-03,1.03797e+03
5.21103e-03,9.82657e+02
5.34828e-03,9.30267e+02
5.48914e-03,8.80645e+02
5.63371e-03,8.33646e+02
5.78209e-03,7.89132e+02
5.93438e-03,7.46972e+02
6.09068e-03,7.07041e+02
6.25109e-03,6.69224e+02
6.41573e-03,6.33407e+02
6.58471e-03,5.99487e+02
6.75814e-03,5.67362e+02
6.93613e-03,5.36939e+02
7.11882e-03,5.08128e+02
7.30631e-03,4.80843e+02
7.49874e-03,4.55005e+02
7.69624e-03,4.30537e+02
7.89895e-03,4.07366e+02
8.10699e-03,3.85426e+02
8.32051e-03,3.64650e+02
8.53965e-03,3.44977e+02
8.76457e-03,3.26349e+02
8.99541e-03,3.08712e+02
9.23233e-03,2.92012e+02
9.47549e-03,2.76200e+02
9.72505e-03,2.61230e+02
9.98119e-03,2.47057e+02
1.02441e-02,2.33638e+02
1.05139e-02,2.20935e+02
1.07908e-02,2.08909e+02
1.10750e-02,1.97525e+02
1.13667e-02,1.86749e+02
1.16661e-02,1.76548e+02
1.19733e-02,1.66892e+02
1.22887e-02,1.57753e+02
1.26123e-02,1.49102e+02
1.29445e-02,1.40915e+02
1.32854e-02,1.33167e+02
1.36354e-02,1.25834e+02
1.39945e-02,1.18895e+02
1.43631e-02,1.12328e+02
1.47414e-02,1.06114e+02
1.51296e-02,1.00235e+02
1.55281e-02,9.46723e+01
1.59371e-02,8.94094e+01
1.63568e-02,8.44303e+01
1.67876e-02,7.97200e+01
1.72298e-02,7.52644e+01
1.76836e-02,7.10498e+01
1.81493e-02,6.70635e+01
1.86273e-02,6.32934e+01
1.91179e-02,5.97279e+01
1.96215e-02,5.63562e+01
2.01382e-02,5.31680e+01
2.06686e-02,5.01536e+01
2.12130e-02,4.73036e+01
2.17717e-02,4.46093e+01
2.23451e-02,4.20624e+01
2.29337e-02,3.96551e+01
2.35377e-02,3.73799e+01
2.41576e-02,3.52298e+01
2.47939e-02,3.31980e+01
2.54469e-02,3.12783e+01
2.61171e-02,2.94646e+01
2.68050e-02,2.77513e+01
2.75110e-02,2.61329e+01
2.82355e-02,2.46045e+01
2.89792e-02,2.31611e+01
2.97424e-02,2.17983e+01
3.05258e-02,2.05116e+01
3.13298e-02,1.92970e+01
3.21549e-02,1.81505e+01
3.30018e-02,1.70686e+01
3.38710e-02,1.60477e+01
3.47631e-02,1.50845e+01
3.56787e-02,1.41759e+01
3.66184e-02,1.33189e+01
3.75829e-02,1.25108e+01
3.85727e-02,1.17488e+01
3.95886e-02,1.10305e+01
4.06313e-02,1.03535e+01
4.17014e-02,9.71554e+00
4.27998e-02,9.11444e+00
4.39270e-02,8.54821e+00
4.50840e-02,8.01493e+00
4.62714e-02,7.51279e+00
4.74901e-02,7.04008e+00
4.87409e-02,6.59516e+00
5.00246e-02,6.17649e+00
5.13421e-02,5.78263e+00
5.26944e-02,5.41218e+00
5.40822e-02,5.06385e+00
5.55066e-02,4.73639e+00
5.69686e-02,4.42864e+00
5.84690e-02,4.13948e+00
6.00089e-02,3.86787e+00
6.15894e-02,3.61282e+00
6.32116e-02,3.37338e+00
6.48764e-02,3.14867e+00
6.65851e-02,2.93784e+00
6.83388e-02,2.74010e+00
7.01387e-02,2.55469e+00
7.19860e-02,2.38090e+00
7.38820e-02,2.21806e+00
7.58279e-02,2.06554e+00
7.78250e-02,1.92271e+00
7.98748e-02,1.78902e+00
8.19785e-02,1.66393e+00
8.41376e-02,1.54693e+00
8.63537e-02,1.43753e+00
8.86280e-02,1.33528e+00
9.09623e-02,1.23975e+00
9.33580e-02,1.15054e+00
9.58169e-02,1.06725e+00
9.83405e-02,9.89527e-01
1.00931e-01,9.17031e-01
1.03589e-01,8.49436e-01
1.06317e-01,7.86437e-01
1.09117e-01,7.27747e-01
1.11991e-01,6.73095e-01
1.14941e-01,6.22225e-01
1.17968e-01,5.74897e-01
1.21075e-01,5.30882e-01
1.24264e-01,4.89968e-01
1.27537e-01,4.51952e-01
1.30896e-01,4.16646e-01
1.34343e-01,3.83871e-01
1.37882e-01,3.53459e-01
1.41513e-01,3.25254e-01
1.45240e-01,2.99106e-01
1.49066e-01,2.74877e-01
1.52992e-01,2.52436e-01
1.57021e-01,2.31660e-01
1.61157e-01,2.12436e-01
1.65401e-01,1.94654e-01
1.69758e-01,1.78215e-01
1.74229e-01,1.63023e-01
1.78818e-01,1.48991e-01
1.83527e-01,1.36035e-01
1.88361e-01,1.24079e-01
1.93322e-01,1.13049e-01
1.98414e-01,1.02879e-01
2.03639e-01,9.35056e-02
2.09003e-01,8.48700e-02
2.14508e-01,7.69175e-02
2.20157e-01,6.95971e-02
2.25956e-01,6.28613e-02
2.31907e-01,5.66659e-02
2.38015e-01,5.09698e-02
2.44284e-01,4.57349e-02
2.50718e-01,4.09256e-02
2.57321e-01,3.65090e-02
2.64098e-01,3.24545e-02
2.71054e-01,2.87338e-02
2.78193e-01,2.53206e-02
2.85520e-01,2.21907e-02
2.93040e-01,1.93214e-02
3.00758e-01,1.66920e-02
3.08679e-01,1.42831e-02
3.16809e-01,1.20771e-02
3.25153e-01,1.00574e-02
3.33717e-01,8.20888e-03
3.42507e-01,6.51751e-03
3.51527e-01,4.97040e-03
3.60786e-01,3.55563e-03
3.70288e-01,2.26224e-03
3.80041e-01,1.08013e-03
3.90050e-01,0.00000e+00
