m1=2341.130, m2=3.677, gsp=2.328, rhosp=219.018
fGW[Hz],dPh[rad]
1.12326e-02,2.79958e+04
1.15253e-02,2.64936e+04
1.18257e-02,2.50714e+04
1.21339e-02,2.37249e+04
1.24502e-02,2.24501e+04
1.27746e-02,2.12432e+04
1.31076e-02,2.01006e+04
1.34492e-02,1.90188e+04
1.37997e-02,1.79947e+04
1.41594e-02,1.70252e+04
1.45284e-02,1.61074e+04
1.49071e-02,1.52385e+04
1.52956e-02,1.44160e+04
1.56942e-02,1.36373e+04
1.61033e-02,1.29003e+04
1.65229e-02,1.22025e+04
1.69536e-02,1.15421e+04
1.73954e-02,1.09169e+04
1.78488e-02,1.03252e+04
1.83140e-02,9.76504e+03
1.87913e-02,9.23488e+03
1.92810e-02,8.73309e+03
1.97836e-02,8.25816e+03
2.02992e-02,7.80865e+03
2.08282e-02,7.38323e+03
2.13711e-02,6.98061e+03
2.19280e-02,6.59957e+03
2.24995e-02,6.23898e+03
2.30859e-02,5.89774e+03
2.36876e-02,5.57482e+03
2.43050e-02,5.26925e+03
2.49384e-02,4.98011e+03
2.55884e-02,4.70652e+03
2.62553e-02,4.44765e+03
2.69396e-02,4.20272e+03
2.76417e-02,3.97099e+03
2.83621e-02,3.75176e+03
2.91013e-02,3.54435e+03
2.98597e-02,3.34814e+03
3.06380e-02,3.16254e+03
3.14365e-02,2.98696e+03
3.22558e-02,2.82090e+03
3.30964e-02,2.66382e+03
3.39590e-02,2.51526e+03
3.48441e-02,2.37476e+03
3.57522e-02,2.24188e+03
3.66840e-02,2.11623e+03
3.76401e-02,1.99742e+03
3.86211e-02,1.88507e+03
3.96276e-02,1.77885e+03
4.06604e-02,1.67842e+03
4.17202e-02,1.58348e+03
4.28075e-02,1.49374e+03
4.39232e-02,1.40890e+03
4.50679e-02,1.32872e+03
4.62425e-02,1.25294e+03
4.74477e-02,1.18133e+03
4.86843e-02,1.11365e+03
4.99532e-02,1.04971e+03
5.12551e-02,9.89296e+02
5.25909e-02,9.32221e+02
5.39616e-02,8.78306e+02
5.53679e-02,8.27380e+02
5.68110e-02,7.79283e+02
5.82916e-02,7.33862e+02
5.98108e-02,6.90972e+02
6.13697e-02,6.50477e+02
6.29691e-02,6.12247e+02
6.46103e-02,5.76160e+02
6.62942e-02,5.42099e+02
6.80220e-02,5.09955e+02
6.97948e-02,4.79624e+02
7.16138e-02,4.51007e+02
7.34803e-02,4.24011e+02
7.53953e-02,3.98548e+02
7.73603e-02,3.74534e+02
7.93766e-02,3.51889e+02
8.14453e-02,3.30540e+02
8.35680e-02,3.10416e+02
8.57460e-02,2.91448e+02
8.79807e-02,2.73574e+02
9.02738e-02,2.56733e+02
9.26265e-02,2.40870e+02
9.50406e-02,2.25928e+02
9.75176e-02,2.11859e+02
1.00059e-01,1.98613e+02
1.02667e-01,1.86145e+02
1.05343e-01,1.74412e+02
1.08088e-01,1.63372e+02
1.10905e-01,1.52987e+02
1.13796e-01,1.43221e+02
1.16762e-01,1.34038e+02
1.19805e-01,1.25406e+02
1.22927e-01,1.17294e+02
1.26131e-01,1.09672e+02
1.29418e-01,1.02513e+02
1.32791e-01,9.57901e+01
1.36252e-01,8.94789e+01
1.39803e-01,8.35557e+01
1.43447e-01,7.79981e+01
1.47185e-01,7.27853e+01
1.51021e-01,6.78972e+01
1.54957e-01,6.33151e+01
1.58996e-01,5.90212e+01
1.63140e-01,5.49986e+01
1.67392e-01,5.12315e+01
1.71754e-01,4.77047e+01
1.76231e-01,4.44041e+01
1.80824e-01,4.13163e+01
1.85536e-01,3.84286e+01
1.90372e-01,3.57290e+01
1.95334e-01,3.32062e+01
2.00425e-01,3.08494e+01
2.05648e-01,2.86487e+01
2.11008e-01,2.65944e+01
2.16507e-01,2.46776e+01
2.22150e-01,2.28898e+01
2.27940e-01,2.12230e+01
2.33880e-01,1.96696e+01
2.39976e-01,1.82225e+01
2.46230e-01,1.68750e+01
2.52648e-01,1.56208e+01
2.59232e-01,1.44539e+01
2.65989e-01,1.33687e+01
2.72921e-01,1.23599e+01
2.80034e-01,1.14225e+01
2.87332e-01,1.05520e+01
2.94821e-01,9.74379e+00
3.02505e-01,8.99383e+00
3.10389e-01,8.29822e+00
3.18479e-01,7.65330e+00
3.26779e-01,7.05565e+00
3.35296e-01,6.50204e+00
3.44034e-01,5.98947e+00
3.53001e-01,5.51510e+00
3.62201e-01,5.07628e+00
3.71641e-01,4.67053e+00
3.81327e-01,4.29551e+00
3.91265e-01,3.94906e+00
4.01462e-01,3.62913e+00
4.11925e-01,3.33382e+00
4.22661e-01,3.06136e+00
4.33677e-01,2.81009e+00
4.44980e-01,2.57845e+00
4.56577e-01,2.36500e+00
4.68477e-01,2.16840e+00
4.80686e-01,1.98739e+00
4.93214e-01,1.82079e+00
5.06069e-01,1.66753e+00
5.19258e-01,1.52658e+00
5.32791e-01,1.39702e+00
5.46677e-01,1.27797e+00
5.60925e-01,1.16861e+00
5.75544e-01,1.06819e+00
5.90544e-01,9.76019e-01
6.05935e-01,8.91446e-01
6.21728e-01,8.13871e-01
6.37932e-01,7.42741e-01
6.54558e-01,6.77540e-01
6.71617e-01,6.17795e-01
6.89121e-01,5.63067e-01
7.07082e-01,5.12949e-01
7.25510e-01,4.67068e-01
7.44419e-01,4.25078e-01
7.63820e-01,3.86660e-01
7.83727e-01,3.51520e-01
8.04153e-01,3.19387e-01
8.25111e-01,2.90011e-01
8.46616e-01,2.63164e-01
8.68681e-01,2.38634e-01
8.91321e-01,2.16226e-01
9.14551e-01,1.95762e-01
9.38387e-01,1.77077e-01
9.62843e-01,1.60020e-01
9.87938e-01,1.44454e-01
1.01369e+00,1.30250e-01
1.04011e+00,1.17293e-01
1.06721e+00,1.05475e-01
1.09503e+00,9.46982e-02
1.12357e+00,8.48727e-02
1.15285e+00,7.59160e-02
1.18290e+00,6.77529e-02
1.21373e+00,6.03143e-02
1.24536e+00,5.35369e-02
1.27782e+00,4.73631e-02
1.31112e+00,4.17398e-02
1.34529e+00,3.66188e-02
1.38035e+00,3.19559e-02
1.41633e+00,2.77106e-02
1.45324e+00,2.38462e-02
1.49111e+00,2.03288e-02
1.52998e+00,1.71277e-02
1.56985e+00,1.42148e-02
1.61077e+00,1.15644e-02
1.65275e+00,9.15324e-03
1.69582e+00,6.95988e-03
1.74002e+00,4.96486e-03
1.78537e+00,3.15043e-03
1.83190e+00,1.50040e-03
1.87964e+00,0.00000e+00
