m1=49992.672, m2=61.960, gsp=2.169, rhosp=1874.383
fGW[Hz],dPh[rad]
1.81180e-03,1.24279e+03
1.84750e-03,1.18674e+03
1.88390e-03,1.13313e+03
1.92102e-03,1.08187e+03
1.95888e-03,1.03286e+03
1.99748e-03,9.86001e+02
2.03684e-03,9.41198e+02
2.07697e-03,8.98364e+02
2.11790e-03,8.57416e+02
2.15963e-03,8.18270e+02
2.20219e-03,7.80851e+02
2.24558e-03,7.45083e+02
2.28983e-03,7.10895e+02
2.33495e-03,6.78219e+02
2.38096e-03,6.46990e+02
2.42787e-03,6.17145e+02
2.47572e-03,5.88625e+02
2.52450e-03,5.61372e+02
2.57424e-03,5.35332e+02
2.62497e-03,5.10451e+02
2.67669e-03,4.86680e+02
2.72944e-03,4.63971e+02
2.78322e-03,4.42278e+02
2.83806e-03,4.21556e+02
2.89398e-03,4.01764e+02
2.95101e-03,3.82860e+02
3.00916e-03,3.64807e+02
3.06845e-03,3.47567e+02
3.12892e-03,3.31105e+02
3.19057e-03,3.15387e+02
3.25344e-03,3.00381e+02
3.31755e-03,2.86054e+02
3.38292e-03,2.72379e+02
3.44958e-03,2.59326e+02
3.51755e-03,2.46868e+02
3.58687e-03,2.34979e+02
3.65754e-03,2.23633e+02
3.72961e-03,2.12808e+02
3.80311e-03,2.02480e+02
3.87804e-03,1.92627e+02
3.95446e-03,1.83229e+02
4.03238e-03,1.74265e+02
4.11184e-03,1.65716e+02
4.19286e-03,1.57563e+02
4.27548e-03,1.49790e+02
4.35973e-03,1.42379e+02
4.44564e-03,1.35315e+02
4.53324e-03,1.28581e+02
4.62256e-03,1.22164e+02
4.71365e-03,1.16048e+02
4.80653e-03,1.10221e+02
4.90124e-03,1.04670e+02
4.99782e-03,9.93817e+01
5.09630e-03,9.43449e+01
5.19672e-03,8.95483e+01
5.29912e-03,8.49810e+01
5.40354e-03,8.06326e+01
5.51001e-03,7.64932e+01
5.61859e-03,7.25534e+01
5.72930e-03,6.88041e+01
5.84220e-03,6.52366e+01
5.95731e-03,6.18426e+01
6.07470e-03,5.86142e+01
6.19440e-03,5.55438e+01
6.31646e-03,5.26242e+01
6.44093e-03,4.98484e+01
6.56784e-03,4.72097e+01
6.69726e-03,4.47019e+01
6.82923e-03,4.23188e+01
6.96380e-03,4.00546e+01
7.10102e-03,3.79039e+01
7.24094e-03,3.58612e+01
7.38362e-03,3.39216e+01
7.52911e-03,3.20802e+01
7.67747e-03,3.03323e+01
7.82875e-03,2.86735e+01
7.98302e-03,2.70996e+01
8.14032e-03,2.56066e+01
8.30072e-03,2.41905e+01
8.46429e-03,2.28477e+01
8.63107e-03,2.15747e+01
8.80115e-03,2.03681e+01
8.97457e-03,1.92247e+01
9.15141e-03,1.81414e+01
9.33174e-03,1.71152e+01
9.51562e-03,1.61435e+01
9.70312e-03,1.52234e+01
9.89432e-03,1.43525e+01
1.00893e-02,1.35282e+01
1.02881e-02,1.27484e+01
1.04908e-02,1.20108e+01
1.06975e-02,1.13132e+01
1.09083e-02,1.06536e+01
1.11233e-02,1.00302e+01
1.13425e-02,9.44099e+00
1.15660e-02,8.88434e+00
1.17939e-02,8.35857e+00
1.20263e-02,7.86206e+00
1.22632e-02,7.39332e+00
1.25049e-02,6.95089e+00
1.27513e-02,6.53341e+00
1.30025e-02,6.13957e+00
1.32587e-02,5.76812e+00
1.35200e-02,5.41787e+00
1.37864e-02,5.08771e+00
1.40581e-02,4.77656e+00
1.43351e-02,4.48340e+00
1.46176e-02,4.20726e+00
1.49056e-02,3.94722e+00
1.51993e-02,3.70239e+00
1.54988e-02,3.47196e+00
1.58042e-02,3.25513e+00
1.61156e-02,3.05114e+00
1.64332e-02,2.85929e+00
1.67570e-02,2.67890e+00
1.70872e-02,2.50933e+00
1.74239e-02,2.34997e+00
1.77672e-02,2.20024e+00
1.81173e-02,2.05959e+00
1.84743e-02,1.92751e+00
1.88383e-02,1.80350e+00
1.92095e-02,1.68711e+00
1.95881e-02,1.57788e+00
1.99740e-02,1.47541e+00
2.03676e-02,1.37929e+00
2.07690e-02,1.28916e+00
2.11782e-02,1.20466e+00
2.15955e-02,1.12546e+00
2.20210e-02,1.05125e+00
2.24550e-02,9.81720e-01
2.28974e-02,9.16596e-01
2.33486e-02,8.55611e-01
2.38087e-02,7.98516e-01
2.42778e-02,7.45073e-01
2.47562e-02,6.95061e-01
2.52441e-02,6.48268e-01
2.57415e-02,6.04497e-01
2.62487e-02,5.63561e-01
2.67659e-02,5.25285e-01
2.72933e-02,4.89502e-01
2.78312e-02,4.56057e-01
2.83796e-02,4.24804e-01
2.89388e-02,3.95604e-01
2.95090e-02,3.68328e-01
3.00905e-02,3.42854e-01
3.06834e-02,3.19067e-01
3.12880e-02,2.96859e-01
3.19045e-02,2.76129e-01
3.25332e-02,2.56783e-01
3.31743e-02,2.38730e-01
3.38279e-02,2.21888e-01
3.44945e-02,2.06177e-01
3.51742e-02,1.91525e-01
3.58673e-02,1.77861e-01
3.65741e-02,1.65122e-01
3.72948e-02,1.53246e-01
3.80296e-02,1.42177e-01
3.87790e-02,1.31861e-01
3.95431e-02,1.22248e-01
4.03223e-02,1.13293e-01
4.11169e-02,1.04950e-01
4.19271e-02,9.71791e-02
4.27532e-02,8.99422e-02
4.35957e-02,8.32033e-02
4.44547e-02,7.69289e-02
4.53307e-02,7.10877e-02
4.62239e-02,6.56504e-02
4.71347e-02,6.05898e-02
4.80635e-02,5.58801e-02
4.90106e-02,5.14977e-02
4.99763e-02,4.74202e-02
5.09611e-02,4.36268e-02
5.19653e-02,4.00980e-02
5.29892e-02,3.68157e-02
5.40334e-02,3.37630e-02
5.50981e-02,3.09242e-02
5.61838e-02,2.82844e-02
5.72909e-02,2.58300e-02
5.84198e-02,2.35481e-02
5.95709e-02,2.14268e-02
6.07448e-02,1.94549e-02
6.19417e-02,1.76221e-02
6.31623e-02,1.59187e-02
6.44069e-02,1.43357e-02
6.56760e-02,1.28647e-02
6.69701e-02,1.14979e-02
6.82897e-02,1.02279e-02
6.96354e-02,9.04799e-03
7.10075e-02,7.95189e-03
7.24067e-02,6.93368e-03
7.38335e-02,5.98789e-03
7.52883e-02,5.10943e-03
7.67719e-02,4.29354e-03
7.82846e-02,3.53582e-03
7.98272e-02,2.83217e-03
8.14002e-02,2.17875e-03
8.30042e-02,1.57201e-03
8.46397e-02,1.00866e-03
8.63075e-02,4.85607e-04
8.80082e-02,0.00000e+00
