m1=355194.576, m2=4.024, gsp=2.391, rhosp=29.527
fGW[Hz],dPh[rad]
3.09345e-03,1.31097e+04
3.11508e-03,1.27720e+04
3.13687e-03,1.24430e+04
3.15880e-03,1.21223e+04
3.18089e-03,1.18098e+04
3.20314e-03,1.15054e+04
3.22553e-03,1.12087e+04
3.24809e-03,1.09196e+04
3.27080e-03,1.06379e+04
3.29368e-03,1.03634e+04
3.31671e-03,1.00959e+04
3.33990e-03,9.83527e+03
3.36326e-03,9.58131e+03
3.38678e-03,9.33384e+03
3.41046e-03,9.09271e+03
3.43431e-03,8.85775e+03
3.45832e-03,8.62880e+03
3.48251e-03,8.40572e+03
3.50686e-03,8.18834e+03
3.53138e-03,7.97652e+03
3.55608e-03,7.77013e+03
3.58095e-03,7.56902e+03
3.60599e-03,7.37306e+03
3.63120e-03,7.18212e+03
3.65660e-03,6.99606e+03
3.68217e-03,6.81477e+03
3.70791e-03,6.63812e+03
3.73384e-03,6.46599e+03
3.75995e-03,6.29828e+03
3.78625e-03,6.13485e+03
3.81272e-03,5.97562e+03
3.83939e-03,5.82046e+03
3.86623e-03,5.66927e+03
3.89327e-03,5.52196e+03
3.92050e-03,5.37842e+03
3.94791e-03,5.23856e+03
3.97552e-03,5.10228e+03
4.00332e-03,4.96949e+03
4.03131e-03,4.84011e+03
4.05950e-03,4.71404e+03
4.08789e-03,4.59120e+03
4.11648e-03,4.47151e+03
4.14526e-03,4.35488e+03
4.17425e-03,4.24125e+03
4.20344e-03,4.13052e+03
4.23283e-03,4.02263e+03
4.26243e-03,3.91751e+03
4.29224e-03,3.81509e+03
4.32226e-03,3.71528e+03
4.35248e-03,3.61804e+03
4.38292e-03,3.52329e+03
4.41357e-03,3.43097e+03
4.44443e-03,3.34101e+03
4.47551e-03,3.25336e+03
4.50681e-03,3.16796e+03
4.53832e-03,3.08475e+03
4.57006e-03,3.00367e+03
4.60202e-03,2.92467e+03
4.63420e-03,2.84769e+03
4.66660e-03,2.77269e+03
4.69924e-03,2.69961e+03
4.73210e-03,2.62841e+03
4.76519e-03,2.55903e+03
4.79851e-03,2.49144e+03
4.83207e-03,2.42557e+03
4.86586e-03,2.36139e+03
4.89988e-03,2.29887e+03
4.93415e-03,2.23794e+03
4.96865e-03,2.17858e+03
5.00340e-03,2.12074e+03
5.03838e-03,2.06438e+03
5.07362e-03,2.00947e+03
5.10910e-03,1.95597e+03
5.14482e-03,1.90384e+03
5.18080e-03,1.85304e+03
5.21703e-03,1.80356e+03
5.25351e-03,1.75534e+03
5.29025e-03,1.70835e+03
5.32724e-03,1.66258e+03
5.36450e-03,1.61797e+03
5.40201e-03,1.57452e+03
5.43978e-03,1.53217e+03
5.47782e-03,1.49092e+03
5.51613e-03,1.45072e+03
5.55470e-03,1.41155e+03
5.59355e-03,1.37339e+03
5.63266e-03,1.33621e+03
5.67205e-03,1.29998e+03
5.71171e-03,1.26469e+03
5.75166e-03,1.23029e+03
5.79188e-03,1.19679e+03
5.83238e-03,1.16414e+03
5.87316e-03,1.13233e+03
5.91423e-03,1.10133e+03
5.95559e-03,1.07113e+03
5.99724e-03,1.04171e+03
6.03918e-03,1.01304e+03
6.08141e-03,9.85107e+02
6.12393e-03,9.57891e+02
6.16676e-03,9.31375e+02
6.20988e-03,9.05538e+02
6.25331e-03,8.80366e+02
6.29703e-03,8.55839e+02
6.34107e-03,8.31942e+02
6.38541e-03,8.08659e+02
6.43006e-03,7.85973e+02
6.47503e-03,7.63870e+02
6.52031e-03,7.42334e+02
6.56590e-03,7.21352e+02
6.61182e-03,7.00908e+02
6.65805e-03,6.80989e+02
6.70461e-03,6.61581e+02
6.75150e-03,6.42672e+02
6.79871e-03,6.24248e+02
6.84625e-03,6.06298e+02
6.89413e-03,5.88808e+02
6.94234e-03,5.71768e+02
6.99088e-03,5.55165e+02
7.03977e-03,5.38989e+02
7.08900e-03,5.23228e+02
7.13857e-03,5.07872e+02
7.18849e-03,4.92910e+02
7.23876e-03,4.78332e+02
7.28938e-03,4.64129e+02
7.34035e-03,4.50291e+02
7.39168e-03,4.36808e+02
7.44337e-03,4.23671e+02
7.49542e-03,4.10872e+02
7.54784e-03,3.98401e+02
7.60062e-03,3.86251e+02
7.65377e-03,3.74413e+02
7.70729e-03,3.62879e+02
7.76118e-03,3.51641e+02
7.81546e-03,3.40692e+02
7.87011e-03,3.30024e+02
7.92514e-03,3.19630e+02
7.98056e-03,3.09504e+02
8.03637e-03,2.99637e+02
8.09257e-03,2.90024e+02
8.14916e-03,2.80658e+02
8.20615e-03,2.71532e+02
8.26353e-03,2.62641e+02
8.32132e-03,2.53978e+02
8.37951e-03,2.45538e+02
8.43810e-03,2.37314e+02
8.49711e-03,2.29302e+02
8.55653e-03,2.21496e+02
8.61636e-03,2.13890e+02
8.67662e-03,2.06480e+02
8.73729e-03,1.99260e+02
8.79839e-03,1.92226e+02
8.85992e-03,1.85372e+02
8.92187e-03,1.78695e+02
8.98426e-03,1.72189e+02
9.04709e-03,1.65850e+02
9.11035e-03,1.59674e+02
9.17406e-03,1.53657e+02
9.23821e-03,1.47794e+02
9.30281e-03,1.42082e+02
9.36787e-03,1.36517e+02
9.43338e-03,1.31095e+02
9.49934e-03,1.25812e+02
9.56577e-03,1.20665e+02
9.63266e-03,1.15650e+02
9.70002e-03,1.10764e+02
9.76785e-03,1.06004e+02
9.83616e-03,1.01366e+02
9.90494e-03,9.68467e+01
9.97421e-03,9.24439e+01
1.00440e-02,8.81543e+01
1.01142e-02,8.39749e+01
1.01849e-02,7.99029e+01
1.02561e-02,7.59356e+01
1.03279e-02,7.20702e+01
1.04001e-02,6.83042e+01
1.04728e-02,6.46349e+01
1.05460e-02,6.10600e+01
1.06198e-02,5.75769e+01
1.06941e-02,5.41834e+01
1.07688e-02,5.08770e+01
1.08441e-02,4.76557e+01
1.09200e-02,4.45171e+01
1.09963e-02,4.14592e+01
1.10732e-02,3.84799e+01
1.11507e-02,3.55772e+01
1.12286e-02,3.27491e+01
1.13072e-02,2.99937e+01
1.13862e-02,2.73091e+01
1.14659e-02,2.46935e+01
1.15460e-02,2.21451e+01
1.16268e-02,1.96622e+01
1.17081e-02,1.72432e+01
1.17899e-02,1.48863e+01
1.18724e-02,1.25900e+01
1.19554e-02,1.03527e+01
1.20390e-02,8.17296e+00
1.21232e-02,6.04923e+00
1.22080e-02,3.98009e+00
1.22934e-02,1.96413e+00
1.23793e-02,0.00000e+00
