m1=115668.552, m2=24.834, gsp=2.477, rhosp=156.974
fGW[Hz],dPh[rad]
2.06955e-03,2.99278e+05
2.10004e-03,2.86808e+05
2.13098e-03,2.74823e+05
2.16238e-03,2.63304e+05
2.19424e-03,2.52236e+05
2.22657e-03,2.41601e+05
2.25938e-03,2.31384e+05
2.29267e-03,2.21571e+05
2.32645e-03,2.12146e+05
2.36073e-03,2.03097e+05
2.39551e-03,1.94408e+05
2.43081e-03,1.86066e+05
2.46662e-03,1.78060e+05
2.50297e-03,1.70377e+05
2.53985e-03,1.63004e+05
2.57727e-03,1.55930e+05
2.61525e-03,1.49145e+05
2.65378e-03,1.42636e+05
2.69288e-03,1.36395e+05
2.73256e-03,1.30410e+05
2.77282e-03,1.24672e+05
2.81368e-03,1.19172e+05
2.85513e-03,1.13900e+05
2.89720e-03,1.08848e+05
2.93989e-03,1.04008e+05
2.98321e-03,9.93702e+04
3.02716e-03,9.49280e+04
3.07177e-03,9.06734e+04
3.11703e-03,8.65991e+04
3.16295e-03,8.26981e+04
3.20956e-03,7.89634e+04
3.25685e-03,7.53885e+04
3.30484e-03,7.19671e+04
3.35353e-03,6.86930e+04
3.40294e-03,6.55603e+04
3.45308e-03,6.25633e+04
3.50396e-03,5.96965e+04
3.55559e-03,5.69547e+04
3.60798e-03,5.43328e+04
3.66114e-03,5.18259e+04
3.71509e-03,4.94292e+04
3.76982e-03,4.71382e+04
3.82537e-03,4.49486e+04
3.88173e-03,4.28561e+04
3.93893e-03,4.08567e+04
3.99697e-03,3.89466e+04
4.05586e-03,3.71218e+04
4.11562e-03,3.53790e+04
4.17626e-03,3.37146e+04
4.23779e-03,3.21252e+04
4.30024e-03,3.06078e+04
4.36360e-03,2.91591e+04
4.42789e-03,2.77763e+04
4.49313e-03,2.64566e+04
4.55934e-03,2.51972e+04
4.62651e-03,2.39954e+04
4.69468e-03,2.28489e+04
4.76386e-03,2.17552e+04
4.83405e-03,2.07119e+04
4.90528e-03,1.97169e+04
4.97755e-03,1.87680e+04
5.05089e-03,1.78633e+04
5.12531e-03,1.70007e+04
5.20083e-03,1.61784e+04
5.27746e-03,1.53945e+04
5.35522e-03,1.46474e+04
5.43413e-03,1.39354e+04
5.51420e-03,1.32570e+04
5.59544e-03,1.26106e+04
5.67789e-03,1.19947e+04
5.76155e-03,1.14081e+04
5.84644e-03,1.08493e+04
5.93258e-03,1.03171e+04
6.02000e-03,9.81024e+03
6.10870e-03,9.32761e+03
6.19870e-03,8.86808e+03
6.29004e-03,8.43058e+03
6.38272e-03,8.01409e+03
6.47676e-03,7.61764e+03
6.57219e-03,7.24030e+03
6.66903e-03,6.88117e+03
6.76729e-03,6.53942e+03
6.86700e-03,6.21422e+03
6.96819e-03,5.90481e+03
7.07086e-03,5.61043e+03
7.17504e-03,5.33038e+03
7.28076e-03,5.06399e+03
7.38804e-03,4.81061e+03
7.49689e-03,4.56961e+03
7.60736e-03,4.34042e+03
7.71945e-03,4.12247e+03
7.83319e-03,3.91523e+03
7.94860e-03,3.71818e+03
8.06572e-03,3.53083e+03
8.18456e-03,3.35272e+03
8.30516e-03,3.18341e+03
8.42753e-03,3.02247e+03
8.55170e-03,2.86950e+03
8.67771e-03,2.72411e+03
8.80557e-03,2.58594e+03
8.93531e-03,2.45463e+03
9.06696e-03,2.32986e+03
9.20056e-03,2.21129e+03
9.33612e-03,2.09865e+03
9.47369e-03,1.99162e+03
9.61327e-03,1.88994e+03
9.75492e-03,1.79335e+03
9.89865e-03,1.70160e+03
1.00445e-02,1.61444e+03
1.01925e-02,1.53166e+03
1.03427e-02,1.45303e+03
1.04951e-02,1.37836e+03
1.06497e-02,1.30745e+03
1.08066e-02,1.24011e+03
1.09659e-02,1.17616e+03
1.11274e-02,1.11544e+03
1.12914e-02,1.05778e+03
1.14578e-02,1.00304e+03
1.16266e-02,9.51070e+02
1.17979e-02,9.01729e+02
1.19717e-02,8.54888e+02
1.21481e-02,8.10423e+02
1.23271e-02,7.68213e+02
1.25087e-02,7.28147e+02
1.26930e-02,6.90117e+02
1.28801e-02,6.54021e+02
1.30698e-02,6.19762e+02
1.32624e-02,5.87247e+02
1.34578e-02,5.56390e+02
1.36561e-02,5.27105e+02
1.38573e-02,4.99315e+02
1.40615e-02,4.72944e+02
1.42687e-02,4.47920e+02
1.44789e-02,4.24175e+02
1.46923e-02,4.01645e+02
1.49088e-02,3.80267e+02
1.51284e-02,3.59984e+02
1.53513e-02,3.40741e+02
1.55775e-02,3.22483e+02
1.58071e-02,3.05162e+02
1.60400e-02,2.88730e+02
1.62763e-02,2.73142e+02
1.65161e-02,2.58354e+02
1.67595e-02,2.44326e+02
1.70064e-02,2.31019e+02
1.72570e-02,2.18397e+02
1.75113e-02,2.06424e+02
1.77693e-02,1.95067e+02
1.80311e-02,1.84296e+02
1.82968e-02,1.74079e+02
1.85664e-02,1.64389e+02
1.88399e-02,1.55199e+02
1.91175e-02,1.46483e+02
1.93992e-02,1.38216e+02
1.96850e-02,1.30377e+02
1.99751e-02,1.22942e+02
2.02694e-02,1.15891e+02
2.05681e-02,1.09205e+02
2.08711e-02,1.02864e+02
2.11786e-02,9.68515e+01
2.14907e-02,9.11497e+01
2.18073e-02,8.57430e+01
2.21287e-02,8.06162e+01
2.24547e-02,7.57548e+01
2.27856e-02,7.11452e+01
2.31213e-02,6.67745e+01
2.34620e-02,6.26302e+01
2.38077e-02,5.87008e+01
2.41585e-02,5.49751e+01
2.45144e-02,5.14426e+01
2.48756e-02,4.80934e+01
2.52421e-02,4.49180e+01
2.56141e-02,4.19074e+01
2.59915e-02,3.90531e+01
2.63744e-02,3.63470e+01
2.67630e-02,3.37815e+01
2.71574e-02,3.13493e+01
2.75575e-02,2.90434e+01
2.79636e-02,2.68574e+01
2.83756e-02,2.47850e+01
2.87937e-02,2.28204e+01
2.92179e-02,2.09580e+01
2.96485e-02,1.91924e+01
3.00853e-02,1.75187e+01
3.05286e-02,1.59320e+01
3.09784e-02,1.44280e+01
3.14349e-02,1.30022e+01
3.18980e-02,1.16507e+01
3.23680e-02,1.03695e+01
3.28449e-02,9.15510e+00
3.33289e-02,8.00392e+00
3.38200e-02,6.91271e+00
3.43183e-02,5.87836e+00
3.48239e-02,4.89791e+00
3.53370e-02,3.96856e+00
3.58577e-02,3.08765e+00
3.63860e-02,2.25267e+00
3.69222e-02,1.46122e+00
3.74662e-02,7.11049e-01
3.80182e-02,0.00000e+00
