m1=285461.765, m2=5.283, gsp=2.271, rhosp=15.100
fGW[Hz],dPh[rad]
2.95010e-03,1.87439e+03
2.97471e-03,1.81631e+03
2.99952e-03,1.76001e+03
3.02453e-03,1.70545e+03
3.04976e-03,1.65257e+03
3.07519e-03,1.60132e+03
3.10084e-03,1.55165e+03
3.12670e-03,1.50351e+03
3.15277e-03,1.45686e+03
3.17907e-03,1.41164e+03
3.20558e-03,1.36783e+03
3.23232e-03,1.32536e+03
3.25927e-03,1.28420e+03
3.28645e-03,1.24432e+03
3.31386e-03,1.20566e+03
3.34150e-03,1.16820e+03
3.36937e-03,1.13189e+03
3.39747e-03,1.09671e+03
3.42580e-03,1.06261e+03
3.45437e-03,1.02957e+03
3.48318e-03,9.97549e+02
3.51223e-03,9.66517e+02
3.54152e-03,9.36443e+02
3.57106e-03,9.07299e+02
3.60084e-03,8.79056e+02
3.63087e-03,8.51687e+02
3.66115e-03,8.25163e+02
3.69168e-03,7.99460e+02
3.72247e-03,7.74552e+02
3.75352e-03,7.50415e+02
3.78482e-03,7.27024e+02
3.81639e-03,7.04358e+02
3.84821e-03,6.82392e+02
3.88031e-03,6.61107e+02
3.91267e-03,6.40480e+02
3.94530e-03,6.20492e+02
3.97820e-03,6.01123e+02
4.01138e-03,5.82353e+02
4.04484e-03,5.64165e+02
4.07857e-03,5.46540e+02
4.11258e-03,5.29461e+02
4.14688e-03,5.12912e+02
4.18147e-03,4.96875e+02
4.21634e-03,4.81334e+02
4.25150e-03,4.66276e+02
4.28696e-03,4.51684e+02
4.32271e-03,4.37544e+02
4.35876e-03,4.23843e+02
4.39511e-03,4.10566e+02
4.43177e-03,3.97702e+02
4.46873e-03,3.85235e+02
4.50600e-03,3.73156e+02
4.54358e-03,3.61451e+02
4.58147e-03,3.50109e+02
4.61968e-03,3.39119e+02
4.65821e-03,3.28470e+02
4.69705e-03,3.18152e+02
4.73623e-03,3.08153e+02
4.77573e-03,2.98465e+02
4.81556e-03,2.89077e+02
4.85572e-03,2.79981e+02
4.89621e-03,2.71167e+02
4.93705e-03,2.62626e+02
4.97822e-03,2.54351e+02
5.01974e-03,2.46333e+02
5.06160e-03,2.38563e+02
5.10381e-03,2.31035e+02
5.14638e-03,2.23741e+02
5.18930e-03,2.16673e+02
5.23258e-03,2.09824e+02
5.27622e-03,2.03189e+02
5.32022e-03,1.96759e+02
5.36459e-03,1.90529e+02
5.40933e-03,1.84493e+02
5.45444e-03,1.78644e+02
5.49993e-03,1.72977e+02
5.54580e-03,1.67486e+02
5.59205e-03,1.62166e+02
5.63869e-03,1.57011e+02
5.68571e-03,1.52016e+02
5.73313e-03,1.47176e+02
5.78095e-03,1.42487e+02
5.82916e-03,1.37944e+02
5.87777e-03,1.33542e+02
5.92679e-03,1.29276e+02
5.97622e-03,1.25144e+02
6.02606e-03,1.21139e+02
6.07632e-03,1.17260e+02
6.12699e-03,1.13501e+02
6.17809e-03,1.09858e+02
6.22962e-03,1.06330e+02
6.28157e-03,1.02910e+02
6.33396e-03,9.95976e+01
6.38678e-03,9.63878e+01
6.44005e-03,9.32778e+01
6.49375e-03,9.02646e+01
6.54791e-03,8.73452e+01
6.60252e-03,8.45165e+01
6.65758e-03,8.17759e+01
6.71311e-03,7.91205e+01
6.76909e-03,7.65478e+01
6.82555e-03,7.40551e+01
6.88247e-03,7.16400e+01
6.93987e-03,6.93000e+01
6.99775e-03,6.70328e+01
7.05611e-03,6.48363e+01
7.11495e-03,6.27080e+01
7.17429e-03,6.06460e+01
7.23412e-03,5.86482e+01
7.29446e-03,5.67126e+01
7.35529e-03,5.48372e+01
7.41663e-03,5.30203e+01
7.47849e-03,5.12598e+01
7.54086e-03,4.95542e+01
7.60375e-03,4.79017e+01
7.66716e-03,4.63006e+01
7.73110e-03,4.47494e+01
7.79558e-03,4.32465e+01
7.86059e-03,4.17904e+01
7.92615e-03,4.03796e+01
7.99225e-03,3.90128e+01
8.05891e-03,3.76885e+01
8.12612e-03,3.64055e+01
8.19389e-03,3.51624e+01
8.26222e-03,3.39580e+01
8.33113e-03,3.27912e+01
8.40061e-03,3.16607e+01
8.47067e-03,3.05654e+01
8.54131e-03,2.95042e+01
8.61255e-03,2.84761e+01
8.68437e-03,2.74800e+01
8.75680e-03,2.65150e+01
8.82983e-03,2.55800e+01
8.90347e-03,2.46741e+01
8.97772e-03,2.37965e+01
9.05260e-03,2.29462e+01
9.12809e-03,2.21224e+01
9.20422e-03,2.13242e+01
9.28098e-03,2.05510e+01
9.35838e-03,1.98018e+01
9.43643e-03,1.90760e+01
9.51513e-03,1.83728e+01
9.59448e-03,1.76915e+01
9.67450e-03,1.70314e+01
9.75518e-03,1.63919e+01
9.83654e-03,1.57723e+01
9.91858e-03,1.51721e+01
1.00013e-02,1.45905e+01
1.00847e-02,1.40271e+01
1.01688e-02,1.34813e+01
1.02536e-02,1.29524e+01
1.03391e-02,1.24400e+01
1.04254e-02,1.19437e+01
1.05123e-02,1.14627e+01
1.06000e-02,1.09968e+01
1.06884e-02,1.05454e+01
1.07775e-02,1.01081e+01
1.08674e-02,9.68437e+00
1.09580e-02,9.27388e+00
1.10494e-02,8.87619e+00
1.11416e-02,8.49089e+00
1.12345e-02,8.11761e+00
1.13282e-02,7.75596e+00
1.14227e-02,7.40559e+00
1.15179e-02,7.06615e+00
1.16140e-02,6.73729e+00
1.17108e-02,6.41868e+00
1.18085e-02,6.11001e+00
1.19070e-02,5.81096e+00
1.20063e-02,5.52123e+00
1.21064e-02,5.24054e+00
1.22074e-02,4.96861e+00
1.23092e-02,4.70515e+00
1.24118e-02,4.44991e+00
1.25154e-02,4.20262e+00
1.26197e-02,3.96305e+00
1.27250e-02,3.73095e+00
1.28311e-02,3.50609e+00
1.29381e-02,3.28824e+00
1.30460e-02,3.07719e+00
1.31548e-02,2.87272e+00
1.32645e-02,2.67462e+00
1.33752e-02,2.48270e+00
1.34867e-02,2.29677e+00
1.35992e-02,2.11664e+00
1.37126e-02,1.94213e+00
1.38270e-02,1.77306e+00
1.39423e-02,1.60926e+00
1.40585e-02,1.45057e+00
1.41758e-02,1.29683e+00
1.42940e-02,1.14789e+00
1.44132e-02,1.00359e+00
1.45334e-02,8.63797e-01
1.46546e-02,7.28361e-01
1.47769e-02,5.97151e-01
1.49001e-02,4.70033e-01
1.50244e-02,3.46881e-01
1.51497e-02,2.27571e-01
1.52760e-02,1.11983e-01
1.54034e-02,0.00000e+00
