m1=172793.929, m2=8.670, gsp=2.102, rhosp=13.388
fGW[Hz],dPh[rad]
2.77764e-03,1.68552e+02
2.80873e-03,1.61667e+02
2.84016e-03,1.55059e+02
2.87195e-03,1.48716e+02
2.90410e-03,1.42628e+02
2.93660e-03,1.36784e+02
2.96947e-03,1.31176e+02
3.00271e-03,1.25794e+02
3.03632e-03,1.20629e+02
3.07030e-03,1.15672e+02
3.10467e-03,1.10916e+02
3.13942e-03,1.06352e+02
3.17456e-03,1.01973e+02
3.21009e-03,9.77719e+01
3.24602e-03,9.37409e+01
3.28235e-03,8.98735e+01
3.31909e-03,8.61633e+01
3.35624e-03,8.26040e+01
3.39381e-03,7.91896e+01
3.43180e-03,7.59143e+01
3.47021e-03,7.27726e+01
3.50905e-03,6.97590e+01
3.54833e-03,6.68686e+01
3.58804e-03,6.40963e+01
3.62820e-03,6.14374e+01
3.66881e-03,5.88873e+01
3.70988e-03,5.64417e+01
3.75140e-03,5.40964e+01
3.79339e-03,5.18473e+01
3.83585e-03,4.96906e+01
3.87878e-03,4.76224e+01
3.92220e-03,4.56393e+01
3.96610e-03,4.37378e+01
4.01049e-03,4.19146e+01
4.05538e-03,4.01665e+01
4.10077e-03,3.84905e+01
4.14667e-03,3.68836e+01
4.19309e-03,3.53430e+01
4.24002e-03,3.38661e+01
4.28748e-03,3.24502e+01
4.33547e-03,3.10929e+01
4.38399e-03,2.97917e+01
4.43306e-03,2.85444e+01
4.48268e-03,2.73488e+01
4.53285e-03,2.62028e+01
4.58359e-03,2.51043e+01
4.63489e-03,2.40514e+01
4.68677e-03,2.30421e+01
4.73923e-03,2.20749e+01
4.79228e-03,2.11478e+01
4.84592e-03,2.02593e+01
4.90015e-03,1.94077e+01
4.95500e-03,1.85916e+01
5.01046e-03,1.78095e+01
5.06654e-03,1.70600e+01
5.12325e-03,1.63417e+01
5.18060e-03,1.56534e+01
5.23858e-03,1.49938e+01
5.29722e-03,1.43618e+01
5.35651e-03,1.37561e+01
5.41646e-03,1.31757e+01
5.47709e-03,1.26197e+01
5.53839e-03,1.20868e+01
5.60039e-03,1.15763e+01
5.66307e-03,1.10871e+01
5.72646e-03,1.06184e+01
5.79055e-03,1.01693e+01
5.85536e-03,9.73910e+00
5.92090e-03,9.32689e+00
5.98718e-03,8.93197e+00
6.05419e-03,8.55361e+00
6.12195e-03,8.19114e+00
6.19048e-03,7.84388e+00
6.25976e-03,7.51120e+00
6.32983e-03,7.19250e+00
6.40068e-03,6.88720e+00
6.47232e-03,6.59473e+00
6.54476e-03,6.31456e+00
6.61802e-03,6.04617e+00
6.69209e-03,5.78908e+00
6.76700e-03,5.54281e+00
6.84274e-03,5.30691e+00
6.91933e-03,5.08094e+00
6.99678e-03,4.86450e+00
7.07509e-03,4.65717e+00
7.15428e-03,4.45859e+00
7.23436e-03,4.26838e+00
7.31533e-03,4.08619e+00
7.39721e-03,3.91169e+00
7.48001e-03,3.74455e+00
7.56373e-03,3.58447e+00
7.64839e-03,3.43115e+00
7.73400e-03,3.28430e+00
7.82057e-03,3.14366e+00
7.90810e-03,3.00896e+00
7.99661e-03,2.87995e+00
8.08612e-03,2.75640e+00
8.17663e-03,2.63807e+00
8.26815e-03,2.52474e+00
8.36069e-03,2.41621e+00
8.45427e-03,2.31228e+00
8.54890e-03,2.21274e+00
8.64459e-03,2.11741e+00
8.74134e-03,2.02612e+00
8.83919e-03,1.93870e+00
8.93812e-03,1.85498e+00
9.03816e-03,1.77480e+00
9.13933e-03,1.69803e+00
9.24162e-03,1.62450e+00
9.34506e-03,1.55410e+00
9.44966e-03,1.48668e+00
9.55543e-03,1.42212e+00
9.66238e-03,1.36029e+00
9.77053e-03,1.30109e+00
9.87989e-03,1.24440e+00
9.99048e-03,1.19012e+00
1.01023e-02,1.13814e+00
1.02154e-02,1.08836e+00
1.03297e-02,1.04070e+00
1.04453e-02,9.95068e-01
1.05622e-02,9.51370e-01
1.06805e-02,9.09528e-01
1.08000e-02,8.69463e-01
1.09209e-02,8.31100e-01
1.10431e-02,7.94368e-01
1.11667e-02,7.59197e-01
1.12917e-02,7.25521e-01
1.14181e-02,6.93276e-01
1.15459e-02,6.62402e-01
1.16751e-02,6.32841e-01
1.18058e-02,6.04538e-01
1.19380e-02,5.77438e-01
1.20716e-02,5.51491e-01
1.22067e-02,5.26648e-01
1.23433e-02,5.02862e-01
1.24815e-02,4.80088e-01
1.26212e-02,4.58283e-01
1.27625e-02,4.37406e-01
1.29053e-02,4.17418e-01
1.30498e-02,3.98281e-01
1.31958e-02,3.79959e-01
1.33435e-02,3.62417e-01
1.34929e-02,3.45622e-01
1.36439e-02,3.29542e-01
1.37966e-02,3.14148e-01
1.39510e-02,2.99409e-01
1.41072e-02,2.85298e-01
1.42651e-02,2.71788e-01
1.44248e-02,2.58854e-01
1.45862e-02,2.46471e-01
1.47495e-02,2.34616e-01
1.49146e-02,2.23266e-01
1.50815e-02,2.12400e-01
1.52503e-02,2.01997e-01
1.54210e-02,1.92038e-01
1.55936e-02,1.82503e-01
1.57681e-02,1.73375e-01
1.59446e-02,1.64636e-01
1.61231e-02,1.56270e-01
1.63036e-02,1.48260e-01
1.64861e-02,1.40593e-01
1.66706e-02,1.33252e-01
1.68572e-02,1.26225e-01
1.70459e-02,1.19497e-01
1.72366e-02,1.13056e-01
1.74296e-02,1.06890e-01
1.76247e-02,1.00988e-01
1.78219e-02,9.53368e-02
1.80214e-02,8.99272e-02
1.82231e-02,8.47484e-02
1.84271e-02,7.97906e-02
1.86333e-02,7.50445e-02
1.88419e-02,7.05010e-02
1.90528e-02,6.61514e-02
1.92661e-02,6.19875e-02
1.94817e-02,5.80014e-02
1.96998e-02,5.41855e-02
1.99203e-02,5.05326e-02
2.01432e-02,4.70356e-02
2.03687e-02,4.36880e-02
2.05967e-02,4.04833e-02
2.08272e-02,3.74155e-02
2.10603e-02,3.44787e-02
2.12960e-02,3.16674e-02
2.15344e-02,2.89761e-02
2.17754e-02,2.63998e-02
2.20192e-02,2.39336e-02
2.22656e-02,2.15727e-02
2.25148e-02,1.93127e-02
2.27668e-02,1.71492e-02
2.30217e-02,1.50782e-02
2.32794e-02,1.30957e-02
2.35399e-02,1.11979e-02
2.38034e-02,9.38116e-03
2.40698e-02,7.64208e-03
2.43392e-02,5.97732e-03
2.46117e-02,4.38370e-03
2.48871e-02,2.85820e-03
2.51657e-02,1.39789e-03
2.54474e-02,0.00000e+00
