m1=290949.927, m2=4.187, gsp=2.469, rhosp=484.995
fGW[Hz],dPh[rad]
3.20354e-03,1.11000e+05
3.22861e-03,1.07864e+05
3.25388e-03,1.04816e+05
3.27934e-03,1.01854e+05
3.30501e-03,9.89744e+04
3.33087e-03,9.61760e+04
3.35694e-03,9.34563e+04
3.38321e-03,9.08130e+04
3.40969e-03,8.82439e+04
3.43637e-03,8.57471e+04
3.46326e-03,8.33204e+04
3.49037e-03,8.09620e+04
3.51768e-03,7.86698e+04
3.54521e-03,7.64421e+04
3.57295e-03,7.42771e+04
3.60092e-03,7.21729e+04
3.62910e-03,7.01279e+04
3.65750e-03,6.81404e+04
3.68612e-03,6.62088e+04
3.71497e-03,6.43316e+04
3.74404e-03,6.25072e+04
3.77334e-03,6.07341e+04
3.80287e-03,5.90109e+04
3.83263e-03,5.73362e+04
3.86262e-03,5.57086e+04
3.89285e-03,5.41268e+04
3.92332e-03,5.25896e+04
3.95402e-03,5.10956e+04
3.98496e-03,4.96437e+04
4.01615e-03,4.82327e+04
4.04758e-03,4.68614e+04
4.07926e-03,4.55287e+04
4.11118e-03,4.42336e+04
4.14335e-03,4.29749e+04
4.17578e-03,4.17517e+04
4.20846e-03,4.05630e+04
4.24139e-03,3.94077e+04
4.27459e-03,3.82850e+04
4.30804e-03,3.71939e+04
4.34175e-03,3.61335e+04
4.37573e-03,3.51031e+04
4.40997e-03,3.41017e+04
4.44449e-03,3.31285e+04
4.47927e-03,3.21827e+04
4.51432e-03,3.12636e+04
4.54965e-03,3.03704e+04
4.58526e-03,2.95024e+04
4.62114e-03,2.86588e+04
4.65730e-03,2.78391e+04
4.69375e-03,2.70424e+04
4.73048e-03,2.62683e+04
4.76750e-03,2.55159e+04
4.80481e-03,2.47848e+04
4.84242e-03,2.40743e+04
4.88031e-03,2.33838e+04
4.91850e-03,2.27128e+04
4.95700e-03,2.20607e+04
4.99579e-03,2.14271e+04
5.03489e-03,2.08113e+04
5.07429e-03,2.02128e+04
5.11400e-03,1.96313e+04
5.15402e-03,1.90662e+04
5.19435e-03,1.85170e+04
5.23500e-03,1.79833e+04
5.27597e-03,1.74647e+04
5.31726e-03,1.69607e+04
5.35887e-03,1.64710e+04
5.40081e-03,1.59950e+04
5.44308e-03,1.55325e+04
5.48568e-03,1.50831e+04
5.52861e-03,1.46463e+04
5.57187e-03,1.42219e+04
5.61548e-03,1.38095e+04
5.65942e-03,1.34087e+04
5.70371e-03,1.30192e+04
5.74835e-03,1.26407e+04
5.79333e-03,1.22729e+04
5.83867e-03,1.19155e+04
5.88437e-03,1.15682e+04
5.93042e-03,1.12306e+04
5.97683e-03,1.09027e+04
6.02360e-03,1.05840e+04
6.07074e-03,1.02742e+04
6.11825e-03,9.97329e+03
6.16613e-03,9.68082e+03
6.21438e-03,9.39662e+03
6.26302e-03,9.12045e+03
6.31203e-03,8.85208e+03
6.36143e-03,8.59130e+03
6.41121e-03,8.33788e+03
6.46139e-03,8.09162e+03
6.51195e-03,7.85232e+03
6.56291e-03,7.61978e+03
6.61427e-03,7.39381e+03
6.66604e-03,7.17423e+03
6.71820e-03,6.96085e+03
6.77078e-03,6.75351e+03
6.82377e-03,6.55202e+03
6.87717e-03,6.35623e+03
6.93099e-03,6.16597e+03
6.98523e-03,5.98109e+03
7.03990e-03,5.80143e+03
7.09499e-03,5.62685e+03
7.15051e-03,5.45721e+03
7.20647e-03,5.29236e+03
7.26287e-03,5.13217e+03
7.31971e-03,4.97652e+03
7.37699e-03,4.82526e+03
7.43472e-03,4.67827e+03
7.49290e-03,4.53545e+03
7.55154e-03,4.39666e+03
7.61064e-03,4.26180e+03
7.67020e-03,4.13074e+03
7.73023e-03,4.00340e+03
7.79072e-03,3.87965e+03
7.85169e-03,3.75941e+03
7.91314e-03,3.64256e+03
7.97506e-03,3.52902e+03
8.03748e-03,3.41869e+03
8.10038e-03,3.31148e+03
8.16377e-03,3.20730e+03
8.22766e-03,3.10607e+03
8.29205e-03,3.00770e+03
8.35694e-03,2.91211e+03
8.42234e-03,2.81923e+03
8.48825e-03,2.72898e+03
8.55468e-03,2.64127e+03
8.62163e-03,2.55605e+03
8.68910e-03,2.47324e+03
8.75710e-03,2.39277e+03
8.82563e-03,2.31458e+03
8.89470e-03,2.23859e+03
8.96431e-03,2.16476e+03
9.03446e-03,2.09302e+03
9.10516e-03,2.02331e+03
9.17642e-03,1.95556e+03
9.24823e-03,1.88974e+03
9.32061e-03,1.82578e+03
9.39355e-03,1.76362e+03
9.46706e-03,1.70323e+03
9.54115e-03,1.64454e+03
9.61582e-03,1.58752e+03
9.69107e-03,1.53211e+03
9.76691e-03,1.47826e+03
9.84335e-03,1.42594e+03
9.92038e-03,1.37510e+03
9.99802e-03,1.32570e+03
1.00763e-02,1.27770e+03
1.01551e-02,1.23106e+03
1.02346e-02,1.18573e+03
1.03147e-02,1.14169e+03
1.03954e-02,1.09889e+03
1.04768e-02,1.05731e+03
1.05587e-02,1.01690e+03
1.06414e-02,9.77635e+02
1.07247e-02,9.39482e+02
1.08086e-02,9.02408e+02
1.08932e-02,8.66384e+02
1.09784e-02,8.31380e+02
1.10643e-02,7.97366e+02
1.11509e-02,7.64315e+02
1.12382e-02,7.32199e+02
1.13261e-02,7.00992e+02
1.14148e-02,6.70669e+02
1.15041e-02,6.41204e+02
1.15941e-02,6.12573e+02
1.16849e-02,5.84752e+02
1.17763e-02,5.57719e+02
1.18685e-02,5.31451e+02
1.19614e-02,5.05927e+02
1.20550e-02,4.81125e+02
1.21493e-02,4.57025e+02
1.22444e-02,4.33608e+02
1.23402e-02,4.10853e+02
1.24368e-02,3.88743e+02
1.25341e-02,3.67258e+02
1.26322e-02,3.46382e+02
1.27311e-02,3.26097e+02
1.28307e-02,3.06386e+02
1.29311e-02,2.87233e+02
1.30323e-02,2.68622e+02
1.31343e-02,2.50538e+02
1.32371e-02,2.32966e+02
1.33407e-02,2.15892e+02
1.34451e-02,1.99301e+02
1.35503e-02,1.83180e+02
1.36563e-02,1.67515e+02
1.37632e-02,1.52294e+02
1.38709e-02,1.37503e+02
1.39795e-02,1.23132e+02
1.40889e-02,1.09167e+02
1.41991e-02,9.55981e+01
1.43102e-02,8.24131e+01
1.44222e-02,6.96014e+01
1.45351e-02,5.71525e+01
1.46488e-02,4.50561e+01
1.47635e-02,3.33022e+01
1.48790e-02,2.18811e+01
1.49955e-02,1.07834e+01
1.51128e-02,0.00000e+00
