m1=1876.758, m2=6.851, gsp=2.101, rhosp=172.700
fGW[Hz],dPh[rad]
9.40243e-03,1.64499e+02
9.66690e-03,1.54439e+02
9.93880e-03,1.44994e+02
1.02183e-02,1.36124e+02
1.05058e-02,1.27796e+02
1.08013e-02,1.19976e+02
1.11051e-02,1.12633e+02
1.14174e-02,1.05739e+02
1.17385e-02,9.92648e+01
1.20687e-02,9.31860e+01
1.24082e-02,8.74784e+01
1.27572e-02,8.21192e+01
1.31160e-02,7.70871e+01
1.34849e-02,7.23624e+01
1.38642e-02,6.79261e+01
1.42542e-02,6.37608e+01
1.46551e-02,5.98499e+01
1.50673e-02,5.61779e+01
1.54911e-02,5.27303e+01
1.59268e-02,4.94933e+01
1.63748e-02,4.64540e+01
1.68353e-02,4.36006e+01
1.73089e-02,4.09215e+01
1.77957e-02,3.84063e+01
1.82963e-02,3.60448e+01
1.88109e-02,3.38278e+01
1.93400e-02,3.17463e+01
1.98839e-02,2.97922e+01
2.04432e-02,2.79576e+01
2.10182e-02,2.62353e+01
2.16094e-02,2.46184e+01
2.22172e-02,2.31005e+01
2.28421e-02,2.16755e+01
2.34846e-02,2.03378e+01
2.41451e-02,1.90820e+01
2.48243e-02,1.79032e+01
2.55225e-02,1.67966e+01
2.62404e-02,1.57579e+01
2.69784e-02,1.47828e+01
2.77373e-02,1.38676e+01
2.85174e-02,1.30085e+01
2.93195e-02,1.22021e+01
3.01442e-02,1.14452e+01
3.09921e-02,1.07348e+01
3.18638e-02,1.00681e+01
3.27600e-02,9.44227e+00
3.36814e-02,8.85494e+00
3.46288e-02,8.30373e+00
3.56028e-02,7.78642e+00
3.66042e-02,7.30095e+00
3.76338e-02,6.84536e+00
3.86923e-02,6.41784e+00
3.97806e-02,6.01665e+00
4.08995e-02,5.64020e+00
4.20499e-02,5.28697e+00
4.32326e-02,4.95553e+00
4.44486e-02,4.64455e+00
4.56988e-02,4.35279e+00
4.69842e-02,4.07905e+00
4.83057e-02,3.82224e+00
4.96644e-02,3.58133e+00
5.10613e-02,3.35533e+00
5.24975e-02,3.14333e+00
5.39741e-02,2.94447e+00
5.54922e-02,2.75796e+00
5.70531e-02,2.58302e+00
5.86578e-02,2.41895e+00
6.03077e-02,2.26508e+00
6.20039e-02,2.12079e+00
6.37479e-02,1.98549e+00
6.55410e-02,1.85862e+00
6.73844e-02,1.73966e+00
6.92797e-02,1.62814e+00
7.12284e-02,1.52358e+00
7.32318e-02,1.42557e+00
7.52916e-02,1.33370e+00
7.74093e-02,1.24759e+00
7.95866e-02,1.16689e+00
8.18251e-02,1.09126e+00
8.41266e-02,1.02038e+00
8.64929e-02,9.53976e-01
8.89256e-02,8.91758e-01
9.14269e-02,8.33471e-01
9.39984e-02,7.78872e-01
9.66423e-02,7.27731e-01
9.93606e-02,6.79835e-01
1.02155e-01,6.34982e-01
1.05029e-01,5.92985e-01
1.07983e-01,5.53664e-01
1.11020e-01,5.16855e-01
1.14143e-01,4.82400e-01
1.17353e-01,4.50154e-01
1.20654e-01,4.19978e-01
1.24047e-01,3.91744e-01
1.27537e-01,3.65330e-01
1.31124e-01,3.40622e-01
1.34812e-01,3.17514e-01
1.38604e-01,2.95905e-01
1.42502e-01,2.75702e-01
1.46510e-01,2.56816e-01
1.50631e-01,2.39164e-01
1.54868e-01,2.22668e-01
1.59224e-01,2.07256e-01
1.63703e-01,1.92859e-01
1.68307e-01,1.79413e-01
1.73041e-01,1.66858e-01
1.77908e-01,1.55136e-01
1.82912e-01,1.44196e-01
1.88057e-01,1.33987e-01
1.93346e-01,1.24462e-01
1.98785e-01,1.15578e-01
2.04376e-01,1.07294e-01
2.10124e-01,9.95711e-02
2.16034e-01,9.23731e-02
2.22111e-01,8.56661e-02
2.28358e-01,7.94185e-02
2.34781e-01,7.36004e-02
2.41385e-01,6.81839e-02
2.48174e-01,6.31427e-02
2.55155e-01,5.84524e-02
2.62331e-01,5.40897e-02
2.69710e-01,5.00333e-02
2.77296e-01,4.62628e-02
2.85096e-01,4.27593e-02
2.93114e-01,3.95051e-02
3.01359e-01,3.64834e-02
3.09835e-01,3.36787e-02
3.18550e-01,3.10764e-02
3.27510e-01,2.86628e-02
3.36722e-01,2.64251e-02
3.46193e-01,2.43514e-02
3.55930e-01,2.24303e-02
3.65941e-01,2.06514e-02
3.76234e-01,1.90050e-02
3.86816e-01,1.74817e-02
3.97696e-01,1.60730e-02
4.08882e-01,1.47708e-02
4.20383e-01,1.35677e-02
4.32207e-01,1.24566e-02
4.44364e-01,1.14310e-02
4.56862e-01,1.04847e-02
4.69712e-01,9.61200e-03
4.82924e-01,8.80761e-03
4.96507e-01,8.06653e-03
5.10472e-01,7.38410e-03
5.24830e-01,6.75601e-03
5.39592e-01,6.17820e-03
5.54769e-01,5.64694e-03
5.70373e-01,5.15871e-03
5.86416e-01,4.71025e-03
6.02910e-01,4.29855e-03
6.19868e-01,3.92078e-03
6.37303e-01,3.57432e-03
6.55229e-01,3.25674e-03
6.73658e-01,2.96578e-03
6.92606e-01,2.69935e-03
7.12087e-01,2.45551e-03
7.32116e-01,2.23245e-03
7.52708e-01,2.02850e-03
7.73880e-01,1.84213e-03
7.95647e-01,1.67190e-03
8.18026e-01,1.51649e-03
8.41034e-01,1.37468e-03
8.64690e-01,1.24534e-03
8.89011e-01,1.12744e-03
9.14016e-01,1.02001e-03
9.39725e-01,9.22175e-04
9.66157e-01,8.33111e-04
9.93332e-01,7.52071e-04
1.02127e+00,6.78366e-04
1.05000e+00,6.11362e-04
1.07953e+00,5.50475e-04
1.10989e+00,4.95172e-04
1.14111e+00,4.44960e-04
1.17321e+00,3.99391e-04
1.20621e+00,3.58050e-04
1.24013e+00,3.20561e-04
1.27501e+00,2.86578e-04
1.31088e+00,2.55784e-04
1.34775e+00,2.27891e-04
1.38566e+00,2.02634e-04
1.42463e+00,1.79771e-04
1.46470e+00,1.59084e-04
1.50590e+00,1.40371e-04
1.54825e+00,1.23449e-04
1.59180e+00,1.08151e-04
1.63657e+00,9.43267e-05
1.68261e+00,8.18367e-05
1.72993e+00,7.05556e-05
1.77859e+00,6.03694e-05
1.82862e+00,5.11741e-05
1.88005e+00,4.28756e-05
1.93293e+00,3.53883e-05
1.98730e+00,2.86345e-05
2.04319e+00,2.25438e-05
2.10066e+00,1.70523e-05
2.15975e+00,1.21021e-05
2.22050e+00,7.64096e-06
2.28295e+00,3.62123e-06
2.34716e+00,0.00000e+00
