m1=8640.865, m2=45.537, gsp=2.344, rhosp=91.729
fGW[Hz],dPh[rad]
3.15551e-03,4.92351e+03
3.23719e-03,4.66406e+03
3.32099e-03,4.41822e+03
3.40695e-03,4.18528e+03
3.49514e-03,3.96457e+03
3.58562e-03,3.75544e+03
3.67843e-03,3.55729e+03
3.77365e-03,3.36954e+03
3.87133e-03,3.19165e+03
3.97154e-03,3.02310e+03
4.07435e-03,2.86341e+03
4.17981e-03,2.71210e+03
4.28801e-03,2.56874e+03
4.39901e-03,2.43291e+03
4.51288e-03,2.30422e+03
4.62970e-03,2.18229e+03
4.74954e-03,2.06677e+03
4.87248e-03,1.95733e+03
4.99861e-03,1.85363e+03
5.12800e-03,1.75539e+03
5.26074e-03,1.66232e+03
5.39692e-03,1.57414e+03
5.53662e-03,1.49061e+03
5.67994e-03,1.41147e+03
5.82696e-03,1.33649e+03
5.97780e-03,1.26546e+03
6.13254e-03,1.19817e+03
6.29128e-03,1.13443e+03
6.45413e-03,1.07404e+03
6.62120e-03,1.01684e+03
6.79259e-03,9.62648e+02
6.96842e-03,9.11316e+02
7.14880e-03,8.62690e+02
7.33385e-03,8.16630e+02
7.52369e-03,7.73000e+02
7.71845e-03,7.31672e+02
7.91824e-03,6.92527e+02
8.12321e-03,6.55449e+02
8.33348e-03,6.20329e+02
8.54920e-03,5.87066e+02
8.77050e-03,5.55562e+02
8.99753e-03,5.25723e+02
9.23043e-03,4.97463e+02
9.46937e-03,4.70699e+02
9.71448e-03,4.45353e+02
9.96595e-03,4.21349e+02
1.02239e-02,3.98617e+02
1.04886e-02,3.77090e+02
1.07601e-02,3.56705e+02
1.10386e-02,3.37403e+02
1.13243e-02,3.19125e+02
1.16175e-02,3.01818e+02
1.19182e-02,2.85431e+02
1.22267e-02,2.69916e+02
1.25432e-02,2.55227e+02
1.28679e-02,2.41320e+02
1.32010e-02,2.28154e+02
1.35427e-02,2.15690e+02
1.38933e-02,2.03891e+02
1.42529e-02,1.92722e+02
1.46218e-02,1.82150e+02
1.50003e-02,1.72143e+02
1.53886e-02,1.62672e+02
1.57870e-02,1.53708e+02
1.61956e-02,1.45224e+02
1.66148e-02,1.37196e+02
1.70449e-02,1.29599e+02
1.74861e-02,1.22410e+02
1.79388e-02,1.15608e+02
1.84031e-02,1.09173e+02
1.88795e-02,1.03084e+02
1.93682e-02,9.73242e+01
1.98696e-02,9.18754e+01
2.03839e-02,8.67214e+01
2.09115e-02,8.18465e+01
2.14528e-02,7.72359e+01
2.20082e-02,7.28757e+01
2.25778e-02,6.87525e+01
2.31623e-02,6.48537e+01
2.37618e-02,6.11676e+01
2.43769e-02,5.76826e+01
2.50079e-02,5.43882e+01
2.56553e-02,5.12742e+01
2.63194e-02,4.83311e+01
2.70007e-02,4.55496e+01
2.76996e-02,4.29212e+01
2.84166e-02,4.04376e+01
2.91522e-02,3.80913e+01
2.99068e-02,3.58748e+01
3.06810e-02,3.37812e+01
3.14752e-02,3.18039e+01
3.22899e-02,2.99366e+01
3.31257e-02,2.81736e+01
3.39832e-02,2.65091e+01
3.48629e-02,2.49378e+01
3.57653e-02,2.34549e+01
3.66911e-02,2.20554e+01
3.76409e-02,2.07349e+01
3.86152e-02,1.94891e+01
3.96148e-02,1.83140e+01
4.06403e-02,1.72057e+01
4.16923e-02,1.61607e+01
4.27715e-02,1.51754e+01
4.38786e-02,1.42467e+01
4.50145e-02,1.33714e+01
4.61797e-02,1.25466e+01
4.73751e-02,1.17696e+01
4.86014e-02,1.10378e+01
4.98595e-02,1.03486e+01
5.11501e-02,9.69968e+00
5.24741e-02,9.08887e+00
5.38324e-02,8.51405e+00
5.52259e-02,7.97322e+00
5.66555e-02,7.46448e+00
5.81220e-02,6.98605e+00
5.96265e-02,6.53624e+00
6.11700e-02,6.11344e+00
6.27534e-02,5.71614e+00
6.43778e-02,5.34290e+00
6.60443e-02,4.99236e+00
6.77538e-02,4.66323e+00
6.95077e-02,4.35429e+00
7.13069e-02,4.06440e+00
7.31527e-02,3.79246e+00
7.50463e-02,3.53744e+00
7.69889e-02,3.29836e+00
7.89818e-02,3.07431e+00
8.10263e-02,2.86439e+00
8.31237e-02,2.66780e+00
8.52754e-02,2.48374e+00
8.74828e-02,2.31148e+00
8.97473e-02,2.15033e+00
9.20705e-02,1.99961e+00
9.44538e-02,1.85870e+00
9.68987e-02,1.72703e+00
9.94070e-02,1.60402e+00
1.01980e-01,1.48915e+00
1.04620e-01,1.38193e+00
1.07328e-01,1.28189e+00
1.10106e-01,1.18858e+00
1.12957e-01,1.10159e+00
1.15880e-01,1.02052e+00
1.18880e-01,9.45003e-01
1.21957e-01,8.74685e-01
1.25114e-01,8.09236e-01
1.28353e-01,7.48346e-01
1.31675e-01,6.91721e-01
1.35084e-01,6.39086e-01
1.38581e-01,5.90181e-01
1.42168e-01,5.44760e-01
1.45848e-01,5.02595e-01
1.49623e-01,4.63470e-01
1.53496e-01,4.27180e-01
1.57470e-01,3.93535e-01
1.61546e-01,3.62357e-01
1.65727e-01,3.33477e-01
1.70017e-01,3.06738e-01
1.74418e-01,2.81991e-01
1.78933e-01,2.59098e-01
1.83565e-01,2.37930e-01
1.88317e-01,2.18364e-01
1.93191e-01,2.00288e-01
1.98192e-01,1.83595e-01
2.03322e-01,1.68186e-01
2.08586e-01,1.53967e-01
2.13985e-01,1.40853e-01
2.19524e-01,1.28763e-01
2.25206e-01,1.17620e-01
2.31036e-01,1.07356e-01
2.37017e-01,9.79039e-02
2.43152e-01,8.92035e-02
2.49446e-01,8.11980e-02
2.55903e-01,7.38346e-02
2.62527e-01,6.70643e-02
2.69323e-01,6.08418e-02
2.76294e-01,5.51246e-02
2.83446e-01,4.98736e-02
2.90783e-01,4.50525e-02
2.98310e-01,4.06276e-02
3.06032e-01,3.65676e-02
3.13954e-01,3.28437e-02
3.22081e-01,2.94291e-02
3.30418e-01,2.62992e-02
3.38971e-01,2.34310e-02
3.47746e-01,2.08035e-02
3.56747e-01,1.83971e-02
3.65982e-01,1.61938e-02
3.75455e-01,1.41772e-02
3.85174e-01,1.23318e-02
3.95145e-01,1.06435e-02
4.05373e-01,9.09947e-03
4.15866e-01,7.68759e-03
4.26631e-01,6.39691e-03
4.37675e-01,5.21730e-03
4.49004e-01,4.13944e-03
4.60627e-01,3.15476e-03
4.72550e-01,2.25542e-03
4.84783e-01,1.43417e-03
4.97331e-01,6.84394e-04
5.10205e-01,0.00000e+00
