m1=4708.141, m2=10.803, gsp=2.444, rhosp=32.763
fGW[Hz],dPh[rad]
6.29724e-03,8.06421e+04
6.45748e-03,7.65639e+04
6.62180e-03,7.26901e+04
6.79030e-03,6.90106e+04
6.96309e-03,6.55157e+04
7.14027e-03,6.21961e+04
7.32196e-03,5.90431e+04
7.50828e-03,5.60484e+04
7.69934e-03,5.32041e+04
7.89525e-03,5.05025e+04
8.09616e-03,4.79367e+04
8.30217e-03,4.54997e+04
8.51343e-03,4.31852e+04
8.73007e-03,4.09871e+04
8.95221e-03,3.88995e+04
9.18001e-03,3.69169e+04
9.41361e-03,3.50340e+04
9.65315e-03,3.32459e+04
9.89878e-03,3.15477e+04
1.01507e-02,2.99351e+04
1.04090e-02,2.84038e+04
1.06738e-02,2.69496e+04
1.09454e-02,2.55687e+04
1.12240e-02,2.42574e+04
1.15096e-02,2.30123e+04
1.18024e-02,2.18300e+04
1.21028e-02,2.07074e+04
1.24107e-02,1.96415e+04
1.27265e-02,1.86295e+04
1.30504e-02,1.76687e+04
1.33825e-02,1.67564e+04
1.37230e-02,1.58903e+04
1.40722e-02,1.50681e+04
1.44303e-02,1.42875e+04
1.47975e-02,1.35465e+04
1.51740e-02,1.28430e+04
1.55601e-02,1.21753e+04
1.59561e-02,1.15415e+04
1.63621e-02,1.09399e+04
1.67784e-02,1.03688e+04
1.72054e-02,9.82687e+03
1.76432e-02,9.31250e+03
1.80922e-02,8.82433e+03
1.85525e-02,8.36106e+03
1.90246e-02,7.92143e+03
1.95087e-02,7.50425e+03
2.00052e-02,7.10840e+03
2.05142e-02,6.73281e+03
2.10362e-02,6.37645e+03
2.15715e-02,6.03836e+03
2.21204e-02,5.71761e+03
2.26833e-02,5.41334e+03
2.32605e-02,5.12471e+03
2.38524e-02,4.85094e+03
2.44593e-02,4.59128e+03
2.50817e-02,4.34502e+03
2.57200e-02,4.11147e+03
2.63744e-02,3.89000e+03
2.70456e-02,3.68000e+03
2.77338e-02,3.48088e+03
2.84395e-02,3.29211e+03
2.91632e-02,3.11315e+03
2.99053e-02,2.94351e+03
3.06662e-02,2.78271e+03
3.14466e-02,2.63032e+03
3.22468e-02,2.48589e+03
3.30673e-02,2.34904e+03
3.39088e-02,2.21937e+03
3.47716e-02,2.09651e+03
3.56564e-02,1.98013e+03
3.65637e-02,1.86989e+03
3.74941e-02,1.76548e+03
3.84482e-02,1.66661e+03
3.94266e-02,1.57298e+03
4.04298e-02,1.48434e+03
4.14586e-02,1.40042e+03
4.25136e-02,1.32099e+03
4.35954e-02,1.24581e+03
4.47047e-02,1.17467e+03
4.58423e-02,1.10737e+03
4.70088e-02,1.04369e+03
4.82050e-02,9.83464e+02
4.94316e-02,9.26503e+02
5.06894e-02,8.72643e+02
5.19793e-02,8.21721e+02
5.33020e-02,7.73587e+02
5.46583e-02,7.28096e+02
5.60491e-02,6.85109e+02
5.74754e-02,6.44498e+02
5.89379e-02,6.06137e+02
6.04376e-02,5.69910e+02
6.19755e-02,5.35704e+02
6.35526e-02,5.03414e+02
6.51698e-02,4.72939e+02
6.68281e-02,4.44183e+02
6.85286e-02,4.17055e+02
7.02724e-02,3.91470e+02
7.20605e-02,3.67345e+02
7.38942e-02,3.44602e+02
7.57745e-02,3.23168e+02
7.77027e-02,3.02972e+02
7.96799e-02,2.83949e+02
8.17075e-02,2.66034e+02
8.37866e-02,2.49168e+02
8.59187e-02,2.33295e+02
8.81050e-02,2.18359e+02
9.03469e-02,2.04310e+02
9.26459e-02,1.91100e+02
9.50033e-02,1.78681e+02
9.74208e-02,1.67011e+02
9.98998e-02,1.56047e+02
1.02442e-01,1.45751e+02
1.05049e-01,1.36085e+02
1.07722e-01,1.27013e+02
1.10463e-01,1.18502e+02
1.13274e-01,1.10520e+02
1.16156e-01,1.03038e+02
1.19112e-01,9.60250e+01
1.22143e-01,8.94557e+01
1.25251e-01,8.33038e+01
1.28438e-01,7.75451e+01
1.31706e-01,7.21565e+01
1.35058e-01,6.71162e+01
1.38494e-01,6.24036e+01
1.42018e-01,5.79991e+01
1.45632e-01,5.38843e+01
1.49338e-01,5.00416e+01
1.53138e-01,4.64546e+01
1.57035e-01,4.31076e+01
1.61031e-01,3.99859e+01
1.65128e-01,3.70756e+01
1.69330e-01,3.43634e+01
1.73639e-01,3.18369e+01
1.78058e-01,2.94845e+01
1.82588e-01,2.72951e+01
1.87235e-01,2.52582e+01
1.91999e-01,2.33640e+01
1.96885e-01,2.16033e+01
2.01895e-01,1.99674e+01
2.07032e-01,1.84481e+01
2.12300e-01,1.70376e+01
2.17702e-01,1.57288e+01
2.23242e-01,1.45147e+01
2.28923e-01,1.33891e+01
2.34748e-01,1.23459e+01
2.40721e-01,1.13795e+01
2.46847e-01,1.04846e+01
2.53128e-01,9.65620e+00
2.59569e-01,8.88972e+00
2.66174e-01,8.18080e+00
2.72947e-01,7.52537e+00
2.79893e-01,6.91964e+00
2.87015e-01,6.36006e+00
2.94318e-01,5.84329e+00
3.01808e-01,5.36626e+00
3.09488e-01,4.92605e+00
3.17363e-01,4.51999e+00
3.25438e-01,4.14555e+00
3.33720e-01,3.80039e+00
3.42211e-01,3.48233e+00
3.50919e-01,3.18934e+00
3.59849e-01,2.91954e+00
3.69006e-01,2.67118e+00
3.78396e-01,2.44261e+00
3.88024e-01,2.23234e+00
3.97898e-01,2.03895e+00
4.08023e-01,1.86114e+00
4.18406e-01,1.69770e+00
4.29052e-01,1.54752e+00
4.39970e-01,1.40956e+00
4.51166e-01,1.28286e+00
4.62646e-01,1.16653e+00
4.74419e-01,1.05975e+00
4.86491e-01,9.61752e-01
4.98870e-01,8.71848e-01
5.11564e-01,7.89383e-01
5.24582e-01,7.13760e-01
5.37930e-01,6.44428e-01
5.51618e-01,5.80876e-01
5.65655e-01,5.22634e-01
5.80049e-01,4.69271e-01
5.94809e-01,4.20387e-01
6.09944e-01,3.75615e-01
6.25465e-01,3.34616e-01
6.41381e-01,2.97080e-01
6.57701e-01,2.62720e-01
6.74437e-01,2.31273e-01
6.91599e-01,2.02496e-01
7.09198e-01,1.76167e-01
7.27244e-01,1.52082e-01
7.45750e-01,1.30052e-01
7.64726e-01,1.09905e-01
7.84185e-01,9.14824e-02
8.04140e-01,7.46393e-02
8.24602e-01,5.92421e-02
8.45585e-01,4.51684e-02
8.67102e-01,3.23060e-02
8.89166e-01,2.05520e-02
9.11792e-01,9.81216e-03
9.34994e-01,0.00000e+00
