m1=351050.358, m2=16.399, gsp=2.362, rhosp=1182.408
fGW[Hz],dPh[rad]
1.83196e-03,2.55762e+04
1.84975e-03,2.46882e+04
1.86770e-03,2.38307e+04
1.88583e-03,2.30026e+04
1.90414e-03,2.22029e+04
1.92262e-03,2.14307e+04
1.94129e-03,2.06851e+04
1.96013e-03,1.99651e+04
1.97916e-03,1.92698e+04
1.99837e-03,1.85985e+04
2.01777e-03,1.79504e+04
2.03735e-03,1.73245e+04
2.05713e-03,1.67203e+04
2.07710e-03,1.61368e+04
2.09726e-03,1.55736e+04
2.11762e-03,1.50297e+04
2.13818e-03,1.45047e+04
2.15893e-03,1.39978e+04
2.17989e-03,1.35085e+04
2.20105e-03,1.30360e+04
2.22241e-03,1.25800e+04
2.24399e-03,1.21397e+04
2.26577e-03,1.17146e+04
2.28776e-03,1.13044e+04
2.30997e-03,1.09083e+04
2.33240e-03,1.05260e+04
2.35504e-03,1.01569e+04
2.37790e-03,9.80064e+03
2.40098e-03,9.45677e+03
2.42429e-03,9.12484e+03
2.44782e-03,8.80445e+03
2.47158e-03,8.49520e+03
2.49557e-03,8.19672e+03
2.51980e-03,7.90861e+03
2.54426e-03,7.63054e+03
2.56895e-03,7.36215e+03
2.59389e-03,7.10312e+03
2.61907e-03,6.85311e+03
2.64449e-03,6.61181e+03
2.67016e-03,6.37893e+03
2.69608e-03,6.15418e+03
2.72225e-03,5.93727e+03
2.74868e-03,5.72793e+03
2.77536e-03,5.52590e+03
2.80230e-03,5.33093e+03
2.82950e-03,5.14278e+03
2.85697e-03,4.96120e+03
2.88470e-03,4.78597e+03
2.91270e-03,4.61686e+03
2.94098e-03,4.45368e+03
2.96953e-03,4.29621e+03
2.99835e-03,4.14424e+03
3.02746e-03,3.99760e+03
3.05684e-03,3.85610e+03
3.08652e-03,3.71956e+03
3.11648e-03,3.58779e+03
3.14673e-03,3.46065e+03
3.17728e-03,3.33797e+03
3.20812e-03,3.21959e+03
3.23926e-03,3.10536e+03
3.27070e-03,2.99515e+03
3.30245e-03,2.88880e+03
3.33451e-03,2.78618e+03
3.36688e-03,2.68717e+03
3.39956e-03,2.59164e+03
3.43256e-03,2.49946e+03
3.46588e-03,2.41052e+03
3.49952e-03,2.32471e+03
3.53349e-03,2.24191e+03
3.56779e-03,2.16203e+03
3.60243e-03,2.08496e+03
3.63739e-03,2.01060e+03
3.67270e-03,1.93885e+03
3.70835e-03,1.86963e+03
3.74435e-03,1.80285e+03
3.78070e-03,1.73842e+03
3.81740e-03,1.67625e+03
3.85445e-03,1.61628e+03
3.89187e-03,1.55842e+03
3.92965e-03,1.50260e+03
3.96779e-03,1.44875e+03
4.00631e-03,1.39679e+03
4.04520e-03,1.34667e+03
4.08446e-03,1.29831e+03
4.12411e-03,1.25166e+03
4.16415e-03,1.20666e+03
4.20457e-03,1.16324e+03
4.24538e-03,1.12136e+03
4.28659e-03,1.08095e+03
4.32820e-03,1.04197e+03
4.37022e-03,1.00437e+03
4.41264e-03,9.68091e+02
4.45547e-03,9.33096e+02
4.49872e-03,8.99337e+02
4.54239e-03,8.66771e+02
4.58648e-03,8.35355e+02
4.63101e-03,8.05050e+02
4.67596e-03,7.75815e+02
4.72135e-03,7.47614e+02
4.76718e-03,7.20410e+02
4.81346e-03,6.94168e+02
4.86018e-03,6.68854e+02
4.90736e-03,6.44435e+02
4.95499e-03,6.20879e+02
5.00309e-03,5.98157e+02
5.05166e-03,5.76239e+02
5.10069e-03,5.55097e+02
5.15021e-03,5.34703e+02
5.20020e-03,5.15030e+02
5.25068e-03,4.96054e+02
5.30165e-03,4.77750e+02
5.35311e-03,4.60093e+02
5.40507e-03,4.43062e+02
5.45754e-03,4.26634e+02
5.51052e-03,4.10788e+02
5.56401e-03,3.95503e+02
5.61802e-03,3.80760e+02
5.67255e-03,3.66539e+02
5.72762e-03,3.52822e+02
5.78322e-03,3.39591e+02
5.83936e-03,3.26829e+02
5.89604e-03,3.14519e+02
5.95327e-03,3.02646e+02
6.01106e-03,2.91193e+02
6.06941e-03,2.80147e+02
6.12833e-03,2.69492e+02
6.18781e-03,2.59215e+02
6.24788e-03,2.49302e+02
6.30853e-03,2.39741e+02
6.36977e-03,2.30519e+02
6.43160e-03,2.21624e+02
6.49403e-03,2.13045e+02
6.55707e-03,2.04770e+02
6.62072e-03,1.96789e+02
6.68499e-03,1.89091e+02
6.74988e-03,1.81666e+02
6.81540e-03,1.74505e+02
6.88156e-03,1.67597e+02
6.94836e-03,1.60935e+02
7.01580e-03,1.54510e+02
7.08391e-03,1.48312e+02
7.15267e-03,1.42335e+02
7.22210e-03,1.36570e+02
7.29221e-03,1.31009e+02
7.36299e-03,1.25646e+02
7.43447e-03,1.20474e+02
7.50663e-03,1.15485e+02
7.57950e-03,1.10673e+02
7.65308e-03,1.06032e+02
7.72737e-03,1.01556e+02
7.80238e-03,9.72396e+01
7.87811e-03,9.30760e+01
7.95459e-03,8.90604e+01
8.03180e-03,8.51874e+01
8.10977e-03,8.14520e+01
8.18849e-03,7.78494e+01
8.26798e-03,7.43748e+01
8.34823e-03,7.10237e+01
8.42927e-03,6.77917e+01
8.51109e-03,6.46746e+01
8.59371e-03,6.16682e+01
8.67713e-03,5.87687e+01
8.76136e-03,5.59723e+01
8.84641e-03,5.32753e+01
8.93228e-03,5.06742e+01
9.01899e-03,4.81656e+01
9.10654e-03,4.57461e+01
9.19493e-03,4.34127e+01
9.28419e-03,4.11622e+01
9.37431e-03,3.89918e+01
9.46531e-03,3.68986e+01
9.55719e-03,3.48798e+01
9.64996e-03,3.29328e+01
9.74363e-03,3.10550e+01
9.83822e-03,2.92440e+01
9.93372e-03,2.74975e+01
1.00301e-02,2.58131e+01
1.01275e-02,2.41886e+01
1.02258e-02,2.26218e+01
1.03251e-02,2.11108e+01
1.04253e-02,1.96536e+01
1.05265e-02,1.82482e+01
1.06287e-02,1.68928e+01
1.07319e-02,1.55857e+01
1.08360e-02,1.43250e+01
1.09412e-02,1.31092e+01
1.10474e-02,1.19367e+01
1.11547e-02,1.08059e+01
1.12629e-02,9.71535e+00
1.13723e-02,8.66360e+00
1.14827e-02,7.64928e+00
1.15941e-02,6.67106e+00
1.17067e-02,5.72765e+00
1.18203e-02,4.81782e+00
1.19351e-02,3.94038e+00
1.20509e-02,3.09416e+00
1.21679e-02,2.27807e+00
1.22860e-02,1.49103e+00
1.24053e-02,7.32005e-01
1.25257e-02,0.00000e+00
