m1=4322.479, m2=62.438, gsp=2.389, rhosp=45.865
fGW[Hz],dPh[rad]
3.33706e-03,3.86482e+03
3.43449e-03,3.64059e+03
3.53476e-03,3.42935e+03
3.63797e-03,3.23036e+03
3.74418e-03,3.04290e+03
3.85350e-03,2.86631e+03
3.96601e-03,2.69995e+03
4.08181e-03,2.54324e+03
4.20098e-03,2.39561e+03
4.32364e-03,2.25654e+03
4.44987e-03,2.12553e+03
4.57979e-03,2.00212e+03
4.71351e-03,1.88586e+03
4.85113e-03,1.77634e+03
4.99276e-03,1.67317e+03
5.13854e-03,1.57598e+03
5.28856e-03,1.48443e+03
5.44297e-03,1.39819e+03
5.60189e-03,1.31695e+03
5.76545e-03,1.24041e+03
5.93378e-03,1.16832e+03
6.10703e-03,1.10041e+03
6.28533e-03,1.03644e+03
6.46884e-03,9.76172e+02
6.65771e-03,9.19405e+02
6.85209e-03,8.65930e+02
7.05215e-03,8.15558e+02
7.25805e-03,7.68108e+02
7.46996e-03,7.23410e+02
7.68806e-03,6.81306e+02
7.91253e-03,6.41645e+02
8.14355e-03,6.04285e+02
8.38131e-03,5.69094e+02
8.62602e-03,5.35945e+02
8.87787e-03,5.04720e+02
9.13707e-03,4.75307e+02
9.40385e-03,4.47602e+02
9.67841e-03,4.21505e+02
9.96098e-03,3.96923e+02
1.02518e-02,3.73769e+02
1.05511e-02,3.51960e+02
1.08592e-02,3.31417e+02
1.11762e-02,3.12067e+02
1.15026e-02,2.93842e+02
1.18384e-02,2.76675e+02
1.21840e-02,2.60506e+02
1.25398e-02,2.45276e+02
1.29059e-02,2.30932e+02
1.32827e-02,2.17421e+02
1.36705e-02,2.04696e+02
1.40696e-02,1.92711e+02
1.44804e-02,1.81423e+02
1.49032e-02,1.70791e+02
1.53383e-02,1.60778e+02
1.57862e-02,1.51348e+02
1.62471e-02,1.42466e+02
1.67214e-02,1.34102e+02
1.72096e-02,1.26224e+02
1.77121e-02,1.18806e+02
1.82292e-02,1.11819e+02
1.87615e-02,1.05239e+02
1.93092e-02,9.90431e+01
1.98730e-02,9.32082e+01
2.04532e-02,8.77134e+01
2.10504e-02,8.25391e+01
2.16650e-02,7.76666e+01
2.22975e-02,7.30786e+01
2.29486e-02,6.87583e+01
2.36186e-02,6.46903e+01
2.43082e-02,6.08600e+01
2.50179e-02,5.72534e+01
2.57483e-02,5.38577e+01
2.65001e-02,5.06606e+01
2.72738e-02,4.76505e+01
2.80701e-02,4.48166e+01
2.88897e-02,4.21486e+01
2.97331e-02,3.96370e+01
3.06013e-02,3.72725e+01
3.14947e-02,3.50466e+01
3.24142e-02,3.29514e+01
3.33606e-02,3.09791e+01
3.43347e-02,2.91227e+01
3.53371e-02,2.73754e+01
3.63688e-02,2.57308e+01
3.74307e-02,2.41829e+01
3.85235e-02,2.27262e+01
3.96483e-02,2.13554e+01
4.08059e-02,2.00653e+01
4.19973e-02,1.88514e+01
4.32235e-02,1.77091e+01
4.44855e-02,1.66344e+01
4.57843e-02,1.56232e+01
4.71210e-02,1.46718e+01
4.84968e-02,1.37769e+01
4.99128e-02,1.29350e+01
5.13701e-02,1.21431e+01
5.28699e-02,1.13982e+01
5.44135e-02,1.06977e+01
5.60022e-02,1.00388e+01
5.76373e-02,9.41929e+00
5.93201e-02,8.83672e+00
6.10521e-02,8.28897e+00
6.28346e-02,7.77399e+00
6.46692e-02,7.28988e+00
6.65573e-02,6.83481e+00
6.85005e-02,6.40708e+00
7.05005e-02,6.00510e+00
7.25589e-02,5.62735e+00
7.46774e-02,5.27240e+00
7.68577e-02,4.93891e+00
7.91017e-02,4.62563e+00
8.14112e-02,4.33136e+00
8.37882e-02,4.05498e+00
8.62345e-02,3.79543e+00
8.87523e-02,3.55173e+00
9.13435e-02,3.32294e+00
9.40105e-02,3.10816e+00
9.67552e-02,2.90659e+00
9.95802e-02,2.71742e+00
1.02488e-01,2.53994e+00
1.05480e-01,2.37343e+00
1.08560e-01,2.21726e+00
1.11729e-01,2.07080e+00
1.14991e-01,1.93347e+00
1.18349e-01,1.80474e+00
1.21804e-01,1.68408e+00
1.25360e-01,1.57101e+00
1.29020e-01,1.46508e+00
1.32787e-01,1.36586e+00
1.36664e-01,1.27295e+00
1.40654e-01,1.18595e+00
1.44761e-01,1.10453e+00
1.48988e-01,1.02833e+00
1.53338e-01,9.57045e-01
1.57815e-01,8.90372e-01
1.62422e-01,8.28030e-01
1.67164e-01,7.69756e-01
1.72045e-01,7.15298e-01
1.77068e-01,6.64424e-01
1.82238e-01,6.16911e-01
1.87559e-01,5.72552e-01
1.93035e-01,5.31152e-01
1.98671e-01,4.92525e-01
2.04471e-01,4.56500e-01
2.10441e-01,4.22912e-01
2.16585e-01,3.91609e-01
2.22909e-01,3.62447e-01
2.29417e-01,3.35288e-01
2.36115e-01,3.10007e-01
2.43009e-01,2.86482e-01
2.50104e-01,2.64601e-01
2.57407e-01,2.44258e-01
2.64922e-01,2.25353e-01
2.72657e-01,2.07792e-01
2.80617e-01,1.91487e-01
2.88811e-01,1.76355e-01
2.97243e-01,1.62319e-01
3.05921e-01,1.49305e-01
3.14853e-01,1.37245e-01
3.24046e-01,1.26075e-01
3.33507e-01,1.15733e-01
3.43244e-01,1.06165e-01
3.53266e-01,9.73155e-02
3.63580e-01,8.91360e-02
3.74195e-01,8.15794e-02
3.85121e-01,7.46021e-02
3.96365e-01,6.81632e-02
4.07938e-01,6.22243e-02
4.19848e-01,5.67497e-02
4.32106e-01,5.17059e-02
4.44722e-01,4.70614e-02
4.57707e-01,4.27872e-02
4.71070e-01,3.88558e-02
4.84824e-01,3.52419e-02
4.98979e-01,3.19215e-02
5.13548e-01,2.88726e-02
5.28542e-01,2.60746e-02
5.43973e-01,2.35081e-02
5.59855e-01,2.11554e-02
5.76201e-01,1.89999e-02
5.93025e-01,1.70260e-02
6.10339e-01,1.52195e-02
6.28159e-01,1.35671e-02
6.46499e-01,1.20564e-02
6.65375e-01,1.06759e-02
6.84801e-01,9.41523e-03
7.04795e-01,8.26443e-03
7.25373e-01,7.21450e-03
7.46551e-01,6.25707e-03
7.68348e-01,5.38442e-03
7.90782e-01,4.58943e-03
8.13870e-01,3.86552e-03
8.37632e-01,3.20666e-03
8.62088e-01,2.60726e-03
8.87258e-01,2.06220e-03
9.13163e-01,1.56678e-03
9.39825e-01,1.11665e-03
9.67264e-01,7.07863e-04
9.95505e-01,3.36759e-04
1.02457e+00,0.00000e+00
