m1=22995.053, m2=29.105, gsp=2.409, rhosp=1609.894
fGW[Hz],dPh[rad]
2.92068e-03,8.88147e+04
2.98271e-03,8.48549e+04
3.04606e-03,8.10669e+04
3.11075e-03,7.74432e+04
3.17682e-03,7.39768e+04
3.24429e-03,7.06610e+04
3.31319e-03,6.74894e+04
3.38356e-03,6.44559e+04
3.45542e-03,6.15544e+04
3.52881e-03,5.87794e+04
3.60376e-03,5.61254e+04
3.68030e-03,5.35873e+04
3.75846e-03,5.11602e+04
3.83829e-03,4.88392e+04
3.91981e-03,4.66198e+04
4.00306e-03,4.44976e+04
4.08808e-03,4.24686e+04
4.17490e-03,4.05286e+04
4.26357e-03,3.86739e+04
4.35412e-03,3.69009e+04
4.44660e-03,3.52059e+04
4.54104e-03,3.35857e+04
4.63748e-03,3.20370e+04
4.73598e-03,3.05568e+04
4.83656e-03,2.91422e+04
4.93929e-03,2.77902e+04
5.04419e-03,2.64982e+04
5.15132e-03,2.52636e+04
5.26073e-03,2.40840e+04
5.37246e-03,2.29570e+04
5.48656e-03,2.18802e+04
5.60309e-03,2.08516e+04
5.72209e-03,1.98690e+04
5.84362e-03,1.89304e+04
5.96773e-03,1.80341e+04
6.09448e-03,1.71780e+04
6.22391e-03,1.63605e+04
6.35610e-03,1.55799e+04
6.49110e-03,1.48346e+04
6.62896e-03,1.41231e+04
6.76975e-03,1.34439e+04
6.91353e-03,1.27955e+04
7.06036e-03,1.21767e+04
7.21031e-03,1.15862e+04
7.36345e-03,1.10226e+04
7.51984e-03,1.04850e+04
7.67955e-03,9.97197e+03
7.84265e-03,9.48262e+03
8.00922e-03,9.01585e+03
8.17932e-03,8.57069e+03
8.35304e-03,8.14617e+03
8.53045e-03,7.74138e+03
8.71162e-03,7.35547e+03
8.89665e-03,6.98759e+03
9.08560e-03,6.63695e+03
9.27856e-03,6.30278e+03
9.47563e-03,5.98435e+03
9.67688e-03,5.68097e+03
9.88240e-03,5.39196e+03
1.00923e-02,5.11668e+03
1.03066e-02,4.85453e+03
1.05255e-02,4.60490e+03
1.07491e-02,4.36725e+03
1.09774e-02,4.14102e+03
1.12105e-02,3.92572e+03
1.14486e-02,3.72083e+03
1.16918e-02,3.52590e+03
1.19401e-02,3.34048e+03
1.21937e-02,3.16412e+03
1.24527e-02,2.99642e+03
1.27171e-02,2.83698e+03
1.29872e-02,2.68543e+03
1.32631e-02,2.54140e+03
1.35447e-02,2.40454e+03
1.38324e-02,2.27452e+03
1.41262e-02,2.15104e+03
1.44262e-02,2.03377e+03
1.47326e-02,1.92244e+03
1.50455e-02,1.81677e+03
1.53651e-02,1.71648e+03
1.56914e-02,1.62134e+03
1.60247e-02,1.53109e+03
1.63650e-02,1.44550e+03
1.67126e-02,1.36435e+03
1.70675e-02,1.28743e+03
1.74300e-02,1.21454e+03
1.78002e-02,1.14548e+03
1.81782e-02,1.08006e+03
1.85643e-02,1.01812e+03
1.89586e-02,9.59475e+02
1.93613e-02,9.03971e+02
1.97725e-02,8.51453e+02
2.01924e-02,8.01773e+02
2.06213e-02,7.54790e+02
2.10592e-02,7.10370e+02
2.15065e-02,6.68384e+02
2.19633e-02,6.28710e+02
2.24297e-02,5.91232e+02
2.29061e-02,5.55837e+02
2.33926e-02,5.22419e+02
2.38894e-02,4.90877e+02
2.43968e-02,4.61114e+02
2.49150e-02,4.33038e+02
2.54441e-02,4.06561e+02
2.59845e-02,3.81600e+02
2.65364e-02,3.58074e+02
2.71000e-02,3.35907e+02
2.76756e-02,3.15027e+02
2.82633e-02,2.95365e+02
2.88636e-02,2.76856e+02
2.94766e-02,2.59438e+02
3.01027e-02,2.43050e+02
3.07420e-02,2.27636e+02
3.13949e-02,2.13144e+02
3.20617e-02,1.99521e+02
3.27427e-02,1.86720e+02
3.34381e-02,1.74694e+02
3.41483e-02,1.63401e+02
3.48735e-02,1.52798e+02
3.56142e-02,1.42846e+02
3.63706e-02,1.33507e+02
3.71430e-02,1.24748e+02
3.79319e-02,1.16534e+02
3.87375e-02,1.08833e+02
3.95603e-02,1.01615e+02
4.04005e-02,9.48530e+01
4.12585e-02,8.85186e+01
4.21348e-02,8.25869e+01
4.30297e-02,7.70338e+01
4.39436e-02,7.18365e+01
4.48769e-02,6.69736e+01
4.58300e-02,6.24248e+01
4.68033e-02,5.81709e+01
4.77974e-02,5.41939e+01
4.88125e-02,5.04767e+01
4.98492e-02,4.70032e+01
5.09080e-02,4.37582e+01
5.19892e-02,4.07275e+01
5.30934e-02,3.78977e+01
5.42210e-02,3.52560e+01
5.53726e-02,3.27905e+01
5.65486e-02,3.04900e+01
5.77496e-02,2.83440e+01
5.89761e-02,2.63426e+01
6.02287e-02,2.44763e+01
6.15079e-02,2.27366e+01
6.28142e-02,2.11151e+01
6.41483e-02,1.96041e+01
6.55107e-02,1.81964e+01
6.69021e-02,1.68852e+01
6.83230e-02,1.56641e+01
6.97741e-02,1.45272e+01
7.12560e-02,1.34689e+01
7.27694e-02,1.24838e+01
7.43149e-02,1.15672e+01
7.58932e-02,1.07143e+01
7.75051e-02,9.92098e+00
7.91512e-02,9.18311e+00
8.08323e-02,8.49696e+00
8.25490e-02,7.85900e+00
8.43023e-02,7.26594e+00
8.60927e-02,6.71471e+00
8.79212e-02,6.20244e+00
8.97885e-02,5.72644e+00
9.16955e-02,5.28421e+00
9.36430e-02,4.87341e+00
9.56318e-02,4.49186e+00
9.76629e-02,4.13753e+00
9.97371e-02,3.80851e+00
1.01855e-01,3.50304e+00
1.04019e-01,3.21947e+00
1.06228e-01,2.95626e+00
1.08484e-01,2.71197e+00
1.10788e-01,2.48527e+00
1.13141e-01,2.27493e+00
1.15544e-01,2.07977e+00
1.17998e-01,1.89872e+00
1.20504e-01,1.73079e+00
1.23063e-01,1.57503e+00
1.25677e-01,1.43057e+00
1.28346e-01,1.29662e+00
1.31072e-01,1.17241e+00
1.33856e-01,1.05725e+00
1.36699e-01,9.50482e-01
1.39602e-01,8.51512e-01
1.42567e-01,7.59774e-01
1.45595e-01,6.74747e-01
1.48687e-01,5.95945e-01
1.51845e-01,5.22918e-01
1.55070e-01,4.55248e-01
1.58364e-01,3.92547e-01
1.61727e-01,3.34453e-01
1.65162e-01,2.80631e-01
1.68670e-01,2.30770e-01
1.72252e-01,1.84582e-01
1.75911e-01,1.41799e-01
1.79647e-01,1.02172e-01
1.83462e-01,6.54695e-02
1.87359e-01,3.14785e-02
1.91338e-01,0.00000e+00
