m1=1100.823, m2=85.837, gsp=2.037, rhosp=764.653
fGW[Hz],dPh[rad]
4.20078e-03,2.88093e+00
4.34888e-03,2.65942e+00
4.50219e-03,2.45494e+00
4.66092e-03,2.26617e+00
4.82524e-03,2.09193e+00
4.99535e-03,1.93108e+00
5.17146e-03,1.78259e+00
5.35378e-03,1.64553e+00
5.54253e-03,1.51900e+00
5.73793e-03,1.40220e+00
5.94022e-03,1.29438e+00
6.14965e-03,1.19485e+00
6.36645e-03,1.10298e+00
6.59090e-03,1.01816e+00
6.82326e-03,9.39871e-01
7.06382e-03,8.67599e-01
7.31285e-03,8.00884e-01
7.57067e-03,7.39299e-01
7.83757e-03,6.82449e-01
8.11388e-03,6.29970e-01
8.39994e-03,5.81526e-01
8.69608e-03,5.36807e-01
9.00266e-03,4.95526e-01
9.32005e-03,4.57420e-01
9.64863e-03,4.22243e-01
9.98879e-03,3.89772e-01
1.03409e-02,3.59797e-01
1.07055e-02,3.32126e-01
1.10829e-02,3.06584e-01
1.14737e-02,2.83005e-01
1.18782e-02,2.61240e-01
1.22969e-02,2.41148e-01
1.27305e-02,2.22601e-01
1.31793e-02,2.05480e-01
1.36439e-02,1.89676e-01
1.41249e-02,1.75087e-01
1.46229e-02,1.61620e-01
1.51384e-02,1.49188e-01
1.56721e-02,1.37712e-01
1.62246e-02,1.27119e-01
1.67966e-02,1.17341e-01
1.73888e-02,1.08314e-01
1.80019e-02,9.99814e-02
1.86365e-02,9.22897e-02
1.92935e-02,8.51895e-02
1.99737e-02,7.86354e-02
2.06779e-02,7.25852e-02
2.14069e-02,6.70004e-02
2.21616e-02,6.18450e-02
2.29429e-02,5.70862e-02
2.37518e-02,5.26933e-02
2.45891e-02,4.86383e-02
2.54560e-02,4.48952e-02
2.63535e-02,4.14400e-02
2.72826e-02,3.82505e-02
2.82444e-02,3.53063e-02
2.92402e-02,3.25886e-02
3.02710e-02,3.00799e-02
3.13382e-02,2.77643e-02
3.24431e-02,2.56267e-02
3.35868e-02,2.36536e-02
3.47709e-02,2.18322e-02
3.59968e-02,2.01510e-02
3.72659e-02,1.85991e-02
3.85797e-02,1.71666e-02
3.99398e-02,1.58443e-02
4.13479e-02,1.46238e-02
4.28056e-02,1.34972e-02
4.43147e-02,1.24572e-02
4.58770e-02,1.14973e-02
4.74944e-02,1.06112e-02
4.91688e-02,9.79337e-03
5.09023e-02,9.03845e-03
5.26968e-02,8.34162e-03
5.45546e-02,7.69844e-03
5.64780e-02,7.10476e-03
5.84691e-02,6.55678e-03
6.05304e-02,6.05098e-03
6.26644e-02,5.58413e-03
6.48737e-02,5.15321e-03
6.71608e-02,4.75548e-03
6.95285e-02,4.38838e-03
7.19798e-02,4.04954e-03
7.45174e-02,3.73681e-03
7.71445e-02,3.44816e-03
7.98642e-02,3.18174e-03
8.26798e-02,2.93585e-03
8.55947e-02,2.70891e-03
8.86124e-02,2.49945e-03
9.17364e-02,2.30614e-03
9.49705e-02,2.12772e-03
9.83187e-02,1.96306e-03
1.01785e-01,1.81109e-03
1.05373e-01,1.67084e-03
1.09088e-01,1.54141e-03
1.12934e-01,1.42196e-03
1.16916e-01,1.31172e-03
1.21038e-01,1.20999e-03
1.25305e-01,1.11611e-03
1.29722e-01,1.02947e-03
1.34296e-01,9.49524e-04
1.39030e-01,8.75750e-04
1.43932e-01,8.07674e-04
1.49006e-01,7.44857e-04
1.54259e-01,6.86894e-04
1.59698e-01,6.33411e-04
1.65328e-01,5.84062e-04
1.71157e-01,5.38530e-04
1.77191e-01,4.96520e-04
1.83438e-01,4.57760e-04
1.89905e-01,4.22001e-04
1.96600e-01,3.89010e-04
2.03531e-01,3.58575e-04
2.10706e-01,3.30498e-04
2.18135e-01,3.04597e-04
2.25825e-01,2.80706e-04
2.33786e-01,2.58667e-04
2.42029e-01,2.38340e-04
2.50561e-01,2.19591e-04
2.59395e-01,2.02298e-04
2.68540e-01,1.86350e-04
2.78007e-01,1.71642e-04
2.87808e-01,1.58079e-04
2.97955e-01,1.45572e-04
3.08459e-01,1.34040e-04
3.19334e-01,1.23407e-04
3.30592e-01,1.13603e-04
3.42247e-01,1.04565e-04
3.54313e-01,9.62336e-05
3.66804e-01,8.85535e-05
3.79736e-01,8.14745e-05
3.93124e-01,7.49501e-05
4.06983e-01,6.89373e-05
4.21332e-01,6.33965e-05
4.36186e-01,5.82910e-05
4.51563e-01,5.35870e-05
4.67483e-01,4.92535e-05
4.83964e-01,4.52615e-05
5.01026e-01,4.15847e-05
5.18690e-01,3.81984e-05
5.36976e-01,3.50801e-05
5.55908e-01,3.22089e-05
5.75506e-01,2.95655e-05
5.95795e-01,2.71322e-05
6.16800e-01,2.48927e-05
6.38546e-01,2.28317e-05
6.61057e-01,2.09353e-05
6.84363e-01,1.91907e-05
7.08490e-01,1.75859e-05
7.33468e-01,1.61101e-05
7.59326e-01,1.47530e-05
7.86096e-01,1.35054e-05
8.13810e-01,1.23587e-05
8.42501e-01,1.13049e-05
8.72203e-01,1.03367e-05
9.02953e-01,9.44735e-06
9.34787e-01,8.63062e-06
9.67742e-01,7.88076e-06
1.00186e+00,7.19248e-06
1.03718e+00,6.56087e-06
1.07375e+00,5.98144e-06
1.11160e+00,5.45003e-06
1.15079e+00,4.96281e-06
1.19136e+00,4.51624e-06
1.23336e+00,4.10706e-06
1.27685e+00,3.73227e-06
1.32186e+00,3.38910e-06
1.36846e+00,3.07500e-06
1.41671e+00,2.78762e-06
1.46665e+00,2.52478e-06
1.51836e+00,2.28449e-06
1.57189e+00,2.06491e-06
1.62731e+00,1.86435e-06
1.68468e+00,1.68123e-06
1.74407e+00,1.51413e-06
1.80556e+00,1.36171e-06
1.86921e+00,1.22275e-06
1.93511e+00,1.09614e-06
2.00334e+00,9.80841e-07
2.07396e+00,8.75895e-07
2.14708e+00,7.80430e-07
2.22278e+00,6.93641e-07
2.30114e+00,6.14787e-07
2.38227e+00,5.43187e-07
2.46625e+00,4.78215e-07
2.55320e+00,4.19297e-07
2.64321e+00,3.65903e-07
2.73640e+00,3.17550e-07
2.83287e+00,2.73791e-07
2.93274e+00,2.34218e-07
3.03614e+00,1.98457e-07
3.14318e+00,1.66164e-07
3.25399e+00,1.37025e-07
3.36871e+00,1.10751e-07
3.48747e+00,8.70792e-08
3.61042e+00,6.57682e-08
3.73771e+00,4.65976e-08
3.86948e+00,2.93658e-08
4.00590e+00,1.38892e-08
4.14713e+00,0.00000e+00
