m1=37692.839, m2=6.519, gsp=2.045, rhosp=21.048
fGW[Hz],dPh[rad]
4.52311e-03,1.69234e+02
4.59759e-03,1.61173e+02
4.67330e-03,1.53473e+02
4.75025e-03,1.46118e+02
4.82847e-03,1.39095e+02
4.90798e-03,1.32388e+02
4.98879e-03,1.25985e+02
5.07094e-03,1.19874e+02
5.15444e-03,1.14040e+02
5.23931e-03,1.08474e+02
5.32559e-03,1.03163e+02
5.41328e-03,9.80964e+01
5.50241e-03,9.32638e+01
5.59302e-03,8.86551e+01
5.68511e-03,8.42607e+01
5.77873e-03,8.00712e+01
5.87388e-03,7.60778e+01
5.97060e-03,7.22719e+01
6.06892e-03,6.86453e+01
6.16885e-03,6.51901e+01
6.27043e-03,6.18989e+01
6.37368e-03,5.87642e+01
6.47863e-03,5.57793e+01
6.58531e-03,5.29374e+01
6.69374e-03,5.02322e+01
6.80396e-03,4.76575e+01
6.91600e-03,4.52074e+01
7.02988e-03,4.28764e+01
7.14564e-03,4.06589e+01
7.26330e-03,3.85500e+01
7.38290e-03,3.65445e+01
7.50447e-03,3.46378e+01
7.62804e-03,3.28253e+01
7.75364e-03,3.11027e+01
7.88132e-03,2.94658e+01
8.01109e-03,2.79106e+01
8.14300e-03,2.64333e+01
8.27709e-03,2.50302e+01
8.41338e-03,2.36979e+01
8.55192e-03,2.24330e+01
8.69274e-03,2.12323e+01
8.83587e-03,2.00928e+01
8.98137e-03,1.90115e+01
9.12926e-03,1.79856e+01
9.27958e-03,1.70125e+01
9.43238e-03,1.60896e+01
9.58770e-03,1.52145e+01
9.74557e-03,1.43849e+01
9.90605e-03,1.35984e+01
1.00692e-02,1.28531e+01
1.02350e-02,1.21469e+01
1.04035e-02,1.14778e+01
1.05748e-02,1.08440e+01
1.07489e-02,1.02437e+01
1.09259e-02,9.67533e+00
1.11058e-02,9.13719e+00
1.12887e-02,8.62780e+00
1.14746e-02,8.14568e+00
1.16635e-02,7.68946e+00
1.18556e-02,7.25782e+00
1.20508e-02,6.84950e+00
1.22492e-02,6.46330e+00
1.24509e-02,6.09808e+00
1.26560e-02,5.75276e+00
1.28644e-02,5.42631e+00
1.30762e-02,5.11774e+00
1.32915e-02,4.82611e+00
1.35104e-02,4.55055e+00
1.37328e-02,4.29020e+00
1.39590e-02,4.04426e+00
1.41888e-02,3.81197e+00
1.44224e-02,3.59261e+00
1.46599e-02,3.38548e+00
1.49013e-02,3.18993e+00
1.51467e-02,3.00534e+00
1.53961e-02,2.83111e+00
1.56496e-02,2.66670e+00
1.59073e-02,2.51157e+00
1.61692e-02,2.36521e+00
1.64355e-02,2.22715e+00
1.67061e-02,2.09693e+00
1.69812e-02,1.97413e+00
1.72608e-02,1.85833e+00
1.75450e-02,1.74915e+00
1.78339e-02,1.64623e+00
1.81276e-02,1.54921e+00
1.84261e-02,1.45778e+00
1.87295e-02,1.37162e+00
1.90379e-02,1.29043e+00
1.93514e-02,1.21394e+00
1.96700e-02,1.14188e+00
1.99939e-02,1.07400e+00
2.03232e-02,1.01007e+00
2.06578e-02,9.49872e-01
2.09980e-02,8.93184e-01
2.13437e-02,8.39809e-01
2.16952e-02,7.89560e-01
2.20524e-02,7.42259e-01
2.24155e-02,6.97736e-01
2.27846e-02,6.55833e-01
2.31598e-02,6.16399e-01
2.35412e-02,5.79292e-01
2.39288e-02,5.44378e-01
2.43228e-02,5.11530e-01
2.47233e-02,4.80630e-01
2.51304e-02,4.51563e-01
2.55442e-02,4.24224e-01
2.59648e-02,3.98511e-01
2.63924e-02,3.74331e-01
2.68270e-02,3.51593e-01
2.72687e-02,3.30213e-01
2.77177e-02,3.10112e-01
2.81741e-02,2.91214e-01
2.86381e-02,2.73449e-01
2.91096e-02,2.56751e-01
2.95889e-02,2.41055e-01
3.00762e-02,2.26304e-01
3.05714e-02,2.12440e-01
3.10748e-02,1.99412e-01
3.15865e-02,1.87170e-01
3.21066e-02,1.75668e-01
3.26353e-02,1.64860e-01
3.31727e-02,1.54707e-01
3.37189e-02,1.45168e-01
3.42741e-02,1.36208e-01
3.48385e-02,1.27791e-01
3.54121e-02,1.19885e-01
3.59953e-02,1.12460e-01
3.65880e-02,1.05486e-01
3.71904e-02,9.89370e-02
3.78028e-02,9.27867e-02
3.84253e-02,8.70114e-02
3.90580e-02,8.15883e-02
3.97011e-02,7.64964e-02
4.03549e-02,7.17156e-02
4.10194e-02,6.72270e-02
4.16948e-02,6.30131e-02
4.23814e-02,5.90571e-02
4.30792e-02,5.53435e-02
4.37886e-02,5.18575e-02
4.45096e-02,4.85853e-02
4.52425e-02,4.55139e-02
4.59875e-02,4.26311e-02
4.67447e-02,3.99255e-02
4.75145e-02,3.73862e-02
4.82968e-02,3.50031e-02
4.90921e-02,3.27666e-02
4.99005e-02,3.06679e-02
5.07221e-02,2.86984e-02
5.15574e-02,2.68504e-02
5.24063e-02,2.51163e-02
5.32692e-02,2.34891e-02
5.41464e-02,2.19624e-02
5.50380e-02,2.05300e-02
5.59443e-02,1.91861e-02
5.68654e-02,1.79252e-02
5.78018e-02,1.67423e-02
5.87536e-02,1.56325e-02
5.97210e-02,1.45914e-02
6.07044e-02,1.36148e-02
6.17040e-02,1.26986e-02
6.27200e-02,1.18392e-02
6.37528e-02,1.10330e-02
6.48026e-02,1.02768e-02
6.58696e-02,9.56751e-03
6.69543e-02,8.90220e-03
6.80567e-02,8.27818e-03
6.91774e-02,7.69288e-03
7.03165e-02,7.14393e-03
7.14743e-02,6.62906e-03
7.26512e-02,6.14618e-03
7.38475e-02,5.69331e-03
7.50635e-02,5.26858e-03
7.62996e-02,4.87027e-03
7.75559e-02,4.49672e-03
7.88330e-02,4.14641e-03
8.01311e-02,3.81789e-03
8.14505e-02,3.50982e-03
8.27917e-02,3.22093e-03
8.41550e-02,2.95002e-03
8.55407e-02,2.69599e-03
8.69492e-02,2.45777e-03
8.83810e-02,2.23440e-03
8.98363e-02,2.02495e-03
9.13155e-02,1.82856e-03
9.28192e-02,1.64440e-03
9.43476e-02,1.47173e-03
9.59011e-02,1.30983e-03
9.74802e-02,1.15803e-03
9.90854e-02,1.01569e-03
1.00717e-01,8.82241e-04
1.02375e-01,7.57117e-04
1.04061e-01,6.39802e-04
1.05775e-01,5.29811e-04
1.07516e-01,4.26687e-04
1.09287e-01,3.30003e-04
1.11086e-01,2.39356e-04
1.12915e-01,1.54372e-04
1.14775e-01,7.46971e-05
1.16665e-01,0.00000e+00
