m1=42030.240, m2=86.342, gsp=2.237, rhosp=14.835
fGW[Hz],dPh[rad]
1.67089e-03,7.21746e+02
1.70600e-03,6.88643e+02
1.74184e-03,6.57029e+02
1.77844e-03,6.26836e+02
1.81581e-03,5.98003e+02
1.85396e-03,5.70469e+02
1.89292e-03,5.44175e+02
1.93269e-03,5.19066e+02
1.97330e-03,4.95091e+02
2.01476e-03,4.72197e+02
2.05709e-03,4.50337e+02
2.10031e-03,4.29466e+02
2.14445e-03,4.09538e+02
2.18950e-03,3.90512e+02
2.23551e-03,3.72347e+02
2.28248e-03,3.55006e+02
2.33044e-03,3.38450e+02
2.37940e-03,3.22646e+02
2.42940e-03,3.07560e+02
2.48044e-03,2.93160e+02
2.53256e-03,2.79414e+02
2.58578e-03,2.66294e+02
2.64011e-03,2.53772e+02
2.69558e-03,2.41821e+02
2.75222e-03,2.30415e+02
2.81005e-03,2.19530e+02
2.86909e-03,2.09143e+02
2.92937e-03,1.99231e+02
2.99092e-03,1.89774e+02
3.05377e-03,1.80750e+02
3.11793e-03,1.72140e+02
3.18344e-03,1.63926e+02
3.25033e-03,1.56090e+02
3.31863e-03,1.48615e+02
3.38836e-03,1.41484e+02
3.45955e-03,1.34683e+02
3.53224e-03,1.28196e+02
3.60646e-03,1.22009e+02
3.68224e-03,1.16109e+02
3.75961e-03,1.10483e+02
3.83860e-03,1.05118e+02
3.91925e-03,1.00003e+02
4.00160e-03,9.51264e+01
4.08568e-03,9.04771e+01
4.17153e-03,8.60452e+01
4.25918e-03,8.18207e+01
4.34867e-03,7.77942e+01
4.44004e-03,7.39568e+01
4.53334e-03,7.02999e+01
4.62859e-03,6.68153e+01
4.72584e-03,6.34952e+01
4.82514e-03,6.03320e+01
4.92652e-03,5.73187e+01
5.03004e-03,5.44484e+01
5.13573e-03,5.17146e+01
5.24363e-03,4.91110e+01
5.35381e-03,4.66317e+01
5.46630e-03,4.42711e+01
5.58116e-03,4.20236e+01
5.69843e-03,3.98840e+01
5.81816e-03,3.78475e+01
5.94041e-03,3.59093e+01
6.06522e-03,3.40648e+01
6.19266e-03,3.23097e+01
6.32278e-03,3.06399e+01
6.45563e-03,2.90515e+01
6.59128e-03,2.75407e+01
6.72977e-03,2.61039e+01
6.87117e-03,2.47375e+01
7.01554e-03,2.34385e+01
7.16295e-03,2.22036e+01
7.31346e-03,2.10298e+01
7.46712e-03,1.99143e+01
7.62402e-03,1.88543e+01
7.78421e-03,1.78473e+01
7.94777e-03,1.68907e+01
8.11476e-03,1.59821e+01
8.28527e-03,1.51194e+01
8.45935e-03,1.43002e+01
8.63710e-03,1.35227e+01
8.81857e-03,1.27846e+01
9.00387e-03,1.20843e+01
9.19305e-03,1.14198e+01
9.38621e-03,1.07895e+01
9.58343e-03,1.01918e+01
9.78479e-03,9.62494e+00
9.99039e-03,9.08757e+00
1.02003e-02,8.57823e+00
1.04146e-02,8.09555e+00
1.06334e-02,7.63823e+00
1.08569e-02,7.20503e+00
1.10850e-02,6.79478e+00
1.13179e-02,6.40634e+00
1.15557e-02,6.03863e+00
1.17985e-02,5.69062e+00
1.20464e-02,5.36134e+00
1.22995e-02,5.04985e+00
1.25580e-02,4.75526e+00
1.28218e-02,4.47672e+00
1.30912e-02,4.21342e+00
1.33663e-02,3.96458e+00
1.36471e-02,3.72948e+00
1.39339e-02,3.50740e+00
1.42267e-02,3.29769e+00
1.45256e-02,3.09970e+00
1.48308e-02,2.91283e+00
1.51424e-02,2.73650e+00
1.54606e-02,2.57016e+00
1.57854e-02,2.41329e+00
1.61171e-02,2.26538e+00
1.64557e-02,2.12597e+00
1.68015e-02,1.99460e+00
1.71545e-02,1.87084e+00
1.75150e-02,1.75429e+00
1.78830e-02,1.64455e+00
1.82587e-02,1.54126e+00
1.86424e-02,1.44407e+00
1.90341e-02,1.35264e+00
1.94340e-02,1.26665e+00
1.98424e-02,1.18580e+00
2.02593e-02,1.10982e+00
2.06850e-02,1.03842e+00
2.11196e-02,9.71351e-01
2.15633e-02,9.08367e-01
2.20164e-02,8.49237e-01
2.24790e-02,7.93741e-01
2.29513e-02,7.41670e-01
2.34336e-02,6.92828e-01
2.39259e-02,6.47027e-01
2.44287e-02,6.04091e-01
2.49419e-02,5.63851e-01
2.54660e-02,5.26150e-01
2.60011e-02,4.90837e-01
2.65474e-02,4.57770e-01
2.71052e-02,4.26815e-01
2.76747e-02,3.97846e-01
2.82562e-02,3.70742e-01
2.88499e-02,3.45391e-01
2.94561e-02,3.21685e-01
3.00750e-02,2.99525e-01
3.07070e-02,2.78814e-01
3.13522e-02,2.59463e-01
3.20109e-02,2.41387e-01
3.26835e-02,2.24508e-01
3.33702e-02,2.08750e-01
3.40714e-02,1.94041e-01
3.47873e-02,1.80317e-01
3.55182e-02,1.67513e-01
3.62645e-02,1.55572e-01
3.70265e-02,1.44437e-01
3.78045e-02,1.34058e-01
3.85988e-02,1.24384e-01
3.94098e-02,1.15371e-01
4.02379e-02,1.06974e-01
4.10833e-02,9.91540e-02
4.19466e-02,9.18723e-02
4.28279e-02,8.50936e-02
4.37278e-02,7.87844e-02
4.46466e-02,7.29135e-02
4.55847e-02,6.74515e-02
4.65425e-02,6.23709e-02
4.75204e-02,5.76462e-02
4.85189e-02,5.32532e-02
4.95383e-02,4.91694e-02
5.05792e-02,4.53737e-02
5.16420e-02,4.18466e-02
5.27270e-02,3.85695e-02
5.38349e-02,3.55253e-02
5.49661e-02,3.26979e-02
5.61210e-02,3.00724e-02
5.73002e-02,2.76347e-02
5.85041e-02,2.53717e-02
5.97334e-02,2.32713e-02
6.09885e-02,2.13220e-02
6.22699e-02,1.95133e-02
6.35783e-02,1.78353e-02
6.49142e-02,1.62788e-02
6.62781e-02,1.48351e-02
6.76707e-02,1.34963e-02
6.90926e-02,1.22549e-02
7.05443e-02,1.11040e-02
7.20266e-02,1.00371e-02
7.35400e-02,9.04816e-03
7.50852e-02,8.13167e-03
7.66628e-02,7.28238e-03
7.82736e-02,6.49546e-03
7.99183e-02,5.76641e-03
8.15975e-02,5.09104e-03
8.33120e-02,4.46547e-03
8.50625e-02,3.88609e-03
8.68498e-02,3.34954e-03
8.86746e-02,2.85269e-03
9.05378e-02,2.39266e-03
9.24401e-02,1.96676e-03
9.43824e-02,1.57248e-03
9.63655e-02,1.20751e-03
9.83903e-02,8.69708e-04
1.00458e-01,5.57066e-04
1.02568e-01,2.67736e-04
1.04724e-01,0.00000e+00
