m1=823052.874, m2=84.399, gsp=2.159, rhosp=4573.883
fGW[Hz],dPh[rad]
8.00909e-04,7.82374e+02
8.08583e-04,7.55185e+02
8.16331e-04,7.28923e+02
8.24153e-04,7.03556e+02
8.32050e-04,6.79055e+02
8.40023e-04,6.55391e+02
8.48072e-04,6.32537e+02
8.56198e-04,6.10464e+02
8.64402e-04,5.89148e+02
8.72685e-04,5.68563e+02
8.81047e-04,5.48684e+02
8.89489e-04,5.29488e+02
8.98012e-04,5.10952e+02
9.06617e-04,4.93053e+02
9.15304e-04,4.75771e+02
9.24074e-04,4.59084e+02
9.32928e-04,4.42973e+02
9.41868e-04,4.27417e+02
9.50893e-04,4.12399e+02
9.60004e-04,3.97900e+02
9.69203e-04,3.83903e+02
9.78489e-04,3.70390e+02
9.87865e-04,3.57345e+02
9.97331e-04,3.44753e+02
1.00689e-03,3.32597e+02
1.01654e-03,3.20863e+02
1.02628e-03,3.09537e+02
1.03611e-03,2.98605e+02
1.04604e-03,2.88053e+02
1.05606e-03,2.77868e+02
1.06618e-03,2.68038e+02
1.07640e-03,2.58551e+02
1.08671e-03,2.49395e+02
1.09712e-03,2.40558e+02
1.10763e-03,2.32030e+02
1.11825e-03,2.23800e+02
1.12896e-03,2.15857e+02
1.13978e-03,2.08193e+02
1.15070e-03,2.00797e+02
1.16173e-03,1.93660e+02
1.17286e-03,1.86773e+02
1.18410e-03,1.80128e+02
1.19544e-03,1.73715e+02
1.20690e-03,1.67528e+02
1.21846e-03,1.61559e+02
1.23014e-03,1.55799e+02
1.24192e-03,1.50241e+02
1.25382e-03,1.44880e+02
1.26584e-03,1.39707e+02
1.27797e-03,1.34716e+02
1.29021e-03,1.29901e+02
1.30258e-03,1.25256e+02
1.31506e-03,1.20774e+02
1.32766e-03,1.16451e+02
1.34038e-03,1.12281e+02
1.35322e-03,1.08257e+02
1.36619e-03,1.04376e+02
1.37928e-03,1.00633e+02
1.39250e-03,9.70212e+01
1.40584e-03,9.35377e+01
1.41931e-03,9.01774e+01
1.43291e-03,8.69362e+01
1.44664e-03,8.38099e+01
1.46050e-03,8.07943e+01
1.47450e-03,7.78858e+01
1.48862e-03,7.50804e+01
1.50289e-03,7.23746e+01
1.51729e-03,6.97649e+01
1.53183e-03,6.72478e+01
1.54651e-03,6.48203e+01
1.56132e-03,6.24790e+01
1.57628e-03,6.02210e+01
1.59139e-03,5.80433e+01
1.60664e-03,5.59431e+01
1.62203e-03,5.39177e+01
1.63757e-03,5.19645e+01
1.65326e-03,5.00808e+01
1.66911e-03,4.82642e+01
1.68510e-03,4.65125e+01
1.70125e-03,4.48232e+01
1.71755e-03,4.31941e+01
1.73400e-03,4.16232e+01
1.75062e-03,4.01084e+01
1.76739e-03,3.86477e+01
1.78433e-03,3.72391e+01
1.80143e-03,3.58809e+01
1.81869e-03,3.45712e+01
1.83611e-03,3.33084e+01
1.85371e-03,3.20907e+01
1.87147e-03,3.09166e+01
1.88940e-03,2.97845e+01
1.90751e-03,2.86929e+01
1.92578e-03,2.76404e+01
1.94424e-03,2.66256e+01
1.96287e-03,2.56472e+01
1.98167e-03,2.47038e+01
2.00066e-03,2.37942e+01
2.01983e-03,2.29173e+01
2.03919e-03,2.20717e+01
2.05873e-03,2.12566e+01
2.07845e-03,2.04706e+01
2.09837e-03,1.97129e+01
2.11847e-03,1.89824e+01
2.13877e-03,1.82781e+01
2.15927e-03,1.75991e+01
2.17996e-03,1.69445e+01
2.20084e-03,1.63134e+01
2.22193e-03,1.57050e+01
2.24322e-03,1.51184e+01
2.26472e-03,1.45530e+01
2.28642e-03,1.40079e+01
2.30833e-03,1.34823e+01
2.33044e-03,1.29757e+01
2.35277e-03,1.24874e+01
2.37532e-03,1.20166e+01
2.39808e-03,1.15627e+01
2.42106e-03,1.11252e+01
2.44426e-03,1.07034e+01
2.46768e-03,1.02969e+01
2.49132e-03,9.90496e+00
2.51519e-03,9.52717e+00
2.53929e-03,9.16298e+00
2.56362e-03,8.81193e+00
2.58819e-03,8.47353e+00
2.61299e-03,8.14733e+00
2.63803e-03,7.83290e+00
2.66330e-03,7.52981e+00
2.68882e-03,7.23765e+00
2.71459e-03,6.95603e+00
2.74060e-03,6.68458e+00
2.76686e-03,6.42292e+00
2.79337e-03,6.17071e+00
2.82014e-03,5.92760e+00
2.84716e-03,5.69327e+00
2.87444e-03,5.46741e+00
2.90198e-03,5.24970e+00
2.92979e-03,5.03986e+00
2.95786e-03,4.83760e+00
2.98620e-03,4.64264e+00
3.01482e-03,4.45474e+00
3.04371e-03,4.27362e+00
3.07287e-03,4.09905e+00
3.10231e-03,3.93080e+00
3.13204e-03,3.76862e+00
3.16205e-03,3.61232e+00
3.19235e-03,3.46166e+00
3.22294e-03,3.31645e+00
3.25382e-03,3.17650e+00
3.28500e-03,3.04161e+00
3.31648e-03,2.91160e+00
3.34825e-03,2.78630e+00
3.38034e-03,2.66553e+00
3.41273e-03,2.54914e+00
3.44543e-03,2.43695e+00
3.47844e-03,2.32883e+00
3.51177e-03,2.22463e+00
3.54542e-03,2.12419e+00
3.57939e-03,2.02740e+00
3.61369e-03,1.93411e+00
3.64832e-03,1.84420e+00
3.68327e-03,1.75755e+00
3.71857e-03,1.67403e+00
3.75420e-03,1.59354e+00
3.79017e-03,1.51597e+00
3.82649e-03,1.44121e+00
3.86315e-03,1.36916e+00
3.90017e-03,1.29973e+00
3.93754e-03,1.23280e+00
3.97527e-03,1.16831e+00
4.01336e-03,1.10615e+00
4.05182e-03,1.04625e+00
4.09064e-03,9.88521e-01
4.12984e-03,9.32884e-01
4.16941e-03,8.79265e-01
4.20936e-03,8.27591e-01
4.24969e-03,7.77792e-01
4.29041e-03,7.29799e-01
4.33152e-03,6.83547e-01
4.37303e-03,6.38974e-01
4.41493e-03,5.96018e-01
4.45723e-03,5.54620e-01
4.49994e-03,5.14725e-01
4.54306e-03,4.76278e-01
4.58659e-03,4.39227e-01
4.63054e-03,4.03520e-01
4.67491e-03,3.69110e-01
4.71970e-03,3.35949e-01
4.76493e-03,3.03991e-01
4.81058e-03,2.73195e-01
4.85668e-03,2.43516e-01
4.90322e-03,2.14915e-01
4.95020e-03,1.87353e-01
4.99763e-03,1.60791e-01
5.04552e-03,1.35195e-01
5.09386e-03,1.10528e-01
5.14267e-03,8.67566e-02
5.19195e-03,6.38491e-02
5.24170e-03,4.17738e-02
5.29192e-03,2.05004e-02
5.34263e-03,0.00000e+00
