m1=365787.831, m2=5.663, gsp=2.224, rhosp=3675.379
fGW[Hz],dPh[rad]
2.70150e-03,2.47144e+03
2.72184e-03,2.40129e+03
2.74234e-03,2.33313e+03
2.76299e-03,2.26688e+03
2.78379e-03,2.20251e+03
2.80475e-03,2.13995e+03
2.82587e-03,2.07916e+03
2.84715e-03,2.02008e+03
2.86859e-03,1.96267e+03
2.89019e-03,1.90689e+03
2.91195e-03,1.85267e+03
2.93388e-03,1.79999e+03
2.95597e-03,1.74880e+03
2.97823e-03,1.69905e+03
3.00066e-03,1.65071e+03
3.02325e-03,1.60374e+03
3.04602e-03,1.55809e+03
3.06895e-03,1.51373e+03
3.09206e-03,1.47062e+03
3.11534e-03,1.42874e+03
3.13880e-03,1.38803e+03
3.16244e-03,1.34848e+03
3.18625e-03,1.31005e+03
3.21024e-03,1.27270e+03
3.23441e-03,1.23641e+03
3.25877e-03,1.20115e+03
3.28331e-03,1.16688e+03
3.30803e-03,1.13358e+03
3.33294e-03,1.10122e+03
3.35804e-03,1.06978e+03
3.38332e-03,1.03923e+03
3.40880e-03,1.00954e+03
3.43447e-03,9.80695e+02
3.46033e-03,9.52664e+02
3.48638e-03,9.25427e+02
3.51263e-03,8.98960e+02
3.53908e-03,8.73242e+02
3.56573e-03,8.48252e+02
3.59258e-03,8.23969e+02
3.61963e-03,8.00374e+02
3.64689e-03,7.77447e+02
3.67435e-03,7.55169e+02
3.70202e-03,7.33522e+02
3.72989e-03,7.12488e+02
3.75798e-03,6.92050e+02
3.78628e-03,6.72190e+02
3.81479e-03,6.52893e+02
3.84351e-03,6.34143e+02
3.87245e-03,6.15923e+02
3.90161e-03,5.98220e+02
3.93099e-03,5.81019e+02
3.96059e-03,5.64304e+02
3.99041e-03,5.48064e+02
4.02046e-03,5.32283e+02
4.05073e-03,5.16950e+02
4.08124e-03,5.02051e+02
4.11197e-03,4.87574e+02
4.14293e-03,4.73508e+02
4.17413e-03,4.59840e+02
4.20556e-03,4.46560e+02
4.23722e-03,4.33657e+02
4.26913e-03,4.21119e+02
4.30128e-03,4.08936e+02
4.33366e-03,3.97099e+02
4.36630e-03,3.85598e+02
4.39917e-03,3.74423e+02
4.43230e-03,3.63564e+02
4.46567e-03,3.53014e+02
4.49930e-03,3.42763e+02
4.53318e-03,3.32802e+02
4.56731e-03,3.23124e+02
4.60170e-03,3.13720e+02
4.63635e-03,3.04584e+02
4.67127e-03,2.95706e+02
4.70644e-03,2.87080e+02
4.74188e-03,2.78699e+02
4.77758e-03,2.70556e+02
4.81356e-03,2.62644e+02
4.84980e-03,2.54956e+02
4.88632e-03,2.47486e+02
4.92312e-03,2.40229e+02
4.96019e-03,2.33177e+02
4.99754e-03,2.26325e+02
5.03517e-03,2.19668e+02
5.07308e-03,2.13200e+02
5.11128e-03,2.06915e+02
5.14977e-03,2.00809e+02
5.18855e-03,1.94876e+02
5.22762e-03,1.89111e+02
5.26698e-03,1.83510e+02
5.30664e-03,1.78068e+02
5.34660e-03,1.72781e+02
5.38686e-03,1.67644e+02
5.42742e-03,1.62652e+02
5.46829e-03,1.57802e+02
5.50946e-03,1.53090e+02
5.55095e-03,1.48512e+02
5.59275e-03,1.44064e+02
5.63486e-03,1.39742e+02
5.67729e-03,1.35542e+02
5.72004e-03,1.31462e+02
5.76311e-03,1.27498e+02
5.80650e-03,1.23647e+02
5.85023e-03,1.19905e+02
5.89428e-03,1.16269e+02
5.93866e-03,1.12736e+02
5.98338e-03,1.09304e+02
6.02843e-03,1.05969e+02
6.07383e-03,1.02729e+02
6.11956e-03,9.95808e+01
6.16564e-03,9.65222e+01
6.21207e-03,9.35505e+01
6.25884e-03,9.06632e+01
6.30597e-03,8.78579e+01
6.35346e-03,8.51323e+01
6.40130e-03,8.24841e+01
6.44950e-03,7.99112e+01
6.49806e-03,7.74114e+01
6.54699e-03,7.49826e+01
6.59629e-03,7.26229e+01
6.64596e-03,7.03301e+01
6.69600e-03,6.81026e+01
6.74642e-03,6.59383e+01
6.79722e-03,6.38355e+01
6.84840e-03,6.17925e+01
6.89997e-03,5.98075e+01
6.95193e-03,5.78790e+01
7.00428e-03,5.60052e+01
7.05702e-03,5.41848e+01
7.11016e-03,5.24160e+01
7.16369e-03,5.06975e+01
7.21764e-03,4.90279e+01
7.27198e-03,4.74057e+01
7.32674e-03,4.58296e+01
7.38191e-03,4.42984e+01
7.43750e-03,4.28106e+01
7.49350e-03,4.13652e+01
7.54992e-03,3.99608e+01
7.60677e-03,3.85963e+01
7.66405e-03,3.72707e+01
7.72176e-03,3.59827e+01
7.77991e-03,3.47313e+01
7.83849e-03,3.35156e+01
7.89751e-03,3.23343e+01
7.95698e-03,3.11867e+01
8.01689e-03,3.00717e+01
8.07726e-03,2.89884e+01
8.13808e-03,2.79359e+01
8.19936e-03,2.69133e+01
8.26110e-03,2.59198e+01
8.32330e-03,2.49545e+01
8.38598e-03,2.40167e+01
8.44912e-03,2.31056e+01
8.51274e-03,2.22203e+01
8.57684e-03,2.13602e+01
8.64143e-03,2.05246e+01
8.70650e-03,1.97128e+01
8.77205e-03,1.89240e+01
8.83811e-03,1.81577e+01
8.90466e-03,1.74132e+01
8.97171e-03,1.66898e+01
9.03926e-03,1.59870e+01
9.10733e-03,1.53042e+01
9.17591e-03,1.46408e+01
9.24500e-03,1.39963e+01
9.31461e-03,1.33701e+01
9.38475e-03,1.27617e+01
9.45542e-03,1.21706e+01
9.52662e-03,1.15964e+01
9.59835e-03,1.10384e+01
9.67062e-03,1.04964e+01
9.74344e-03,9.96971e+00
9.81681e-03,9.45804e+00
9.89073e-03,8.96093e+00
9.96521e-03,8.47796e+00
1.00402e-02,8.00872e+00
1.01158e-02,7.55283e+00
1.01920e-02,7.10991e+00
1.02688e-02,6.67959e+00
1.03461e-02,6.26151e+00
1.04240e-02,5.85532e+00
1.05025e-02,5.46069e+00
1.05816e-02,5.07728e+00
1.06612e-02,4.70478e+00
1.07415e-02,4.34288e+00
1.08224e-02,3.99127e+00
1.09039e-02,3.64967e+00
1.09860e-02,3.31778e+00
1.10687e-02,2.99533e+00
1.11521e-02,2.68206e+00
1.12360e-02,2.37770e+00
1.13206e-02,2.08200e+00
1.14059e-02,1.79472e+00
1.14918e-02,1.51560e+00
1.15783e-02,1.24443e+00
1.16655e-02,9.80974e-01
1.17533e-02,7.25012e-01
1.18418e-02,4.76333e-01
1.19310e-02,2.34729e-01
1.20208e-02,0.00000e+00
