m1=97368.880, m2=21.751, gsp=2.474, rhosp=771.257
fGW[Hz],dPh[rad]
2.27070e-03,4.17959e+05
2.30508e-03,4.00419e+05
2.33998e-03,3.83562e+05
2.37540e-03,3.67364e+05
2.41136e-03,3.51803e+05
2.44787e-03,3.36854e+05
2.48493e-03,3.22496e+05
2.52255e-03,3.08708e+05
2.56074e-03,2.95469e+05
2.59951e-03,2.82758e+05
2.63887e-03,2.70558e+05
2.67882e-03,2.58848e+05
2.71937e-03,2.47611e+05
2.76055e-03,2.36830e+05
2.80234e-03,2.26487e+05
2.84477e-03,2.16566e+05
2.88783e-03,2.07051e+05
2.93155e-03,1.97928e+05
2.97594e-03,1.89181e+05
3.02099e-03,1.80796e+05
3.06673e-03,1.72759e+05
3.11316e-03,1.65058e+05
3.16029e-03,1.57678e+05
3.20813e-03,1.50609e+05
3.25670e-03,1.43837e+05
3.30601e-03,1.37351e+05
3.35606e-03,1.31141e+05
3.40687e-03,1.25195e+05
3.45845e-03,1.19503e+05
3.51081e-03,1.14055e+05
3.56396e-03,1.08841e+05
3.61792e-03,1.03852e+05
3.67269e-03,9.90790e+04
3.72830e-03,9.45135e+04
3.78474e-03,9.01469e+04
3.84204e-03,8.59713e+04
3.90021e-03,8.19789e+04
3.95925e-03,7.81623e+04
4.01920e-03,7.45141e+04
4.08005e-03,7.10276e+04
4.14182e-03,6.76960e+04
4.20452e-03,6.45129e+04
4.26818e-03,6.14722e+04
4.33279e-03,5.85679e+04
4.39839e-03,5.57943e+04
4.46498e-03,5.31458e+04
4.53258e-03,5.06173e+04
4.60120e-03,4.82035e+04
4.67086e-03,4.58997e+04
4.74158e-03,4.37011e+04
4.81336e-03,4.16032e+04
4.88623e-03,3.96017e+04
4.96021e-03,3.76924e+04
5.03531e-03,3.58713e+04
5.11154e-03,3.41346e+04
5.18892e-03,3.24785e+04
5.26748e-03,3.08996e+04
5.34723e-03,2.93944e+04
5.42819e-03,2.79598e+04
5.51037e-03,2.65924e+04
5.59379e-03,2.52895e+04
5.67848e-03,2.40480e+04
5.76445e-03,2.28652e+04
5.85172e-03,2.17386e+04
5.94031e-03,2.06655e+04
6.03025e-03,1.96435e+04
6.12154e-03,1.86704e+04
6.21422e-03,1.77438e+04
6.30830e-03,1.68618e+04
6.40381e-03,1.60221e+04
6.50076e-03,1.52230e+04
6.59918e-03,1.44624e+04
6.69909e-03,1.37387e+04
6.80051e-03,1.30501e+04
6.90346e-03,1.23950e+04
7.00798e-03,1.17718e+04
7.11408e-03,1.11790e+04
7.22178e-03,1.06152e+04
7.33112e-03,1.00791e+04
7.44211e-03,9.56932e+03
7.55478e-03,9.08461e+03
7.66916e-03,8.62380e+03
7.78526e-03,8.18575e+03
7.90313e-03,7.76937e+03
8.02278e-03,7.37364e+03
8.14424e-03,6.99756e+03
8.26754e-03,6.64018e+03
8.39271e-03,6.30062e+03
8.51977e-03,5.97800e+03
8.64876e-03,5.67151e+03
8.77970e-03,5.38037e+03
8.91262e-03,5.10382e+03
9.04755e-03,4.84117e+03
9.18453e-03,4.59173e+03
9.32358e-03,4.35486e+03
9.46473e-03,4.12994e+03
9.60803e-03,3.91638e+03
9.75349e-03,3.71362e+03
9.90115e-03,3.52114e+03
1.00511e-02,3.33843e+03
1.02032e-02,3.16499e+03
1.03577e-02,3.00038e+03
1.05145e-02,2.84415e+03
1.06737e-02,2.69589e+03
1.08353e-02,2.55520e+03
1.09993e-02,2.42170e+03
1.11659e-02,2.29503e+03
1.13349e-02,2.17486e+03
1.15065e-02,2.06084e+03
1.16807e-02,1.95268e+03
1.18576e-02,1.85008e+03
1.20371e-02,1.75277e+03
1.22193e-02,1.66046e+03
1.24043e-02,1.57291e+03
1.25921e-02,1.48989e+03
1.27827e-02,1.41115e+03
1.29763e-02,1.33648e+03
1.31727e-02,1.26568e+03
1.33721e-02,1.19855e+03
1.35746e-02,1.13490e+03
1.37801e-02,1.07455e+03
1.39887e-02,1.01734e+03
1.42005e-02,9.63099e+02
1.44155e-02,9.11683e+02
1.46338e-02,8.62944e+02
1.48553e-02,8.16745e+02
1.50802e-02,7.72956e+02
1.53085e-02,7.31452e+02
1.55403e-02,6.92116e+02
1.57756e-02,6.54837e+02
1.60144e-02,6.19507e+02
1.62568e-02,5.86026e+02
1.65030e-02,5.54299e+02
1.67528e-02,5.24235e+02
1.70064e-02,4.95747e+02
1.72639e-02,4.68755e+02
1.75253e-02,4.43179e+02
1.77906e-02,4.18948e+02
1.80600e-02,3.95990e+02
1.83334e-02,3.74240e+02
1.86109e-02,3.53635e+02
1.88927e-02,3.34115e+02
1.91787e-02,3.15623e+02
1.94691e-02,2.98106e+02
1.97638e-02,2.81513e+02
2.00631e-02,2.65795e+02
2.03668e-02,2.50908e+02
2.06751e-02,2.36806e+02
2.09882e-02,2.23450e+02
2.13059e-02,2.10800e+02
2.16285e-02,1.98819e+02
2.19559e-02,1.87472e+02
2.22883e-02,1.76725e+02
2.26258e-02,1.66548e+02
2.29683e-02,1.56910e+02
2.33160e-02,1.47782e+02
2.36690e-02,1.39139e+02
2.40274e-02,1.30954e+02
2.43911e-02,1.23203e+02
2.47604e-02,1.15864e+02
2.51353e-02,1.08914e+02
2.55158e-02,1.02334e+02
2.59021e-02,9.61030e+01
2.62943e-02,9.02034e+01
2.66924e-02,8.46174e+01
2.70965e-02,7.93285e+01
2.75067e-02,7.43209e+01
2.79231e-02,6.95798e+01
2.83459e-02,6.50911e+01
2.87750e-02,6.08414e+01
2.92107e-02,5.68180e+01
2.96529e-02,5.30090e+01
3.01018e-02,4.94030e+01
3.05576e-02,4.59891e+01
3.10202e-02,4.27573e+01
3.14898e-02,3.96978e+01
3.19666e-02,3.68016e+01
3.24505e-02,3.40598e+01
3.29418e-02,3.14644e+01
3.34406e-02,2.90075e+01
3.39468e-02,2.66817e+01
3.44608e-02,2.44802e+01
3.49825e-02,2.23962e+01
3.55121e-02,2.04236e+01
3.60498e-02,1.85564e+01
3.65955e-02,1.67890e+01
3.71496e-02,1.51160e+01
3.77120e-02,1.35325e+01
3.82830e-02,1.20336e+01
3.88625e-02,1.06150e+01
3.94509e-02,9.27217e+00
4.00482e-02,8.00121e+00
4.06545e-02,6.79826e+00
4.12700e-02,5.65968e+00
4.18948e-02,4.58205e+00
4.25291e-02,3.56210e+00
4.31729e-02,2.59676e+00
4.38266e-02,1.68311e+00
4.44901e-02,8.18399e-01
4.51636e-02,0.00000e+00
