m1=8540.977, m2=13.224, gsp=2.303, rhosp=8281.561
fGW[Hz],dPh[rad]
5.02934e-03,2.56368e+04
5.14770e-03,2.43658e+04
5.26886e-03,2.31570e+04
5.39286e-03,2.20072e+04
5.51979e-03,2.09137e+04
5.64970e-03,1.98737e+04
5.78267e-03,1.88846e+04
5.91876e-03,1.79440e+04
6.05807e-03,1.70494e+04
6.20065e-03,1.61986e+04
6.34658e-03,1.53896e+04
6.49595e-03,1.46203e+04
6.64884e-03,1.38887e+04
6.80532e-03,1.31930e+04
6.96549e-03,1.25315e+04
7.12942e-03,1.19025e+04
7.29722e-03,1.13045e+04
7.46896e-03,1.07359e+04
7.64475e-03,1.01953e+04
7.82467e-03,9.68126e+03
8.00883e-03,9.19260e+03
8.19732e-03,8.72804e+03
8.39025e-03,8.28640e+03
8.58771e-03,7.86658e+03
8.78983e-03,7.46751e+03
8.99670e-03,7.08817e+03
9.20844e-03,6.72760e+03
9.42517e-03,6.38490e+03
9.64700e-03,6.05918e+03
9.87404e-03,5.74962e+03
1.01064e-02,5.45543e+03
1.03443e-02,5.17585e+03
1.05878e-02,4.91019e+03
1.08369e-02,4.65774e+03
1.10920e-02,4.41788e+03
1.13530e-02,4.18998e+03
1.16202e-02,3.97346e+03
1.18937e-02,3.76776e+03
1.21737e-02,3.57235e+03
1.24602e-02,3.38673e+03
1.27534e-02,3.21041e+03
1.30536e-02,3.04295e+03
1.33608e-02,2.88391e+03
1.36753e-02,2.73287e+03
1.39971e-02,2.58944e+03
1.43265e-02,2.45324e+03
1.46637e-02,2.32393e+03
1.50088e-02,2.20116e+03
1.53621e-02,2.08461e+03
1.57236e-02,1.97398e+03
1.60937e-02,1.86896e+03
1.64725e-02,1.76930e+03
1.68602e-02,1.67471e+03
1.72570e-02,1.58496e+03
1.76631e-02,1.49979e+03
1.80788e-02,1.41899e+03
1.85043e-02,1.34234e+03
1.89398e-02,1.26963e+03
1.93856e-02,1.20067e+03
1.98419e-02,1.13527e+03
2.03088e-02,1.07326e+03
2.07868e-02,1.01445e+03
2.12760e-02,9.58708e+02
2.17768e-02,9.05865e+02
2.22893e-02,8.55780e+02
2.28139e-02,8.08315e+02
2.33508e-02,7.63338e+02
2.39004e-02,7.20726e+02
2.44629e-02,6.80360e+02
2.50387e-02,6.42126e+02
2.56280e-02,6.05918e+02
2.62311e-02,5.71632e+02
2.68485e-02,5.39173e+02
2.74804e-02,5.08448e+02
2.81272e-02,4.79368e+02
2.87891e-02,4.51851e+02
2.94667e-02,4.25816e+02
3.01602e-02,4.01189e+02
3.08701e-02,3.77898e+02
3.15966e-02,3.55874e+02
3.23402e-02,3.35052e+02
3.31014e-02,3.15370e+02
3.38804e-02,2.96771e+02
3.46778e-02,2.79197e+02
3.54940e-02,2.62596e+02
3.63294e-02,2.46917e+02
3.71844e-02,2.32113e+02
3.80595e-02,2.18138e+02
3.89553e-02,2.04948e+02
3.98721e-02,1.92502e+02
4.08105e-02,1.80761e+02
4.17710e-02,1.69689e+02
4.27541e-02,1.59248e+02
4.37604e-02,1.49407e+02
4.47903e-02,1.40133e+02
4.58445e-02,1.31395e+02
4.69234e-02,1.23165e+02
4.80278e-02,1.15416e+02
4.91581e-02,1.08121e+02
5.03151e-02,1.01255e+02
5.14993e-02,9.47967e+01
5.27114e-02,8.87221e+01
5.39519e-02,8.30104e+01
5.52217e-02,7.76417e+01
5.65214e-02,7.25970e+01
5.78517e-02,6.78581e+01
5.92132e-02,6.34079e+01
6.06068e-02,5.92303e+01
6.20333e-02,5.53098e+01
6.34932e-02,5.16317e+01
6.49876e-02,4.81824e+01
6.65171e-02,4.49485e+01
6.80826e-02,4.19178e+01
6.96850e-02,3.90784e+01
7.13250e-02,3.64192e+01
7.30037e-02,3.39296e+01
7.47219e-02,3.15996e+01
7.64805e-02,2.94197e+01
7.82805e-02,2.73811e+01
8.01229e-02,2.54752e+01
8.20086e-02,2.36941e+01
8.39387e-02,2.20302e+01
8.59143e-02,2.04762e+01
8.79363e-02,1.90256e+01
9.00059e-02,1.76719e+01
9.21243e-02,1.64091e+01
9.42924e-02,1.52315e+01
9.65117e-02,1.41338e+01
9.87831e-02,1.31109e+01
1.01108e-01,1.21580e+01
1.03488e-01,1.12708e+01
1.05923e-01,1.04449e+01
1.08416e-01,9.67649e+00
1.10968e-01,8.96170e+00
1.13580e-01,8.29707e+00
1.16253e-01,7.67929e+00
1.18989e-01,7.10526e+00
1.21789e-01,6.57207e+00
1.24656e-01,6.07698e+00
1.27589e-01,5.61743e+00
1.30592e-01,5.19101e+00
1.33666e-01,4.79545e+00
1.36812e-01,4.42866e+00
1.40032e-01,4.08865e+00
1.43327e-01,3.77356e+00
1.46701e-01,3.48166e+00
1.50153e-01,3.21133e+00
1.53687e-01,2.96105e+00
1.57304e-01,2.72940e+00
1.61007e-01,2.51506e+00
1.64796e-01,2.31680e+00
1.68675e-01,2.13347e+00
1.72644e-01,1.96398e+00
1.76708e-01,1.80733e+00
1.80867e-01,1.66260e+00
1.85123e-01,1.52890e+00
1.89480e-01,1.40544e+00
1.93940e-01,1.29146e+00
1.98504e-01,1.18625e+00
2.03176e-01,1.08917e+00
2.07958e-01,9.99605e-01
2.12852e-01,9.16997e-01
2.17862e-01,8.40822e-01
2.22989e-01,7.70595e-01
2.28238e-01,7.05867e-01
2.33609e-01,6.46218e-01
2.39107e-01,5.91262e-01
2.44735e-01,5.40640e-01
2.50495e-01,4.94020e-01
2.56390e-01,4.51093e-01
2.62425e-01,4.11574e-01
2.68601e-01,3.75199e-01
2.74923e-01,3.41725e-01
2.81393e-01,3.10925e-01
2.88016e-01,2.82590e-01
2.94794e-01,2.56527e-01
3.01733e-01,2.32558e-01
3.08834e-01,2.10518e-01
3.16103e-01,1.90255e-01
3.23542e-01,1.71629e-01
3.31157e-01,1.54509e-01
3.38951e-01,1.38776e-01
3.46928e-01,1.24319e-01
3.55093e-01,1.11037e-01
3.63451e-01,9.88350e-02
3.72005e-01,8.76276e-02
3.80760e-01,7.73345e-02
3.89721e-01,6.78822e-02
3.98894e-01,5.92030e-02
4.08282e-01,5.12345e-02
4.17891e-01,4.39192e-02
4.27726e-01,3.72043e-02
4.37793e-01,3.10410e-02
4.48097e-01,2.53847e-02
4.58643e-01,2.01940e-02
4.69437e-01,1.54311e-02
4.80485e-01,1.10611e-02
4.91794e-01,7.05179e-03
5.03369e-01,3.37381e-03
5.15216e-01,0.00000e+00
