m1=20448.134, m2=13.973, gsp=2.183, rhosp=7460.713
fGW[Hz],dPh[rad]
3.96005e-03,5.48816e+03
4.04035e-03,5.23123e+03
4.12228e-03,4.98591e+03
4.20587e-03,4.75169e+03
4.29115e-03,4.52807e+03
4.37816e-03,4.31459e+03
4.46694e-03,4.11079e+03
4.55752e-03,3.91626e+03
4.64994e-03,3.73058e+03
4.74423e-03,3.55335e+03
4.84043e-03,3.38421e+03
4.93858e-03,3.22279e+03
5.03873e-03,3.06875e+03
5.14090e-03,2.92177e+03
5.24514e-03,2.78153e+03
5.35150e-03,2.64773e+03
5.46002e-03,2.52009e+03
5.57073e-03,2.39832e+03
5.68370e-03,2.28218e+03
5.79895e-03,2.17140e+03
5.91654e-03,2.06576e+03
6.03651e-03,1.96501e+03
6.15892e-03,1.86894e+03
6.28380e-03,1.77734e+03
6.41123e-03,1.69001e+03
6.54123e-03,1.60677e+03
6.67387e-03,1.52741e+03
6.80920e-03,1.45178e+03
6.94728e-03,1.37970e+03
7.08815e-03,1.31102e+03
7.23188e-03,1.24557e+03
7.37853e-03,1.18322e+03
7.52815e-03,1.12383e+03
7.68080e-03,1.06725e+03
7.83655e-03,1.01337e+03
7.99545e-03,9.62052e+02
8.15758e-03,9.13192e+02
8.32300e-03,8.66674e+02
8.49177e-03,8.22390e+02
8.66396e-03,7.80240e+02
8.83965e-03,7.40126e+02
9.01889e-03,7.01954e+02
9.20178e-03,6.65634e+02
9.38837e-03,6.31083e+02
9.57874e-03,5.98218e+02
9.77297e-03,5.66962e+02
9.97115e-03,5.37241e+02
1.01733e-02,5.08982e+02
1.03796e-02,4.82119e+02
1.05901e-02,4.56587e+02
1.08048e-02,4.32323e+02
1.10239e-02,4.09268e+02
1.12475e-02,3.87365e+02
1.14756e-02,3.66562e+02
1.17083e-02,3.46805e+02
1.19457e-02,3.28045e+02
1.21879e-02,3.10236e+02
1.24350e-02,2.93332e+02
1.26872e-02,2.77290e+02
1.29445e-02,2.62070e+02
1.32069e-02,2.47631e+02
1.34747e-02,2.33937e+02
1.37480e-02,2.20951e+02
1.40268e-02,2.08640e+02
1.43112e-02,1.96970e+02
1.46014e-02,1.85911e+02
1.48975e-02,1.75433e+02
1.51996e-02,1.65508e+02
1.55078e-02,1.56108e+02
1.58222e-02,1.47207e+02
1.61431e-02,1.38782e+02
1.64704e-02,1.30808e+02
1.68044e-02,1.23263e+02
1.71451e-02,1.16125e+02
1.74928e-02,1.09375e+02
1.78475e-02,1.02992e+02
1.82094e-02,9.69584e+01
1.85787e-02,9.12561e+01
1.89554e-02,8.58682e+01
1.93398e-02,8.07788e+01
1.97319e-02,7.59724e+01
2.01320e-02,7.14345e+01
2.05403e-02,6.71512e+01
2.09568e-02,6.31092e+01
2.13817e-02,5.92960e+01
2.18153e-02,5.56994e+01
2.22577e-02,5.23082e+01
2.27090e-02,4.91113e+01
2.31695e-02,4.60985e+01
2.36393e-02,4.32599e+01
2.41187e-02,4.05862e+01
2.46077e-02,3.80684e+01
2.51067e-02,3.56981e+01
2.56158e-02,3.34673e+01
2.61353e-02,3.13683e+01
2.66652e-02,2.93938e+01
2.72059e-02,2.75370e+01
2.77576e-02,2.57913e+01
2.83205e-02,2.41506e+01
2.88947e-02,2.26088e+01
2.94806e-02,2.11605e+01
3.00784e-02,1.98004e+01
3.06884e-02,1.85234e+01
3.13106e-02,1.73247e+01
3.19456e-02,1.61999e+01
3.25933e-02,1.51447e+01
3.32542e-02,1.41550e+01
3.39286e-02,1.32270e+01
3.46166e-02,1.23571e+01
3.53185e-02,1.15419e+01
3.60347e-02,1.07781e+01
3.67654e-02,1.00627e+01
3.75109e-02,9.39279e+00
3.82715e-02,8.76560e+00
3.90476e-02,8.17856e+00
3.98394e-02,7.62926e+00
4.06472e-02,7.11538e+00
4.14714e-02,6.63476e+00
4.23124e-02,6.18536e+00
4.31704e-02,5.76525e+00
4.40458e-02,5.37260e+00
4.49389e-02,5.00572e+00
4.58502e-02,4.66298e+00
4.67799e-02,4.34288e+00
4.77285e-02,4.04397e+00
4.86963e-02,3.76493e+00
4.96838e-02,3.50449e+00
5.06912e-02,3.26145e+00
5.17191e-02,3.03471e+00
5.27679e-02,2.82321e+00
5.38379e-02,2.62597e+00
5.49296e-02,2.44207e+00
5.60434e-02,2.27064e+00
5.71799e-02,2.11086e+00
5.83393e-02,1.96196e+00
5.95223e-02,1.82324e+00
6.07293e-02,1.69402e+00
6.19607e-02,1.57368e+00
6.32171e-02,1.46161e+00
6.44990e-02,1.35728e+00
6.58069e-02,1.26016e+00
6.71413e-02,1.16978e+00
6.85028e-02,1.08566e+00
6.98919e-02,1.00741e+00
7.13091e-02,9.34607e-01
7.27551e-02,8.66894e-01
7.42304e-02,8.03923e-01
7.57356e-02,7.45370e-01
7.72714e-02,6.90932e-01
7.88382e-02,6.40327e-01
8.04369e-02,5.93293e-01
8.20680e-02,5.49582e-01
8.37321e-02,5.08965e-01
8.54300e-02,4.71228e-01
8.71623e-02,4.36171e-01
8.89298e-02,4.03608e-01
9.07330e-02,3.73364e-01
9.25729e-02,3.45278e-01
9.44501e-02,3.19199e-01
9.63653e-02,2.94986e-01
9.83193e-02,2.72508e-01
1.00313e-01,2.51642e-01
1.02347e-01,2.32275e-01
1.04422e-01,2.14301e-01
1.06540e-01,1.97622e-01
1.08700e-01,1.82145e-01
1.10904e-01,1.67785e-01
1.13153e-01,1.54463e-01
1.15448e-01,1.42105e-01
1.17789e-01,1.30642e-01
1.20177e-01,1.20010e-01
1.22614e-01,1.10150e-01
1.25101e-01,1.01006e-01
1.27637e-01,9.25262e-02
1.30226e-01,8.46640e-02
1.32866e-01,7.73745e-02
1.35560e-01,7.06164e-02
1.38309e-01,6.43515e-02
1.41114e-01,5.85441e-02
1.43975e-01,5.31610e-02
1.46895e-01,4.81718e-02
1.49873e-01,4.35477e-02
1.52913e-01,3.92623e-02
1.56013e-01,3.52910e-02
1.59177e-01,3.16110e-02
1.62405e-01,2.82011e-02
1.65698e-01,2.50417e-02
1.69058e-01,2.21144e-02
1.72486e-01,1.94024e-02
1.75983e-01,1.68899e-02
1.79552e-01,1.45624e-02
1.83193e-01,1.24064e-02
1.86907e-01,1.04092e-02
1.90698e-01,8.55931e-03
1.94564e-01,6.84588e-03
1.98510e-01,5.25893e-03
2.02535e-01,3.78915e-03
2.06642e-01,2.42796e-03
2.10832e-01,1.16738e-03
2.15107e-01,0.00000e+00
