m1=231534.289, m2=8.980, gsp=2.489, rhosp=1980.239
fGW[Hz],dPh[rad]
2.54792e-03,3.17535e+05
2.57377e-03,3.06271e+05
2.59988e-03,2.95402e+05
2.62626e-03,2.84914e+05
2.65290e-03,2.74794e+05
2.67982e-03,2.65029e+05
2.70700e-03,2.55607e+05
2.73447e-03,2.46517e+05
2.76221e-03,2.37746e+05
2.79023e-03,2.29284e+05
2.81854e-03,2.21119e+05
2.84713e-03,2.13242e+05
2.87602e-03,2.05643e+05
2.90519e-03,1.98312e+05
2.93467e-03,1.91239e+05
2.96444e-03,1.84416e+05
2.99451e-03,1.77834e+05
3.02489e-03,1.71485e+05
3.05558e-03,1.65360e+05
3.08658e-03,1.59451e+05
3.11789e-03,1.53752e+05
3.14953e-03,1.48254e+05
3.18148e-03,1.42951e+05
3.21375e-03,1.37836e+05
3.24636e-03,1.32902e+05
3.27929e-03,1.28143e+05
3.31256e-03,1.23553e+05
3.34617e-03,1.19126e+05
3.38011e-03,1.14855e+05
3.41441e-03,1.10737e+05
3.44905e-03,1.06765e+05
3.48404e-03,1.02934e+05
3.51938e-03,9.92393e+04
3.55509e-03,9.56760e+04
3.59115e-03,9.22395e+04
3.62759e-03,8.89253e+04
3.66439e-03,8.57291e+04
3.70156e-03,8.26468e+04
3.73912e-03,7.96744e+04
3.77705e-03,7.68078e+04
3.81537e-03,7.40435e+04
3.85408e-03,7.13778e+04
3.89318e-03,6.88073e+04
3.93267e-03,6.63284e+04
3.97257e-03,6.39381e+04
4.01287e-03,6.16332e+04
4.05358e-03,5.94106e+04
4.09471e-03,5.72674e+04
4.13625e-03,5.52008e+04
4.17821e-03,5.32082e+04
4.22060e-03,5.12868e+04
4.26342e-03,4.94342e+04
4.30667e-03,4.76478e+04
4.35036e-03,4.59255e+04
4.39450e-03,4.42648e+04
4.43908e-03,4.26635e+04
4.48411e-03,4.11197e+04
4.52961e-03,3.96312e+04
4.57556e-03,3.81960e+04
4.62198e-03,3.68123e+04
4.66887e-03,3.54782e+04
4.71623e-03,3.41920e+04
4.76408e-03,3.29519e+04
4.81241e-03,3.17564e+04
4.86124e-03,3.06037e+04
4.91055e-03,2.94925e+04
4.96037e-03,2.84211e+04
5.01069e-03,2.73883e+04
5.06153e-03,2.63925e+04
5.11288e-03,2.54325e+04
5.16475e-03,2.45071e+04
5.21715e-03,2.36149e+04
5.27007e-03,2.27548e+04
5.32354e-03,2.19256e+04
5.37755e-03,2.11263e+04
5.43210e-03,2.03557e+04
5.48721e-03,1.96129e+04
5.54288e-03,1.88968e+04
5.59911e-03,1.82065e+04
5.65592e-03,1.75410e+04
5.71330e-03,1.68995e+04
5.77126e-03,1.62811e+04
5.82981e-03,1.56850e+04
5.88895e-03,1.51104e+04
5.94870e-03,1.45564e+04
6.00905e-03,1.40225e+04
6.07001e-03,1.35078e+04
6.13159e-03,1.30116e+04
6.19379e-03,1.25334e+04
6.25663e-03,1.20724e+04
6.32011e-03,1.16280e+04
6.38422e-03,1.11997e+04
6.44899e-03,1.07868e+04
6.51442e-03,1.03888e+04
6.58051e-03,1.00052e+04
6.64727e-03,9.63542e+03
6.71470e-03,9.27901e+03
6.78282e-03,8.93546e+03
6.85164e-03,8.60432e+03
6.92115e-03,8.28514e+03
6.99136e-03,7.97749e+03
7.06229e-03,7.68096e+03
7.13394e-03,7.39514e+03
7.20631e-03,7.11965e+03
7.27942e-03,6.85412e+03
7.35327e-03,6.59819e+03
7.42787e-03,6.35150e+03
7.50323e-03,6.11374e+03
7.57935e-03,5.88457e+03
7.65624e-03,5.66370e+03
7.73392e-03,5.45081e+03
7.81238e-03,5.24562e+03
7.89163e-03,5.04785e+03
7.97170e-03,4.85724e+03
8.05257e-03,4.67352e+03
8.13426e-03,4.49646e+03
8.21679e-03,4.32580e+03
8.30015e-03,4.16132e+03
8.38435e-03,4.00279e+03
8.46941e-03,3.85000e+03
8.55533e-03,3.70274e+03
8.64213e-03,3.56082e+03
8.72980e-03,3.42403e+03
8.81837e-03,3.29220e+03
8.90783e-03,3.16514e+03
8.99820e-03,3.04268e+03
9.08949e-03,2.92466e+03
9.18170e-03,2.81091e+03
9.27485e-03,2.70129e+03
9.36895e-03,2.59564e+03
9.46400e-03,2.49381e+03
9.56001e-03,2.39568e+03
9.65700e-03,2.30110e+03
9.75497e-03,2.20995e+03
9.85393e-03,2.12210e+03
9.95390e-03,2.03744e+03
1.00549e-02,1.95585e+03
1.01569e-02,1.87721e+03
1.02599e-02,1.80143e+03
1.03640e-02,1.72839e+03
1.04692e-02,1.65800e+03
1.05754e-02,1.59017e+03
1.06827e-02,1.52479e+03
1.07910e-02,1.46179e+03
1.09005e-02,1.40107e+03
1.10111e-02,1.34255e+03
1.11228e-02,1.28616e+03
1.12357e-02,1.23181e+03
1.13496e-02,1.17943e+03
1.14648e-02,1.12896e+03
1.15811e-02,1.08031e+03
1.16986e-02,1.03343e+03
1.18173e-02,9.88254e+02
1.19372e-02,9.44715e+02
1.20583e-02,9.02756e+02
1.21806e-02,8.62320e+02
1.23042e-02,8.23351e+02
1.24290e-02,7.85797e+02
1.25551e-02,7.49606e+02
1.26825e-02,7.14728e+02
1.28111e-02,6.81117e+02
1.29411e-02,6.48726e+02
1.30724e-02,6.17511e+02
1.32050e-02,5.87429e+02
1.33390e-02,5.58440e+02
1.34743e-02,5.30503e+02
1.36110e-02,5.03580e+02
1.37491e-02,4.77636e+02
1.38886e-02,4.52633e+02
1.40295e-02,4.28538e+02
1.41718e-02,4.05319e+02
1.43156e-02,3.82943e+02
1.44608e-02,3.61379e+02
1.46075e-02,3.40599e+02
1.47557e-02,3.20573e+02
1.49054e-02,3.01275e+02
1.50566e-02,2.82678e+02
1.52094e-02,2.64757e+02
1.53637e-02,2.47486e+02
1.55195e-02,2.30843e+02
1.56770e-02,2.14805e+02
1.58360e-02,1.99349e+02
1.59967e-02,1.84455e+02
1.61590e-02,1.70103e+02
1.63229e-02,1.56271e+02
1.64885e-02,1.42943e+02
1.66558e-02,1.30098e+02
1.68248e-02,1.17721e+02
1.69954e-02,1.05793e+02
1.71679e-02,9.42983e+01
1.73420e-02,8.32217e+01
1.75180e-02,7.25477e+01
1.76957e-02,6.22616e+01
1.78752e-02,5.23494e+01
1.80566e-02,4.27974e+01
1.82397e-02,3.35926e+01
1.84248e-02,2.47224e+01
1.86117e-02,1.61747e+01
1.88005e-02,7.93762e+00
1.89913e-02,0.00000e+00
