m1=9960.822, m2=21.143, gsp=2.152, rhosp=47.964
fGW[Hz],dPh[rad]
4.05893e-03,3.21701e+02
4.15573e-03,3.04933e+02
4.25483e-03,2.89031e+02
4.35631e-03,2.73950e+02
4.46020e-03,2.59648e+02
4.56657e-03,2.46084e+02
4.67547e-03,2.33222e+02
4.78698e-03,2.21024e+02
4.90114e-03,2.09457e+02
5.01803e-03,1.98489e+02
5.13770e-03,1.88088e+02
5.26023e-03,1.78225e+02
5.38567e-03,1.68873e+02
5.51412e-03,1.60005e+02
5.64562e-03,1.51596e+02
5.78026e-03,1.43624e+02
5.91811e-03,1.36065e+02
6.05925e-03,1.28897e+02
6.20375e-03,1.22102e+02
6.35171e-03,1.15660e+02
6.50319e-03,1.09552e+02
6.65828e-03,1.03761e+02
6.81707e-03,9.82715e+01
6.97965e-03,9.30675e+01
7.14610e-03,8.81342e+01
7.31653e-03,8.34578e+01
7.49101e-03,7.90249e+01
7.66967e-03,7.48231e+01
7.85258e-03,7.08404e+01
8.03985e-03,6.70654e+01
8.23159e-03,6.34876e+01
8.42790e-03,6.00967e+01
8.62889e-03,5.68830e+01
8.83468e-03,5.38375e+01
9.04538e-03,5.09514e+01
9.26110e-03,4.82164e+01
9.48196e-03,4.56248e+01
9.70809e-03,4.31692e+01
9.93962e-03,4.08425e+01
1.01767e-02,3.86381e+01
1.04194e-02,3.65496e+01
1.06679e-02,3.45710e+01
1.09223e-02,3.26966e+01
1.11827e-02,3.09211e+01
1.14494e-02,2.92392e+01
1.17225e-02,2.76462e+01
1.20021e-02,2.61375e+01
1.22883e-02,2.47086e+01
1.25813e-02,2.33554e+01
1.28814e-02,2.20741e+01
1.31886e-02,2.08607e+01
1.35031e-02,1.97119e+01
1.38252e-02,1.86242e+01
1.41549e-02,1.75946e+01
1.44924e-02,1.66198e+01
1.48381e-02,1.56972e+01
1.51919e-02,1.48239e+01
1.55542e-02,1.39974e+01
1.59252e-02,1.32153e+01
1.63050e-02,1.24751e+01
1.66938e-02,1.17749e+01
1.70920e-02,1.11123e+01
1.74996e-02,1.04856e+01
1.79169e-02,9.89272e+00
1.83442e-02,9.33198e+00
1.87817e-02,8.80166e+00
1.92296e-02,8.30018e+00
1.96882e-02,7.82601e+00
2.01578e-02,7.37771e+00
2.06385e-02,6.95393e+00
2.11307e-02,6.55336e+00
2.16346e-02,6.17478e+00
2.21506e-02,5.81703e+00
2.26788e-02,5.47900e+00
2.32197e-02,5.15965e+00
2.37735e-02,4.85799e+00
2.43404e-02,4.57307e+00
2.49209e-02,4.30401e+00
2.55152e-02,4.04996e+00
2.61238e-02,3.81012e+00
2.67468e-02,3.58373e+00
2.73846e-02,3.37006e+00
2.80377e-02,3.16844e+00
2.87064e-02,2.97822e+00
2.93910e-02,2.79879e+00
3.00919e-02,2.62956e+00
3.08096e-02,2.46998e+00
3.15443e-02,2.31952e+00
3.22966e-02,2.17771e+00
3.30669e-02,2.04406e+00
3.38555e-02,1.91812e+00
3.46629e-02,1.79949e+00
3.54895e-02,1.68775e+00
3.63359e-02,1.58254e+00
3.72025e-02,1.48349e+00
3.80897e-02,1.39026e+00
3.89981e-02,1.30253e+00
3.99281e-02,1.21999e+00
4.08804e-02,1.14236e+00
4.18553e-02,1.06936e+00
4.28535e-02,1.00074e+00
4.38755e-02,9.36245e-01
4.49219e-02,8.75644e-01
4.59932e-02,8.18720e-01
4.70901e-02,7.65262e-01
4.82131e-02,7.15075e-01
4.93629e-02,6.67971e-01
5.05402e-02,6.23773e-01
5.17455e-02,5.82315e-01
5.29795e-02,5.43439e-01
5.42430e-02,5.06993e-01
5.55366e-02,4.72838e-01
5.68611e-02,4.40839e-01
5.82172e-02,4.10870e-01
5.96056e-02,3.82811e-01
6.10271e-02,3.56548e-01
6.24825e-02,3.31975e-01
6.39726e-02,3.08991e-01
6.54983e-02,2.87501e-01
6.70603e-02,2.67413e-01
6.86596e-02,2.48644e-01
7.02971e-02,2.31113e-01
7.19735e-02,2.14743e-01
7.36900e-02,1.99464e-01
7.54474e-02,1.85207e-01
7.72467e-02,1.71910e-01
7.90890e-02,1.59511e-01
8.09751e-02,1.47956e-01
8.29063e-02,1.37189e-01
8.48835e-02,1.27161e-01
8.69078e-02,1.17826e-01
8.89805e-02,1.09137e-01
9.11025e-02,1.01054e-01
9.32752e-02,9.35366e-02
9.54997e-02,8.65484e-02
9.77772e-02,8.00543e-02
1.00109e-01,7.40216e-02
1.02497e-01,6.84197e-02
1.04941e-01,6.32196e-02
1.07444e-01,5.83945e-02
1.10006e-01,5.39187e-02
1.12630e-01,4.97687e-02
1.15316e-01,4.59220e-02
1.18066e-01,4.23578e-02
1.20881e-01,3.90565e-02
1.23764e-01,3.59999e-02
1.26716e-01,3.31707e-02
1.29738e-01,3.05530e-02
1.32832e-01,2.81318e-02
1.36000e-01,2.58931e-02
1.39243e-01,2.38239e-02
1.42564e-01,2.19119e-02
1.45964e-01,2.01459e-02
1.49445e-01,1.85151e-02
1.53009e-01,1.70098e-02
1.56658e-01,1.56207e-02
1.60394e-01,1.43392e-02
1.64219e-01,1.31574e-02
1.68136e-01,1.20678e-02
1.72146e-01,1.10636e-02
1.76251e-01,1.01383e-02
1.80454e-01,9.28594e-03
1.84758e-01,8.50104e-03
1.89164e-01,7.77843e-03
1.93675e-01,7.11335e-03
1.98294e-01,6.50139e-03
2.03023e-01,5.93844e-03
2.07865e-01,5.42072e-03
2.12822e-01,4.94471e-03
2.17898e-01,4.50715e-03
2.23095e-01,4.10503e-03
2.28415e-01,3.73557e-03
2.33862e-01,3.39619e-03
2.39440e-01,3.08452e-03
2.45150e-01,2.79834e-03
2.50997e-01,2.53563e-03
2.56982e-01,2.29452e-03
2.63111e-01,2.07327e-03
2.69386e-01,1.87028e-03
2.75811e-01,1.68409e-03
2.82388e-01,1.51334e-03
2.89123e-01,1.35676e-03
2.96018e-01,1.21322e-03
3.03078e-01,1.08164e-03
3.10306e-01,9.61057e-04
3.17706e-01,8.50559e-04
3.25283e-01,7.49322e-04
3.33040e-01,6.56583e-04
3.40983e-01,5.71642e-04
3.49115e-01,4.93853e-04
3.57441e-01,4.22624e-04
3.65965e-01,3.57410e-04
3.74693e-01,2.97711e-04
3.83629e-01,2.43067e-04
3.92778e-01,1.93057e-04
4.02145e-01,1.47292e-04
4.11736e-01,1.05417e-04
4.21555e-01,6.71060e-05
4.31609e-01,3.20584e-05
4.41902e-01,0.00000e+00
