m1=176995.204, m2=18.920, gsp=2.255, rhosp=177.151
fGW[Hz],dPh[rad]
2.06054e-03,5.67420e+03
2.08648e-03,5.43568e+03
2.11275e-03,5.20680e+03
2.13935e-03,4.98719e+03
2.16628e-03,4.77650e+03
2.19355e-03,4.57438e+03
2.22117e-03,4.38050e+03
2.24913e-03,4.19455e+03
2.27744e-03,4.01620e+03
2.30612e-03,3.84518e+03
2.33515e-03,3.68118e+03
2.36455e-03,3.52394e+03
2.39432e-03,3.37319e+03
2.42446e-03,3.22868e+03
2.45498e-03,3.09015e+03
2.48589e-03,2.95738e+03
2.51718e-03,2.83012e+03
2.54887e-03,2.70818e+03
2.58096e-03,2.59132e+03
2.61345e-03,2.47935e+03
2.64636e-03,2.37208e+03
2.67967e-03,2.26931e+03
2.71341e-03,2.17086e+03
2.74757e-03,2.07656e+03
2.78216e-03,1.98624e+03
2.81718e-03,1.89974e+03
2.85265e-03,1.81690e+03
2.88856e-03,1.73758e+03
2.92493e-03,1.66162e+03
2.96175e-03,1.58890e+03
2.99904e-03,1.51928e+03
3.03680e-03,1.45263e+03
3.07503e-03,1.38884e+03
3.11374e-03,1.32777e+03
3.15294e-03,1.26932e+03
3.19263e-03,1.21339e+03
3.23283e-03,1.15986e+03
3.27353e-03,1.10864e+03
3.31474e-03,1.05963e+03
3.35647e-03,1.01273e+03
3.39872e-03,9.67867e+02
3.44151e-03,9.24945e+02
3.48484e-03,8.83886e+02
3.52871e-03,8.44611e+02
3.57313e-03,8.07044e+02
3.61812e-03,7.71114e+02
3.66367e-03,7.36750e+02
3.70979e-03,7.03888e+02
3.75650e-03,6.72462e+02
3.80379e-03,6.42412e+02
3.85167e-03,6.13679e+02
3.90016e-03,5.86206e+02
3.94927e-03,5.59941e+02
3.99898e-03,5.34831e+02
4.04933e-03,5.10827e+02
4.10031e-03,4.87880e+02
4.15193e-03,4.65947e+02
4.20420e-03,4.44982e+02
4.25713e-03,4.24944e+02
4.31072e-03,4.05794e+02
4.36499e-03,3.87492e+02
4.41994e-03,3.70002e+02
4.47559e-03,3.53288e+02
4.53193e-03,3.37318e+02
4.58899e-03,3.22058e+02
4.64676e-03,3.07477e+02
4.70526e-03,2.93546e+02
4.76450e-03,2.80237e+02
4.82448e-03,2.67522e+02
4.88522e-03,2.55376e+02
4.94672e-03,2.43772e+02
5.00899e-03,2.32688e+02
5.07205e-03,2.22101e+02
5.13591e-03,2.11988e+02
5.20057e-03,2.02330e+02
5.26604e-03,1.93105e+02
5.33233e-03,1.84294e+02
5.39946e-03,1.75880e+02
5.46744e-03,1.67845e+02
5.53627e-03,1.60172e+02
5.60597e-03,1.52845e+02
5.67655e-03,1.45848e+02
5.74801e-03,1.39167e+02
5.82037e-03,1.32788e+02
5.89365e-03,1.26697e+02
5.96785e-03,1.20882e+02
6.04298e-03,1.15330e+02
6.11906e-03,1.10030e+02
6.19609e-03,1.04970e+02
6.27410e-03,1.00139e+02
6.35308e-03,9.55275e+01
6.43306e-03,9.11254e+01
6.51405e-03,8.69233e+01
6.59606e-03,8.29123e+01
6.67910e-03,7.90836e+01
6.76319e-03,7.54292e+01
6.84833e-03,7.19412e+01
6.93455e-03,6.86121e+01
7.02185e-03,6.54348e+01
7.11025e-03,6.24023e+01
7.19976e-03,5.95082e+01
7.29041e-03,5.67463e+01
7.38219e-03,5.41104e+01
7.47512e-03,5.15951e+01
7.56923e-03,4.91947e+01
7.66452e-03,4.69041e+01
7.76102e-03,4.47183e+01
7.85872e-03,4.26325e+01
7.95766e-03,4.06423e+01
8.05784e-03,3.87433e+01
8.15928e-03,3.69313e+01
8.26200e-03,3.52024e+01
8.36602e-03,3.35528e+01
8.47134e-03,3.19789e+01
8.57799e-03,3.04772e+01
8.68598e-03,2.90445e+01
8.79533e-03,2.76777e+01
8.90606e-03,2.63736e+01
9.01818e-03,2.51295e+01
9.13172e-03,2.39427e+01
9.24668e-03,2.28104e+01
9.36309e-03,2.17302e+01
9.48096e-03,2.06998e+01
9.60032e-03,1.97168e+01
9.72119e-03,1.87791e+01
9.84357e-03,1.78846e+01
9.96749e-03,1.70314e+01
1.00930e-02,1.62174e+01
1.02200e-02,1.54411e+01
1.03487e-02,1.47005e+01
1.04790e-02,1.39941e+01
1.06109e-02,1.33204e+01
1.07445e-02,1.26777e+01
1.08798e-02,1.20647e+01
1.10167e-02,1.14800e+01
1.11554e-02,1.09224e+01
1.12959e-02,1.03905e+01
1.14381e-02,9.88322e+00
1.15821e-02,9.39940e+00
1.17279e-02,8.93795e+00
1.18755e-02,8.49785e+00
1.20250e-02,8.07812e+00
1.21764e-02,7.67781e+00
1.23297e-02,7.29604e+00
1.24849e-02,6.93194e+00
1.26421e-02,6.58471e+00
1.28013e-02,6.25356e+00
1.29624e-02,5.93775e+00
1.31256e-02,5.63658e+00
1.32909e-02,5.34938e+00
1.34582e-02,5.07548e+00
1.36276e-02,4.81429e+00
1.37992e-02,4.56521e+00
1.39729e-02,4.32768e+00
1.41488e-02,4.10117e+00
1.43270e-02,3.88517e+00
1.45073e-02,3.67920e+00
1.46900e-02,3.48279e+00
1.48749e-02,3.29549e+00
1.50622e-02,3.11690e+00
1.52518e-02,2.94659e+00
1.54438e-02,2.78420e+00
1.56382e-02,2.62935e+00
1.58351e-02,2.48169e+00
1.60345e-02,2.34090e+00
1.62363e-02,2.20664e+00
1.64407e-02,2.07863e+00
1.66477e-02,1.95657e+00
1.68573e-02,1.84018e+00
1.70695e-02,1.72921e+00
1.72844e-02,1.62339e+00
1.75020e-02,1.52250e+00
1.77223e-02,1.42630e+00
1.79455e-02,1.33457e+00
1.81714e-02,1.24712e+00
1.84001e-02,1.16373e+00
1.86318e-02,1.08422e+00
1.88664e-02,1.00841e+00
1.91039e-02,9.36134e-01
1.93444e-02,8.67220e-01
1.95879e-02,8.01514e-01
1.98345e-02,7.38867e-01
2.00842e-02,6.79137e-01
2.03371e-02,6.22189e-01
2.05931e-02,5.67893e-01
2.08524e-02,5.16127e-01
2.11149e-02,4.66771e-01
2.13807e-02,4.19715e-01
2.16499e-02,3.74851e-01
2.19224e-02,3.32078e-01
2.21984e-02,2.91297e-01
2.24779e-02,2.52418e-01
2.27609e-02,2.15350e-01
2.30474e-02,1.80010e-01
2.33376e-02,1.46317e-01
2.36314e-02,1.14195e-01
2.39289e-02,8.35699e-02
2.42301e-02,5.43731e-02
2.45352e-02,2.65376e-02
2.48440e-02,0.00000e+00
