m1=74878.034, m2=12.723, gsp=2.497, rhosp=376.682
fGW[Hz],dPh[rad]
2.96494e-03,7.34769e+05
3.00976e-03,7.03263e+05
3.05527e-03,6.73016e+05
3.10146e-03,6.43982e+05
3.14835e-03,6.16116e+05
3.19594e-03,5.89375e+05
3.24426e-03,5.63719e+05
3.29331e-03,5.39106e+05
3.34310e-03,5.15498e+05
3.39364e-03,4.92857e+05
3.44495e-03,4.71147e+05
3.49703e-03,4.50332e+05
3.54990e-03,4.30380e+05
3.60357e-03,4.11257e+05
3.65805e-03,3.92931e+05
3.71335e-03,3.75371e+05
3.76949e-03,3.58550e+05
3.82648e-03,3.42436e+05
3.88433e-03,3.27005e+05
3.94306e-03,3.12228e+05
4.00267e-03,2.98080e+05
4.06319e-03,2.84537e+05
4.12461e-03,2.71574e+05
4.18697e-03,2.59168e+05
4.25027e-03,2.47298e+05
4.31453e-03,2.35942e+05
4.37976e-03,2.25079e+05
4.44598e-03,2.14690e+05
4.51319e-03,2.04755e+05
4.58142e-03,1.95256e+05
4.65069e-03,1.86175e+05
4.72100e-03,1.77495e+05
4.79237e-03,1.69200e+05
4.86483e-03,1.61273e+05
4.93838e-03,1.53699e+05
5.01304e-03,1.46464e+05
5.08882e-03,1.39553e+05
5.16576e-03,1.32954e+05
5.24386e-03,1.26652e+05
5.32314e-03,1.20635e+05
5.40361e-03,1.14891e+05
5.48531e-03,1.09409e+05
5.56824e-03,1.04177e+05
5.65242e-03,9.91842e+04
5.73788e-03,9.44209e+04
5.82463e-03,8.98769e+04
5.91268e-03,8.55427e+04
6.00208e-03,8.14090e+04
6.09282e-03,7.74673e+04
6.18493e-03,7.37089e+04
6.27844e-03,7.01260e+04
6.37336e-03,6.67106e+04
6.46971e-03,6.34554e+04
6.56753e-03,6.03533e+04
6.66682e-03,5.73974e+04
6.76761e-03,5.45811e+04
6.86992e-03,5.18983e+04
6.97379e-03,4.93428e+04
7.07922e-03,4.69090e+04
7.18625e-03,4.45912e+04
7.29489e-03,4.23843e+04
7.40518e-03,4.02831e+04
7.51713e-03,3.82828e+04
7.63078e-03,3.63788e+04
7.74615e-03,3.45666e+04
7.86326e-03,3.28420e+04
7.98214e-03,3.12009e+04
8.10281e-03,2.96395e+04
8.22532e-03,2.81540e+04
8.34967e-03,2.67409e+04
8.47590e-03,2.53968e+04
8.60405e-03,2.41184e+04
8.73413e-03,2.29027e+04
8.86617e-03,2.17467e+04
9.00022e-03,2.06476e+04
9.13628e-03,1.96026e+04
9.27441e-03,1.86092e+04
9.41463e-03,1.76649e+04
9.55696e-03,1.67674e+04
9.70145e-03,1.59145e+04
9.84812e-03,1.51039e+04
9.99701e-03,1.43336e+04
1.01481e-02,1.36018e+04
1.03016e-02,1.29065e+04
1.04573e-02,1.22460e+04
1.06154e-02,1.16186e+04
1.07759e-02,1.10226e+04
1.09388e-02,1.04566e+04
1.11042e-02,9.91903e+03
1.12721e-02,9.40855e+03
1.14425e-02,8.92381e+03
1.16155e-02,8.46356e+03
1.17911e-02,8.02659e+03
1.19694e-02,7.61174e+03
1.21503e-02,7.21792e+03
1.23340e-02,6.84409e+03
1.25205e-02,6.48927e+03
1.27098e-02,6.15249e+03
1.29019e-02,5.83288e+03
1.30970e-02,5.52956e+03
1.32950e-02,5.24173e+03
1.34960e-02,4.96861e+03
1.37000e-02,4.70946e+03
1.39071e-02,4.46359e+03
1.41174e-02,4.23032e+03
1.43308e-02,4.00902e+03
1.45475e-02,3.79909e+03
1.47674e-02,3.59996e+03
1.49907e-02,3.41108e+03
1.52173e-02,3.23192e+03
1.54474e-02,3.06201e+03
1.56809e-02,2.90086e+03
1.59180e-02,2.74804e+03
1.61586e-02,2.60311e+03
1.64029e-02,2.46569e+03
1.66509e-02,2.33538e+03
1.69027e-02,2.21182e+03
1.71582e-02,2.09467e+03
1.74176e-02,1.98360e+03
1.76809e-02,1.87830e+03
1.79482e-02,1.77847e+03
1.82196e-02,1.68384e+03
1.84951e-02,1.59413e+03
1.87747e-02,1.50909e+03
1.90585e-02,1.42848e+03
1.93466e-02,1.35208e+03
1.96391e-02,1.27966e+03
1.99361e-02,1.21103e+03
2.02375e-02,1.14598e+03
2.05434e-02,1.08433e+03
2.08540e-02,1.02591e+03
2.11693e-02,9.70543e+02
2.14893e-02,9.18076e+02
2.18142e-02,8.68358e+02
2.21440e-02,8.21246e+02
2.24788e-02,7.76605e+02
2.28186e-02,7.34307e+02
2.31636e-02,6.94229e+02
2.35138e-02,6.56257e+02
2.38693e-02,6.20279e+02
2.42302e-02,5.86194e+02
2.45965e-02,5.53900e+02
2.49684e-02,5.23307e+02
2.53458e-02,4.94323e+02
2.57290e-02,4.66866e+02
2.61180e-02,4.40856e+02
2.65129e-02,4.16216e+02
2.69137e-02,3.92876e+02
2.73206e-02,3.70766e+02
2.77336e-02,3.49824e+02
2.81529e-02,3.29986e+02
2.85786e-02,3.11197e+02
2.90106e-02,2.93399e+02
2.94492e-02,2.76542e+02
2.98945e-02,2.60576e+02
3.03464e-02,2.45455e+02
3.08052e-02,2.31133e+02
3.12709e-02,2.17568e+02
3.17437e-02,2.04722e+02
3.22236e-02,1.92556e+02
3.27108e-02,1.81033e+02
3.32053e-02,1.70121e+02
3.37073e-02,1.59788e+02
3.42169e-02,1.50002e+02
3.47342e-02,1.40734e+02
3.52594e-02,1.31958e+02
3.57924e-02,1.23648e+02
3.63336e-02,1.15778e+02
3.68829e-02,1.08326e+02
3.74405e-02,1.01269e+02
3.80065e-02,9.45871e+01
3.85811e-02,8.82598e+01
3.91644e-02,8.22686e+01
3.97565e-02,7.65955e+01
4.03576e-02,7.12239e+01
4.09677e-02,6.61378e+01
4.15871e-02,6.13219e+01
4.22158e-02,5.67621e+01
4.28541e-02,5.24447e+01
4.35019e-02,4.83569e+01
4.41596e-02,4.44865e+01
4.48272e-02,4.08221e+01
4.55050e-02,3.73526e+01
4.61929e-02,3.40677e+01
4.68913e-02,3.09576e+01
4.76002e-02,2.80131e+01
4.83199e-02,2.52254e+01
4.90504e-02,2.25861e+01
4.97919e-02,2.00874e+01
5.05447e-02,1.77217e+01
5.13089e-02,1.54821e+01
5.20846e-02,1.33618e+01
5.28720e-02,1.13544e+01
5.36714e-02,9.45406e+00
5.44828e-02,7.65498e+00
5.53065e-02,5.95180e+00
5.61426e-02,4.33941e+00
5.69914e-02,2.81299e+00
5.78531e-02,1.36797e+00
5.87277e-02,0.00000e+00
