m1=22111.663, m2=13.843, gsp=2.030, rhosp=5568.501
fGW[Hz],dPh[rad]
3.89701e-03,3.92616e+02
3.97479e-03,3.73671e+02
4.05412e-03,3.55609e+02
4.13504e-03,3.38390e+02
4.21757e-03,3.21976e+02
4.30175e-03,3.06330e+02
4.38760e-03,2.91417e+02
4.47517e-03,2.77204e+02
4.56449e-03,2.63658e+02
4.65560e-03,2.50749e+02
4.74852e-03,2.38448e+02
4.84329e-03,2.26726e+02
4.93996e-03,2.15559e+02
5.03855e-03,2.04919e+02
5.13912e-03,1.94784e+02
5.24169e-03,1.85128e+02
5.34630e-03,1.75932e+02
5.45301e-03,1.67173e+02
5.56185e-03,1.58832e+02
5.67285e-03,1.50888e+02
5.78608e-03,1.43324e+02
5.90156e-03,1.36123e+02
6.01935e-03,1.29267e+02
6.13949e-03,1.22741e+02
6.26202e-03,1.16528e+02
6.38701e-03,1.10616e+02
6.51448e-03,1.04989e+02
6.64450e-03,9.96348e+01
6.77712e-03,9.45403e+01
6.91238e-03,8.96935e+01
7.05035e-03,8.50829e+01
7.19106e-03,8.06974e+01
7.33459e-03,7.65265e+01
7.48098e-03,7.25601e+01
7.63029e-03,6.87887e+01
7.78258e-03,6.52031e+01
7.93791e-03,6.17945e+01
8.09634e-03,5.85547e+01
8.25794e-03,5.54757e+01
8.42275e-03,5.25498e+01
8.59086e-03,4.97698e+01
8.76233e-03,4.71288e+01
8.93721e-03,4.46202e+01
9.11559e-03,4.22377e+01
9.29752e-03,3.99753e+01
9.48309e-03,3.78272e+01
9.67236e-03,3.57880e+01
9.86541e-03,3.38525e+01
1.00623e-02,3.20156e+01
1.02631e-02,3.02727e+01
1.04680e-02,2.86191e+01
1.06769e-02,2.70506e+01
1.08900e-02,2.55630e+01
1.11074e-02,2.41524e+01
1.13291e-02,2.28150e+01
1.15552e-02,2.15474e+01
1.17858e-02,2.03459e+01
1.20210e-02,1.92075e+01
1.22610e-02,1.81290e+01
1.25057e-02,1.71074e+01
1.27553e-02,1.61400e+01
1.30098e-02,1.52240e+01
1.32695e-02,1.43568e+01
1.35343e-02,1.35361e+01
1.38045e-02,1.27595e+01
1.40800e-02,1.20247e+01
1.43610e-02,1.13298e+01
1.46476e-02,1.06726e+01
1.49400e-02,1.00512e+01
1.52382e-02,9.46390e+00
1.55423e-02,8.90884e+00
1.58525e-02,8.38441e+00
1.61689e-02,7.88901e+00
1.64916e-02,7.42117e+00
1.68208e-02,6.97943e+00
1.71565e-02,6.56246e+00
1.74989e-02,6.16894e+00
1.78482e-02,5.79765e+00
1.82044e-02,5.44742e+00
1.85678e-02,5.11713e+00
1.89383e-02,4.80573e+00
1.93163e-02,4.51221e+00
1.97019e-02,4.23560e+00
2.00951e-02,3.97501e+00
2.04962e-02,3.72956e+00
2.09052e-02,3.49843e+00
2.13225e-02,3.28085e+00
2.17481e-02,3.07606e+00
2.21821e-02,2.88338e+00
2.26248e-02,2.70212e+00
2.30764e-02,2.53166e+00
2.35370e-02,2.37140e+00
2.40068e-02,2.22076e+00
2.44859e-02,2.07920e+00
2.49746e-02,1.94621e+00
2.54731e-02,1.82130e+00
2.59815e-02,1.70402e+00
2.65001e-02,1.59392e+00
2.70290e-02,1.49059e+00
2.75684e-02,1.39365e+00
2.81187e-02,1.30272e+00
2.86799e-02,1.21744e+00
2.92523e-02,1.13750e+00
2.98361e-02,1.06257e+00
3.04316e-02,9.92355e-01
3.10390e-02,9.26580e-01
3.16585e-02,8.64978e-01
3.22904e-02,8.07298e-01
3.29348e-02,7.53304e-01
3.35922e-02,7.02774e-01
3.42626e-02,6.55496e-01
3.49465e-02,6.11273e-01
3.56440e-02,5.69916e-01
3.63554e-02,5.31250e-01
3.70810e-02,4.95108e-01
3.78211e-02,4.61333e-01
3.85760e-02,4.29778e-01
3.93459e-02,4.00302e-01
4.01312e-02,3.72777e-01
4.09322e-02,3.47078e-01
4.17491e-02,3.23090e-01
4.25824e-02,3.00703e-01
4.34323e-02,2.79815e-01
4.42991e-02,2.60331e-01
4.51833e-02,2.42159e-01
4.60851e-02,2.25215e-01
4.70049e-02,2.09419e-01
4.79431e-02,1.94697e-01
4.88999e-02,1.80977e-01
4.98759e-02,1.68195e-01
5.08714e-02,1.56288e-01
5.18867e-02,1.45199e-01
5.29223e-02,1.34873e-01
5.39786e-02,1.25260e-01
5.50559e-02,1.16312e-01
5.61548e-02,1.07984e-01
5.72756e-02,1.00235e-01
5.84187e-02,9.30266e-02
5.95847e-02,8.63211e-02
6.07739e-02,8.00848e-02
6.19869e-02,7.42858e-02
6.32241e-02,6.88943e-02
6.44860e-02,6.38825e-02
6.57730e-02,5.92242e-02
6.70858e-02,5.48953e-02
6.84247e-02,5.08730e-02
6.97904e-02,4.71360e-02
7.11833e-02,4.36647e-02
7.26041e-02,4.04406e-02
7.40532e-02,3.74465e-02
7.55312e-02,3.46664e-02
7.70387e-02,3.20852e-02
7.85763e-02,2.96890e-02
8.01446e-02,2.74649e-02
8.17442e-02,2.54007e-02
8.33757e-02,2.34851e-02
8.50397e-02,2.17077e-02
8.67370e-02,2.00586e-02
8.84682e-02,1.85288e-02
9.02339e-02,1.71098e-02
9.20349e-02,1.57936e-02
9.38718e-02,1.45730e-02
9.57454e-02,1.34411e-02
9.76563e-02,1.23916e-02
9.96054e-02,1.14186e-02
1.01593e-01,1.05165e-02
1.03621e-01,9.68027e-03
1.05689e-01,8.90517e-03
1.07799e-01,8.18679e-03
1.09950e-01,7.52103e-03
1.12145e-01,6.90408e-03
1.14383e-01,6.33240e-03
1.16666e-01,5.80272e-03
1.18994e-01,5.31197e-03
1.21369e-01,4.85734e-03
1.23792e-01,4.43619e-03
1.26263e-01,4.04608e-03
1.28783e-01,3.68475e-03
1.31353e-01,3.35009e-03
1.33975e-01,3.04015e-03
1.36649e-01,2.75313e-03
1.39376e-01,2.48734e-03
1.42158e-01,2.24123e-03
1.44995e-01,2.01336e-03
1.47889e-01,1.80237e-03
1.50841e-01,1.60704e-03
1.53851e-01,1.42620e-03
1.56922e-01,1.25880e-03
1.60054e-01,1.10383e-03
1.63248e-01,9.60392e-04
1.66507e-01,8.27620e-04
1.69830e-01,7.04731e-04
1.73219e-01,5.90993e-04
1.76677e-01,4.85729e-04
1.80203e-01,3.88311e-04
1.83800e-01,2.98159e-04
1.87468e-01,2.14732e-04
1.91210e-01,1.37533e-04
1.95026e-01,6.60983e-05
1.98918e-01,0.00000e+00
