m1=5173.993, m2=10.915, gsp=2.233, rhosp=626.515
fGW[Hz],dPh[rad]
6.12638e-03,3.51894e+03
6.28016e-03,3.33154e+03
6.43780e-03,3.15404e+03
6.59940e-03,2.98592e+03
6.76505e-03,2.82669e+03
6.93486e-03,2.67588e+03
7.10894e-03,2.53304e+03
7.28738e-03,2.39776e+03
7.47030e-03,2.26963e+03
7.65782e-03,2.14829e+03
7.85004e-03,2.03336e+03
8.04708e-03,1.92453e+03
8.24908e-03,1.82145e+03
8.45614e-03,1.72384e+03
8.66840e-03,1.63140e+03
8.88599e-03,1.54386e+03
9.10904e-03,1.46096e+03
9.33768e-03,1.38246e+03
9.57207e-03,1.30812e+03
9.81234e-03,1.23773e+03
1.00586e-02,1.17108e+03
1.03111e-02,1.10797e+03
1.05700e-02,1.04821e+03
1.08353e-02,9.91622e+02
1.11073e-02,9.38048e+02
1.13861e-02,8.87323e+02
1.16719e-02,8.39299e+02
1.19648e-02,7.93831e+02
1.22652e-02,7.50786e+02
1.25730e-02,7.10035e+02
1.28886e-02,6.71456e+02
1.32122e-02,6.34936e+02
1.35438e-02,6.00366e+02
1.38838e-02,5.67642e+02
1.42323e-02,5.36667e+02
1.45895e-02,5.07348e+02
1.49557e-02,4.79597e+02
1.53311e-02,4.53333e+02
1.57160e-02,4.28475e+02
1.61105e-02,4.04951e+02
1.65149e-02,3.82688e+02
1.69294e-02,3.61620e+02
1.73544e-02,3.41685e+02
1.77900e-02,3.22821e+02
1.82365e-02,3.04973e+02
1.86943e-02,2.88086e+02
1.91635e-02,2.72109e+02
1.96446e-02,2.56994e+02
2.01377e-02,2.42695e+02
2.06432e-02,2.29169e+02
2.11613e-02,2.16376e+02
2.16925e-02,2.04275e+02
2.22370e-02,1.92830e+02
2.27952e-02,1.82006e+02
2.33674e-02,1.71770e+02
2.39539e-02,1.62092e+02
2.45552e-02,1.52940e+02
2.51716e-02,1.44287e+02
2.58034e-02,1.36107e+02
2.64511e-02,1.28374e+02
2.71151e-02,1.21065e+02
2.77957e-02,1.14156e+02
2.84934e-02,1.07627e+02
2.92086e-02,1.01456e+02
2.99418e-02,9.56256e+01
3.06934e-02,9.01165e+01
3.14638e-02,8.49118e+01
3.22536e-02,7.99952e+01
3.30632e-02,7.53510e+01
3.38931e-02,7.09648e+01
3.47439e-02,6.68227e+01
3.56160e-02,6.29114e+01
3.65100e-02,5.92186e+01
3.74264e-02,5.57324e+01
3.83659e-02,5.24418e+01
3.93289e-02,4.93361e+01
4.03161e-02,4.64053e+01
4.13281e-02,4.36399e+01
4.23655e-02,4.10310e+01
4.34289e-02,3.85701e+01
4.45191e-02,3.62492e+01
4.56366e-02,3.40605e+01
4.67821e-02,3.19969e+01
4.79564e-02,3.00515e+01
4.91601e-02,2.82179e+01
5.03941e-02,2.64900e+01
5.16591e-02,2.48619e+01
5.29558e-02,2.33282e+01
5.42851e-02,2.18837e+01
5.56477e-02,2.05234e+01
5.70445e-02,1.92426e+01
5.84764e-02,1.80371e+01
5.99442e-02,1.69025e+01
6.14489e-02,1.58350e+01
6.29914e-02,1.48307e+01
6.45725e-02,1.38863e+01
6.61934e-02,1.29982e+01
6.78549e-02,1.21634e+01
6.95581e-02,1.13788e+01
7.13041e-02,1.06417e+01
7.30940e-02,9.94921e+00
7.49287e-02,9.29893e+00
7.68095e-02,8.68841e+00
7.87376e-02,8.11538e+00
8.07140e-02,7.57770e+00
8.27400e-02,7.07332e+00
8.48169e-02,6.60032e+00
8.69459e-02,6.15689e+00
8.91283e-02,5.74130e+00
9.13656e-02,5.35192e+00
9.36590e-02,4.98722e+00
9.60099e-02,4.64574e+00
9.84199e-02,4.32612e+00
1.00890e-01,4.02704e+00
1.03423e-01,3.74730e+00
1.06019e-01,3.48571e+00
1.08680e-01,3.24121e+00
1.11408e-01,3.01274e+00
1.14205e-01,2.79934e+00
1.17071e-01,2.60009e+00
1.20010e-01,2.41411e+00
1.23022e-01,2.24059e+00
1.26110e-01,2.07876e+00
1.29276e-01,1.92788e+00
1.32521e-01,1.78727e+00
1.35847e-01,1.65629e+00
1.39257e-01,1.53431e+00
1.42753e-01,1.42077e+00
1.46336e-01,1.31513e+00
1.50009e-01,1.21687e+00
1.53775e-01,1.12552e+00
1.57635e-01,1.04063e+00
1.61591e-01,9.61767e-01
1.65648e-01,8.88539e-01
1.69806e-01,8.20570e-01
1.74068e-01,7.57509e-01
1.78437e-01,6.99025e-01
1.82916e-01,6.44809e-01
1.87508e-01,5.94569e-01
1.92214e-01,5.48033e-01
1.97039e-01,5.04946e-01
2.01985e-01,4.65069e-01
2.07055e-01,4.28177e-01
2.12253e-01,3.94060e-01
2.17580e-01,3.62523e-01
2.23042e-01,3.33383e-01
2.28641e-01,3.06466e-01
2.34380e-01,2.81615e-01
2.40263e-01,2.58679e-01
2.46294e-01,2.37518e-01
2.52476e-01,2.18004e-01
2.58814e-01,2.00013e-01
2.65310e-01,1.83435e-01
2.71970e-01,1.68162e-01
2.78797e-01,1.54099e-01
2.85795e-01,1.41153e-01
2.92969e-01,1.29240e-01
3.00322e-01,1.18281e-01
3.07861e-01,1.08203e-01
3.15589e-01,9.89393e-02
3.23510e-01,9.04259e-02
3.31631e-01,8.26049e-02
3.39955e-01,7.54222e-02
3.48489e-01,6.88277e-02
3.57236e-01,6.27752e-02
3.66203e-01,5.72216e-02
3.75395e-01,5.21275e-02
3.84818e-01,4.74560e-02
3.94478e-01,4.31733e-02
4.04379e-01,3.92481e-02
4.14530e-01,3.56515e-02
4.24935e-01,3.23569e-02
4.35602e-01,2.93396e-02
4.46536e-01,2.65770e-02
4.57744e-01,2.40482e-02
4.69234e-01,2.17340e-02
4.81013e-01,1.96165e-02
4.93087e-01,1.76796e-02
5.05464e-01,1.59082e-02
5.18152e-01,1.42884e-02
5.31158e-01,1.28077e-02
5.44491e-01,1.14543e-02
5.58158e-01,1.02175e-02
5.72169e-01,9.08745e-03
5.86531e-01,8.05517e-03
6.01253e-01,7.11235e-03
6.16346e-01,6.25138e-03
6.31817e-01,5.46527e-03
6.47676e-01,4.74763e-03
6.63934e-01,4.09260e-03
6.80599e-01,3.49480e-03
6.97683e-01,2.94931e-03
7.15196e-01,2.45162e-03
7.33148e-01,1.99760e-03
7.51551e-01,1.58347e-03
7.70416e-01,1.20578e-03
7.89754e-01,8.61363e-04
8.09578e-01,5.47320e-04
8.29900e-01,2.61005e-04
8.50731e-01,0.00000e+00
