m1=36970.342, m2=16.929, gsp=2.040, rhosp=2343.427
fGW[Hz],dPh[rad]
3.17788e-03,3.87480e+02
3.23626e-03,3.69439e+02
3.29571e-03,3.52199e+02
3.35626e-03,3.35725e+02
3.41791e-03,3.19984e+02
3.48070e-03,3.04945e+02
3.54465e-03,2.90579e+02
3.60976e-03,2.76855e+02
3.67608e-03,2.63748e+02
3.74361e-03,2.51229e+02
3.81238e-03,2.39274e+02
3.88242e-03,2.27859e+02
3.95374e-03,2.16960e+02
4.02637e-03,2.06555e+02
4.10034e-03,1.96622e+02
4.17567e-03,1.87142e+02
4.25238e-03,1.78094e+02
4.33049e-03,1.69460e+02
4.41005e-03,1.61221e+02
4.49106e-03,1.53361e+02
4.57357e-03,1.45863e+02
4.65759e-03,1.38711e+02
4.74315e-03,1.31890e+02
4.83028e-03,1.25386e+02
4.91902e-03,1.19184e+02
5.00939e-03,1.13271e+02
5.10141e-03,1.07635e+02
5.19513e-03,1.02262e+02
5.29057e-03,9.71429e+01
5.38776e-03,9.22646e+01
5.48673e-03,8.76170e+01
5.58753e-03,8.31896e+01
5.69017e-03,7.89728e+01
5.79471e-03,7.49570e+01
5.90116e-03,7.11333e+01
6.00957e-03,6.74929e+01
6.11997e-03,6.40277e+01
6.23239e-03,6.07298e+01
6.34689e-03,5.75915e+01
6.46348e-03,5.46056e+01
6.58222e-03,5.17652e+01
6.70314e-03,4.90636e+01
6.82628e-03,4.64944e+01
6.95169e-03,4.40517e+01
7.07939e-03,4.17295e+01
7.20945e-03,3.95223e+01
7.34189e-03,3.74248e+01
7.47676e-03,3.54319e+01
7.61412e-03,3.35388e+01
7.75399e-03,3.17406e+01
7.89644e-03,3.00331e+01
8.04150e-03,2.84119e+01
8.18923e-03,2.68730e+01
8.33967e-03,2.54125e+01
8.49288e-03,2.40266e+01
8.64890e-03,2.27118e+01
8.80778e-03,2.14647e+01
8.96959e-03,2.02820e+01
9.13436e-03,1.91607e+01
9.30217e-03,1.80977e+01
9.47305e-03,1.70903e+01
9.64708e-03,1.61357e+01
9.82430e-03,1.52314e+01
1.00048e-02,1.43749e+01
1.01886e-02,1.35638e+01
1.03757e-02,1.27959e+01
1.05664e-02,1.20690e+01
1.07605e-02,1.13811e+01
1.09581e-02,1.07302e+01
1.11595e-02,1.01146e+01
1.13645e-02,9.53233e+00
1.15732e-02,8.98179e+00
1.17858e-02,8.46135e+00
1.20024e-02,7.96947e+00
1.22228e-02,7.50469e+00
1.24474e-02,7.06561e+00
1.26761e-02,6.65090e+00
1.29089e-02,6.25930e+00
1.31461e-02,5.88959e+00
1.33876e-02,5.54064e+00
1.36335e-02,5.21134e+00
1.38840e-02,4.90067e+00
1.41390e-02,4.60763e+00
1.43988e-02,4.33128e+00
1.46633e-02,4.07073e+00
1.49327e-02,3.82513e+00
1.52070e-02,3.59367e+00
1.54863e-02,3.37559e+00
1.57708e-02,3.17015e+00
1.60605e-02,2.97667e+00
1.63556e-02,2.79449e+00
1.66561e-02,2.62299e+00
1.69620e-02,2.46157e+00
1.72736e-02,2.30967e+00
1.75910e-02,2.16676e+00
1.79141e-02,2.03235e+00
1.82432e-02,1.90594e+00
1.85784e-02,1.78709e+00
1.89197e-02,1.67536e+00
1.92672e-02,1.57036e+00
1.96212e-02,1.47170e+00
1.99816e-02,1.37900e+00
2.03487e-02,1.29194e+00
2.07225e-02,1.21018e+00
2.11032e-02,1.13341e+00
2.14909e-02,1.06135e+00
2.18857e-02,9.93713e-01
2.22877e-02,9.30245e-01
2.26972e-02,8.70699e-01
2.31141e-02,8.14842e-01
2.35388e-02,7.62455e-01
2.39712e-02,7.13331e-01
2.44116e-02,6.67276e-01
2.48600e-02,6.24105e-01
2.53167e-02,5.83644e-01
2.57818e-02,5.45729e-01
2.62554e-02,5.10206e-01
2.67378e-02,4.76930e-01
2.72289e-02,4.45763e-01
2.77292e-02,4.16576e-01
2.82386e-02,3.89248e-01
2.87573e-02,3.63665e-01
2.92856e-02,3.39718e-01
2.98236e-02,3.17305e-01
3.03715e-02,2.96333e-01
3.09294e-02,2.76711e-01
3.14976e-02,2.58354e-01
3.20763e-02,2.41183e-01
3.26655e-02,2.25125e-01
3.32656e-02,2.10108e-01
3.38767e-02,1.96067e-01
3.44990e-02,1.82941e-01
3.51328e-02,1.70671e-01
3.57782e-02,1.59203e-01
3.64355e-02,1.48485e-01
3.71048e-02,1.38470e-01
3.77865e-02,1.29113e-01
3.84806e-02,1.20371e-01
3.91876e-02,1.12205e-01
3.99075e-02,1.04578e-01
4.06406e-02,9.74555e-02
4.13872e-02,9.08038e-02
4.21475e-02,8.45930e-02
4.29218e-02,7.87943e-02
4.37103e-02,7.33809e-02
4.45133e-02,6.83277e-02
4.53310e-02,6.36112e-02
4.61638e-02,5.92093e-02
4.70118e-02,5.51014e-02
4.78754e-02,5.12682e-02
4.87549e-02,4.76916e-02
4.96506e-02,4.43547e-02
5.05627e-02,4.12417e-02
5.14916e-02,3.83378e-02
5.24375e-02,3.56291e-02
5.34008e-02,3.31028e-02
5.43818e-02,3.07467e-02
5.53809e-02,2.85495e-02
5.63983e-02,2.65006e-02
5.74343e-02,2.45901e-02
5.84894e-02,2.28089e-02
5.95639e-02,2.11482e-02
6.06582e-02,1.96000e-02
6.17725e-02,1.81568e-02
6.29073e-02,1.68115e-02
6.40629e-02,1.55576e-02
6.52398e-02,1.43889e-02
6.64383e-02,1.32997e-02
6.76588e-02,1.22846e-02
6.89018e-02,1.13386e-02
7.01675e-02,1.04572e-02
7.14566e-02,9.63581e-03
7.27693e-02,8.87051e-03
7.41061e-02,8.15748e-03
7.54675e-02,7.49317e-03
7.68538e-02,6.87427e-03
7.82657e-02,6.29772e-03
7.97035e-02,5.76064e-03
8.11677e-02,5.26034e-03
8.26588e-02,4.79432e-03
8.41773e-02,4.36026e-03
8.57237e-02,3.95597e-03
8.72985e-02,3.57942e-03
8.89022e-02,3.22874e-03
9.05354e-02,2.90214e-03
9.21986e-02,2.59799e-03
9.38923e-02,2.31475e-03
9.56172e-02,2.05099e-03
9.73738e-02,1.80538e-03
9.91626e-02,1.57669e-03
1.00984e-01,1.36374e-03
1.02839e-01,1.16546e-03
1.04729e-01,9.80851e-04
1.06653e-01,8.08968e-04
1.08612e-01,6.48939e-04
1.10607e-01,4.99952e-04
1.12639e-01,3.61247e-04
1.14708e-01,2.32118e-04
1.16816e-01,1.11907e-04
1.18962e-01,0.00000e+00
