m1=50324.874, m2=35.016, gsp=2.299, rhosp=3879.463
fGW[Hz],dPh[rad]
2.24028e-03,2.19454e+04
2.28191e-03,2.09981e+04
2.32432e-03,2.00896e+04
2.36751e-03,1.92184e+04
2.41150e-03,1.83832e+04
2.45631e-03,1.75824e+04
2.50196e-03,1.68147e+04
2.54845e-03,1.60787e+04
2.59580e-03,1.53733e+04
2.64404e-03,1.46972e+04
2.69317e-03,1.40492e+04
2.74322e-03,1.34282e+04
2.79419e-03,1.28332e+04
2.84612e-03,1.22631e+04
2.89900e-03,1.17169e+04
2.95287e-03,1.11936e+04
3.00774e-03,1.06924e+04
3.06363e-03,1.02123e+04
3.12056e-03,9.75247e+03
3.17855e-03,9.31216e+03
3.23762e-03,8.89054e+03
3.29778e-03,8.48688e+03
3.35906e-03,8.10043e+03
3.42148e-03,7.73051e+03
3.48506e-03,7.37645e+03
3.54982e-03,7.03760e+03
3.61578e-03,6.71334e+03
3.68297e-03,6.40309e+03
3.75141e-03,6.10627e+03
3.82112e-03,5.82234e+03
3.89212e-03,5.55076e+03
3.96445e-03,5.29103e+03
4.03811e-03,5.04267e+03
4.11315e-03,4.80521e+03
4.18958e-03,4.57820e+03
4.26743e-03,4.36121e+03
4.34673e-03,4.15382e+03
4.42751e-03,3.95564e+03
4.50978e-03,3.76628e+03
4.59358e-03,3.58539e+03
4.67894e-03,3.41259e+03
4.76588e-03,3.24757e+03
4.85445e-03,3.08998e+03
4.94465e-03,2.93953e+03
5.03654e-03,2.79590e+03
5.13013e-03,2.65881e+03
5.22545e-03,2.52799e+03
5.32256e-03,2.40316e+03
5.42146e-03,2.28407e+03
5.52220e-03,2.17049e+03
5.62482e-03,2.06216e+03
5.72934e-03,1.95887e+03
5.83580e-03,1.86040e+03
5.94425e-03,1.76655e+03
6.05470e-03,1.67710e+03
6.16721e-03,1.59187e+03
6.28182e-03,1.51068e+03
6.39855e-03,1.43335e+03
6.51745e-03,1.35971e+03
6.63855e-03,1.28959e+03
6.76191e-03,1.22285e+03
6.88757e-03,1.15933e+03
7.01555e-03,1.09888e+03
7.14592e-03,1.04138e+03
7.27870e-03,9.86683e+02
7.41396e-03,9.34670e+02
7.55173e-03,8.85218e+02
7.69206e-03,8.38211e+02
7.83499e-03,7.93537e+02
7.98058e-03,7.51089e+02
8.12888e-03,7.10765e+02
8.27993e-03,6.72467e+02
8.43379e-03,6.36101e+02
8.59051e-03,6.01578e+02
8.75014e-03,5.68810e+02
8.91274e-03,5.37716e+02
9.07836e-03,5.08216e+02
9.24706e-03,4.80236e+02
9.41889e-03,4.53703e+02
9.59391e-03,4.28547e+02
9.77219e-03,4.04703e+02
9.95378e-03,3.82107e+02
1.01387e-02,3.60698e+02
1.03271e-02,3.40420e+02
1.05190e-02,3.21216e+02
1.07145e-02,3.03035e+02
1.09136e-02,2.85824e+02
1.11164e-02,2.69537e+02
1.13230e-02,2.54127e+02
1.15334e-02,2.39550e+02
1.17477e-02,2.25765e+02
1.19660e-02,2.12731e+02
1.21884e-02,2.00410e+02
1.24148e-02,1.88766e+02
1.26455e-02,1.77765e+02
1.28805e-02,1.67372e+02
1.31199e-02,1.57557e+02
1.33637e-02,1.48289e+02
1.36120e-02,1.39540e+02
1.38649e-02,1.31283e+02
1.41226e-02,1.23491e+02
1.43850e-02,1.16141e+02
1.46523e-02,1.09208e+02
1.49246e-02,1.02671e+02
1.52019e-02,9.65074e+01
1.54844e-02,9.06979e+01
1.57721e-02,8.52231e+01
1.60652e-02,8.00649e+01
1.63638e-02,7.52059e+01
1.66678e-02,7.06296e+01
1.69776e-02,6.63206e+01
1.72930e-02,6.22640e+01
1.76144e-02,5.84458e+01
1.79417e-02,5.48526e+01
1.82751e-02,5.14720e+01
1.86147e-02,4.82918e+01
1.89606e-02,4.53009e+01
1.93129e-02,4.24884e+01
1.96718e-02,3.98442e+01
2.00373e-02,3.73586e+01
2.04097e-02,3.50227e+01
2.07889e-02,3.28277e+01
2.11752e-02,3.07655e+01
2.15687e-02,2.88284e+01
2.19695e-02,2.70092e+01
2.23778e-02,2.53009e+01
2.27936e-02,2.36971e+01
2.32172e-02,2.21915e+01
2.36486e-02,2.07784e+01
2.40880e-02,1.94524e+01
2.45356e-02,1.82082e+01
2.49916e-02,1.70410e+01
2.54560e-02,1.59461e+01
2.59290e-02,1.49193e+01
2.64108e-02,1.39564e+01
2.69016e-02,1.30536e+01
2.74015e-02,1.22073e+01
2.79107e-02,1.14140e+01
2.84293e-02,1.06705e+01
2.89576e-02,9.97380e+00
2.94957e-02,9.32098e+00
3.00438e-02,8.70939e+00
3.06021e-02,8.13647e+00
3.11707e-02,7.59986e+00
3.17499e-02,7.09730e+00
3.23399e-02,6.62670e+00
3.29409e-02,6.18606e+00
3.35530e-02,5.77353e+00
3.41765e-02,5.38736e+00
3.48116e-02,5.02589e+00
3.54584e-02,4.68759e+00
3.61173e-02,4.37099e+00
3.67885e-02,4.07474e+00
3.74721e-02,3.79755e+00
3.81684e-02,3.53822e+00
3.88777e-02,3.29562e+00
3.96001e-02,3.06870e+00
4.03360e-02,2.85645e+00
4.10855e-02,2.65795e+00
4.18489e-02,2.47232e+00
4.26266e-02,2.29875e+00
4.34187e-02,2.13645e+00
4.42255e-02,1.98471e+00
4.50473e-02,1.84285e+00
4.58844e-02,1.71024e+00
4.67370e-02,1.58629e+00
4.76055e-02,1.47043e+00
4.84901e-02,1.36215e+00
4.93912e-02,1.26096e+00
5.03090e-02,1.16640e+00
5.12438e-02,1.07803e+00
5.21961e-02,9.95470e-01
5.31660e-02,9.18329e-01
5.41539e-02,8.46259e-01
5.51602e-02,7.78930e-01
5.61852e-02,7.16034e-01
5.72293e-02,6.57282e-01
5.82927e-02,6.02404e-01
5.93760e-02,5.51147e-01
6.04793e-02,5.03275e-01
6.16031e-02,4.58565e-01
6.27479e-02,4.16812e-01
6.39139e-02,3.77821e-01
6.51015e-02,3.41411e-01
6.63113e-02,3.07413e-01
6.75435e-02,2.75669e-01
6.87986e-02,2.46029e-01
7.00770e-02,2.18357e-01
7.13792e-02,1.92521e-01
7.27056e-02,1.68402e-01
7.40566e-02,1.45885e-01
7.54328e-02,1.24865e-01
7.68345e-02,1.05244e-01
7.82622e-02,8.69289e-02
7.97165e-02,6.98331e-02
8.11978e-02,5.38760e-02
8.27067e-02,3.89824e-02
8.42436e-02,2.50816e-02
8.58090e-02,1.21080e-02
8.74035e-02,0.00000e+00
