m1=9975.100, m2=14.059, gsp=2.182, rhosp=3379.785
fGW[Hz],dPh[rad]
4.72791e-03,2.75663e+03
4.83691e-03,2.61743e+03
4.94842e-03,2.48515e+03
5.06251e-03,2.35946e+03
5.17922e-03,2.24003e+03
5.29863e-03,2.12655e+03
5.42079e-03,2.01872e+03
5.54576e-03,1.91627e+03
5.67362e-03,1.81893e+03
5.80442e-03,1.72645e+03
5.93824e-03,1.63859e+03
6.07515e-03,1.55511e+03
6.21521e-03,1.47581e+03
6.35850e-03,1.40047e+03
6.50509e-03,1.32891e+03
6.65507e-03,1.26092e+03
6.80850e-03,1.19634e+03
6.96547e-03,1.13500e+03
7.12605e-03,1.07674e+03
7.29034e-03,1.02140e+03
7.45842e-03,9.68837e+02
7.63037e-03,9.18917e+02
7.80629e-03,8.71509e+02
7.98626e-03,8.26486e+02
8.17038e-03,7.83731e+02
8.35875e-03,7.43131e+02
8.55146e-03,7.04580e+02
8.74861e-03,6.67975e+02
8.95031e-03,6.33219e+02
9.15666e-03,6.00222e+02
9.36776e-03,5.68895e+02
9.58373e-03,5.39155e+02
9.80469e-03,5.10924e+02
1.00307e-02,4.84126e+02
1.02620e-02,4.58690e+02
1.04986e-02,4.34548e+02
1.07406e-02,4.11636e+02
1.09882e-02,3.89891e+02
1.12416e-02,3.69257e+02
1.15007e-02,3.49677e+02
1.17659e-02,3.31100e+02
1.20372e-02,3.13473e+02
1.23147e-02,2.96752e+02
1.25986e-02,2.80889e+02
1.28890e-02,2.65842e+02
1.31862e-02,2.51570e+02
1.34902e-02,2.38034e+02
1.38012e-02,2.25197e+02
1.41194e-02,2.13025e+02
1.44449e-02,2.01483e+02
1.47779e-02,1.90540e+02
1.51186e-02,1.80167e+02
1.54672e-02,1.70333e+02
1.58238e-02,1.61013e+02
1.61886e-02,1.52179e+02
1.65618e-02,1.43809e+02
1.69437e-02,1.35877e+02
1.73343e-02,1.28362e+02
1.77339e-02,1.21243e+02
1.81428e-02,1.14500e+02
1.85611e-02,1.08113e+02
1.89890e-02,1.02065e+02
1.94268e-02,9.63379e+01
1.98746e-02,9.09159e+01
2.03329e-02,8.57832e+01
2.08016e-02,8.09251e+01
2.12812e-02,7.63275e+01
2.17718e-02,7.19770e+01
2.22738e-02,6.78610e+01
2.27873e-02,6.39674e+01
2.33127e-02,6.02848e+01
2.38501e-02,5.68023e+01
2.44000e-02,5.35095e+01
2.49625e-02,5.03967e+01
2.55380e-02,4.74544e+01
2.61268e-02,4.46739e+01
2.67291e-02,4.20467e+01
2.73454e-02,3.95648e+01
2.79758e-02,3.72207e+01
2.86208e-02,3.50070e+01
2.92806e-02,3.29170e+01
2.99557e-02,3.09441e+01
3.06463e-02,2.90822e+01
3.13529e-02,2.73254e+01
3.20757e-02,2.56682e+01
3.28152e-02,2.41051e+01
3.35718e-02,2.26312e+01
3.43457e-02,2.12418e+01
3.51376e-02,1.99323e+01
3.59477e-02,1.86984e+01
3.67764e-02,1.75360e+01
3.76243e-02,1.64412e+01
3.84917e-02,1.54104e+01
3.93791e-02,1.44401e+01
4.02870e-02,1.35270e+01
4.12158e-02,1.26680e+01
4.21661e-02,1.18600e+01
4.31382e-02,1.11002e+01
4.41327e-02,1.03860e+01
4.51502e-02,9.71479e+00
4.61911e-02,9.08421e+00
4.72561e-02,8.49196e+00
4.83455e-02,7.93587e+00
4.94601e-02,7.41391e+00
5.06004e-02,6.92411e+00
5.17670e-02,6.46465e+00
5.29605e-02,6.03378e+00
5.41815e-02,5.62984e+00
5.54306e-02,5.25129e+00
5.67086e-02,4.89663e+00
5.80160e-02,4.56447e+00
5.93535e-02,4.25348e+00
6.07219e-02,3.96241e+00
6.21218e-02,3.69008e+00
6.35540e-02,3.43537e+00
6.50193e-02,3.19721e+00
6.65183e-02,2.97461e+00
6.80518e-02,2.76662e+00
6.96207e-02,2.57235e+00
7.12258e-02,2.39096e+00
7.28679e-02,2.22166e+00
7.45479e-02,2.06368e+00
7.62666e-02,1.91633e+00
7.80249e-02,1.77894e+00
7.98237e-02,1.65088e+00
8.16641e-02,1.53156e+00
8.35468e-02,1.42042e+00
8.54730e-02,1.31693e+00
8.74435e-02,1.22061e+00
8.94595e-02,1.13098e+00
9.15220e-02,1.04761e+00
9.36320e-02,9.70092e-01
9.57907e-02,8.98035e-01
9.79991e-02,8.31080e-01
1.00258e-01,7.68884e-01
1.02570e-01,7.11130e-01
1.04935e-01,6.57517e-01
1.07354e-01,6.07766e-01
1.09829e-01,5.61612e-01
1.12361e-01,5.18809e-01
1.14951e-01,4.79127e-01
1.17602e-01,4.42349e-01
1.20313e-01,4.08274e-01
1.23087e-01,3.76712e-01
1.25924e-01,3.47488e-01
1.28828e-01,3.20435e-01
1.31798e-01,2.95400e-01
1.34836e-01,2.72239e-01
1.37945e-01,2.50817e-01
1.41125e-01,2.31010e-01
1.44379e-01,2.12702e-01
1.47707e-01,1.95782e-01
1.51113e-01,1.80150e-01
1.54597e-01,1.65712e-01
1.58161e-01,1.52380e-01
1.61807e-01,1.40072e-01
1.65538e-01,1.28712e-01
1.69354e-01,1.18230e-01
1.73258e-01,1.08560e-01
1.77253e-01,9.96417e-02
1.81339e-01,9.14181e-02
1.85520e-01,8.38367e-02
1.89797e-01,7.68490e-02
1.94173e-01,7.04099e-02
1.98650e-01,6.44774e-02
2.03230e-01,5.90127e-02
2.07915e-01,5.39800e-02
2.12708e-01,4.93461e-02
2.17612e-01,4.50800e-02
2.22629e-01,4.11533e-02
2.27762e-01,3.75396e-02
2.33013e-01,3.42146e-02
2.38385e-01,3.11557e-02
2.43881e-01,2.83420e-02
2.49504e-01,2.57543e-02
2.55256e-01,2.33748e-02
2.61141e-01,2.11871e-02
2.67161e-01,1.91760e-02
2.73321e-01,1.73275e-02
2.79622e-01,1.56287e-02
2.86069e-01,1.40677e-02
2.92664e-01,1.26334e-02
2.99411e-01,1.13159e-02
3.06314e-01,1.01056e-02
3.13376e-01,8.99401e-03
3.20601e-01,7.97321e-03
3.27992e-01,7.03587e-03
3.35554e-01,6.17525e-03
3.43290e-01,5.38515e-03
3.51205e-01,4.65988e-03
3.59302e-01,3.99418e-03
3.67585e-01,3.38320e-03
3.76060e-01,2.82251e-03
3.84730e-01,2.30801e-03
3.93600e-01,1.83593e-03
4.02674e-01,1.40281e-03
4.11958e-01,1.00547e-03
4.21455e-01,6.40977e-04
4.31172e-01,3.06646e-04
4.41112e-01,0.00000e+00
