m1=109923.921, m2=74.793, gsp=2.344, rhosp=79.151
fGW[Hz],dPh[rad]
1.38636e-03,1.37092e+04
1.40999e-03,1.31481e+04
1.43402e-03,1.26086e+04
1.45845e-03,1.20898e+04
1.48331e-03,1.15911e+04
1.50858e-03,1.11117e+04
1.53429e-03,1.06509e+04
1.56044e-03,1.02080e+04
1.58703e-03,9.78229e+03
1.61407e-03,9.37325e+03
1.64158e-03,8.98020e+03
1.66955e-03,8.60257e+03
1.69800e-03,8.23979e+03
1.72694e-03,7.89131e+03
1.75637e-03,7.55659e+03
1.78630e-03,7.23514e+03
1.81674e-03,6.92644e+03
1.84769e-03,6.63004e+03
1.87918e-03,6.34547e+03
1.91120e-03,6.07228e+03
1.94377e-03,5.81007e+03
1.97689e-03,5.55840e+03
2.01058e-03,5.31689e+03
2.04484e-03,5.08515e+03
2.07969e-03,4.86282e+03
2.11513e-03,4.64954e+03
2.15117e-03,4.44496e+03
2.18783e-03,4.24877e+03
2.22511e-03,4.06062e+03
2.26303e-03,3.88023e+03
2.30160e-03,3.70730e+03
2.34082e-03,3.54153e+03
2.38071e-03,3.38265e+03
2.42128e-03,3.23040e+03
2.46254e-03,3.08453e+03
2.50450e-03,2.94477e+03
2.54718e-03,2.81091e+03
2.59058e-03,2.68270e+03
2.63473e-03,2.55993e+03
2.67963e-03,2.44238e+03
2.72529e-03,2.32985e+03
2.77173e-03,2.22215e+03
2.81896e-03,2.11907e+03
2.86700e-03,2.02044e+03
2.91586e-03,1.92608e+03
2.96555e-03,1.83583e+03
3.01608e-03,1.74950e+03
3.06748e-03,1.66696e+03
3.11975e-03,1.58804e+03
3.17291e-03,1.51260e+03
3.22698e-03,1.44050e+03
3.28197e-03,1.37160e+03
3.33790e-03,1.30577e+03
3.39478e-03,1.24289e+03
3.45263e-03,1.18283e+03
3.51147e-03,1.12548e+03
3.57131e-03,1.07072e+03
3.63216e-03,1.01845e+03
3.69406e-03,9.68564e+02
3.75701e-03,9.20961e+02
3.82103e-03,8.75546e+02
3.88614e-03,8.32225e+02
3.95237e-03,7.90909e+02
4.01972e-03,7.51514e+02
4.08822e-03,7.13957e+02
4.15789e-03,6.78159e+02
4.22874e-03,6.44043e+02
4.30080e-03,6.11538e+02
4.37409e-03,5.80572e+02
4.44863e-03,5.51079e+02
4.52444e-03,5.22994e+02
4.60154e-03,4.96255e+02
4.67995e-03,4.70802e+02
4.75970e-03,4.46578e+02
4.84081e-03,4.23528e+02
4.92330e-03,4.01600e+02
5.00720e-03,3.80742e+02
5.09252e-03,3.60907e+02
5.17931e-03,3.42048e+02
5.26756e-03,3.24120e+02
5.35733e-03,3.07081e+02
5.44862e-03,2.90889e+02
5.54147e-03,2.75506e+02
5.63590e-03,2.60893e+02
5.73194e-03,2.47016e+02
5.82962e-03,2.33839e+02
5.92896e-03,2.21329e+02
6.03000e-03,2.09455e+02
6.13275e-03,1.98187e+02
6.23726e-03,1.87495e+02
6.34355e-03,1.77353e+02
6.45165e-03,1.67733e+02
6.56159e-03,1.58611e+02
6.67340e-03,1.49962e+02
6.78712e-03,1.41763e+02
6.90278e-03,1.33992e+02
7.02041e-03,1.26628e+02
7.14004e-03,1.19652e+02
7.26172e-03,1.13043e+02
7.38546e-03,1.06784e+02
7.51131e-03,1.00857e+02
7.63931e-03,9.52447e+01
7.76949e-03,8.99324e+01
7.90189e-03,8.49045e+01
8.03655e-03,8.01465e+01
8.17350e-03,7.56447e+01
8.31278e-03,7.13860e+01
8.45444e-03,6.73579e+01
8.59851e-03,6.35485e+01
8.74503e-03,5.99465e+01
8.89406e-03,5.65412e+01
9.04562e-03,5.33223e+01
9.19976e-03,5.02800e+01
9.35653e-03,4.74052e+01
9.51598e-03,4.46889e+01
9.67814e-03,4.21228e+01
9.84306e-03,3.96990e+01
1.00108e-02,3.74098e+01
1.01814e-02,3.52482e+01
1.03549e-02,3.32072e+01
1.05313e-02,3.12804e+01
1.07108e-02,2.94617e+01
1.08933e-02,2.77452e+01
1.10790e-02,2.61254e+01
1.12678e-02,2.45970e+01
1.14598e-02,2.31551e+01
1.16550e-02,2.17948e+01
1.18537e-02,2.05119e+01
1.20557e-02,1.93019e+01
1.22611e-02,1.81609e+01
1.24700e-02,1.70851e+01
1.26825e-02,1.60708e+01
1.28987e-02,1.51147e+01
1.31185e-02,1.42135e+01
1.33420e-02,1.33642e+01
1.35694e-02,1.25638e+01
1.38006e-02,1.18096e+01
1.40358e-02,1.10990e+01
1.42750e-02,1.04295e+01
1.45182e-02,9.79892e+00
1.47656e-02,9.20494e+00
1.50172e-02,8.64551e+00
1.52731e-02,8.11868e+00
1.55334e-02,7.62259e+00
1.57981e-02,7.15548e+00
1.60673e-02,6.71570e+00
1.63411e-02,6.30169e+00
1.66196e-02,5.91197e+00
1.69028e-02,5.54514e+00
1.71908e-02,5.19988e+00
1.74838e-02,4.87495e+00
1.77817e-02,4.56918e+00
1.80847e-02,4.28146e+00
1.83929e-02,4.01074e+00
1.87063e-02,3.75604e+00
1.90251e-02,3.51642e+00
1.93493e-02,3.29100e+00
1.96790e-02,3.07897e+00
2.00144e-02,2.87953e+00
2.03554e-02,2.69195e+00
2.07023e-02,2.51553e+00
2.10551e-02,2.34963e+00
2.14139e-02,2.19362e+00
2.17788e-02,2.04692e+00
2.21499e-02,1.90899e+00
2.25274e-02,1.77930e+00
2.29113e-02,1.65737e+00
2.33017e-02,1.54275e+00
2.36988e-02,1.43499e+00
2.41026e-02,1.33370e+00
2.45134e-02,1.23849e+00
2.49311e-02,1.14900e+00
2.53559e-02,1.06489e+00
2.57880e-02,9.85842e-01
2.62275e-02,9.11550e-01
2.66744e-02,8.41734e-01
2.71290e-02,7.76126e-01
2.75913e-02,7.14475e-01
2.80614e-02,6.56545e-01
2.85396e-02,6.02113e-01
2.90260e-02,5.50970e-01
2.95206e-02,5.02920e-01
3.00237e-02,4.57776e-01
3.05353e-02,4.15364e-01
3.10556e-02,3.75521e-01
3.15848e-02,3.38092e-01
3.21231e-02,3.02932e-01
3.26705e-02,2.69904e-01
3.32272e-02,2.38881e-01
3.37934e-02,2.09740e-01
3.43693e-02,1.82370e-01
3.49550e-02,1.56662e-01
3.55506e-02,1.32517e-01
3.61564e-02,1.09840e-01
3.67726e-02,8.85432e-02
3.73992e-02,6.85422e-02
3.80365e-02,4.97589e-02
3.86847e-02,3.21196e-02
3.93439e-02,1.55550e-02
4.00144e-02,0.00000e+00
