m1=11920.419, m2=5.244, gsp=2.483, rhosp=38.101
fGW[Hz],dPh[rad]
6.54489e-03,6.33435e+05
6.67885e-03,6.05235e+05
6.81555e-03,5.78226e+05
6.95505e-03,5.52360e+05
7.09740e-03,5.27590e+05
7.24267e-03,5.03873e+05
7.39091e-03,4.81164e+05
7.54219e-03,4.59423e+05
7.69656e-03,4.38610e+05
7.85409e-03,4.18686e+05
8.01485e-03,3.99617e+05
8.17889e-03,3.81366e+05
8.34630e-03,3.63900e+05
8.51713e-03,3.47187e+05
8.69145e-03,3.31196e+05
8.86935e-03,3.15897e+05
9.05088e-03,3.01261e+05
9.23614e-03,2.87262e+05
9.42518e-03,2.73873e+05
9.61809e-03,2.61068e+05
9.81495e-03,2.48824e+05
1.00158e-02,2.37118e+05
1.02208e-02,2.25926e+05
1.04300e-02,2.15228e+05
1.06435e-02,2.05003e+05
1.08614e-02,1.95232e+05
1.10837e-02,1.85895e+05
1.13105e-02,1.76974e+05
1.15420e-02,1.68452e+05
1.17783e-02,1.60312e+05
1.20194e-02,1.52538e+05
1.22654e-02,1.45115e+05
1.25164e-02,1.38028e+05
1.27726e-02,1.31262e+05
1.30340e-02,1.24804e+05
1.33008e-02,1.18641e+05
1.35730e-02,1.12761e+05
1.38509e-02,1.07151e+05
1.41343e-02,1.01800e+05
1.44236e-02,9.66963e+04
1.47189e-02,9.18300e+04
1.50201e-02,8.71905e+04
1.53276e-02,8.27682e+04
1.56413e-02,7.85535e+04
1.59614e-02,7.45376e+04
1.62881e-02,7.07117e+04
1.66215e-02,6.70675e+04
1.69617e-02,6.35972e+04
1.73089e-02,6.02930e+04
1.76632e-02,5.71476e+04
1.80247e-02,5.41541e+04
1.83936e-02,5.13057e+04
1.87701e-02,4.85959e+04
1.91543e-02,4.60186e+04
1.95463e-02,4.35677e+04
1.99464e-02,4.12377e+04
2.03546e-02,3.90230e+04
2.07713e-02,3.69185e+04
2.11964e-02,3.49191e+04
2.16302e-02,3.30200e+04
2.20730e-02,3.12167e+04
2.25247e-02,2.95046e+04
2.29858e-02,2.78796e+04
2.34562e-02,2.63376e+04
2.39363e-02,2.48748e+04
2.44263e-02,2.34874e+04
2.49262e-02,2.21719e+04
2.54364e-02,2.09249e+04
2.59570e-02,1.97430e+04
2.64883e-02,1.86233e+04
2.70305e-02,1.75627e+04
2.75837e-02,1.65584e+04
2.81483e-02,1.56076e+04
2.87244e-02,1.47077e+04
2.93124e-02,1.38563e+04
2.99123e-02,1.30508e+04
3.05246e-02,1.22892e+04
3.11493e-02,1.15691e+04
3.17869e-02,1.08885e+04
3.24375e-02,1.02454e+04
3.31014e-02,9.63793e+03
3.37789e-02,9.06424e+03
3.44703e-02,8.52262e+03
3.51759e-02,8.01141e+03
3.58958e-02,7.52905e+03
3.66305e-02,7.07403e+03
3.73803e-02,6.64491e+03
3.81454e-02,6.24035e+03
3.89261e-02,5.85903e+03
3.97229e-02,5.49972e+03
4.05359e-02,5.16125e+03
4.13656e-02,4.84249e+03
4.22123e-02,4.54238e+03
4.30762e-02,4.25991e+03
4.39579e-02,3.99410e+03
4.48576e-02,3.74405e+03
4.57758e-02,3.50887e+03
4.67127e-02,3.28776e+03
4.76688e-02,3.07991e+03
4.86445e-02,2.88459e+03
4.96401e-02,2.70109e+03
5.06562e-02,2.52874e+03
5.16930e-02,2.36689e+03
5.27510e-02,2.21495e+03
5.38307e-02,2.07236e+03
5.49325e-02,1.93855e+03
5.60569e-02,1.81304e+03
5.72042e-02,1.69532e+03
5.83751e-02,1.58494e+03
5.95699e-02,1.48148e+03
6.07892e-02,1.38451e+03
6.20334e-02,1.29365e+03
6.33031e-02,1.20853e+03
6.45987e-02,1.12882e+03
6.59209e-02,1.05418e+03
6.72702e-02,9.84301e+02
6.86471e-02,9.18900e+02
7.00521e-02,8.57700e+02
7.14859e-02,8.00443e+02
7.29491e-02,7.46886e+02
7.44422e-02,6.96799e+02
7.59659e-02,6.49967e+02
7.75207e-02,6.06187e+02
7.91074e-02,5.65267e+02
8.07266e-02,5.27028e+02
8.23788e-02,4.91300e+02
8.40650e-02,4.57924e+02
8.57856e-02,4.26751e+02
8.75414e-02,3.97641e+02
8.93332e-02,3.70461e+02
9.11617e-02,3.45087e+02
9.30275e-02,3.21404e+02
9.49316e-02,2.99301e+02
9.68747e-02,2.78677e+02
9.88575e-02,2.59436e+02
1.00881e-01,2.41487e+02
1.02946e-01,2.24746e+02
1.05053e-01,2.09134e+02
1.07203e-01,1.94577e+02
1.09397e-01,1.81005e+02
1.11636e-01,1.68353e+02
1.13921e-01,1.56560e+02
1.16253e-01,1.45570e+02
1.18632e-01,1.35328e+02
1.21061e-01,1.25786e+02
1.23538e-01,1.16895e+02
1.26067e-01,1.08614e+02
1.28647e-01,1.00900e+02
1.31280e-01,9.37151e+01
1.33967e-01,8.70245e+01
1.36709e-01,8.07946e+01
1.39508e-01,7.49940e+01
1.42363e-01,6.95938e+01
1.45277e-01,6.45667e+01
1.48250e-01,5.98874e+01
1.51285e-01,5.55322e+01
1.54381e-01,5.14791e+01
1.57541e-01,4.77072e+01
1.60766e-01,4.41975e+01
1.64056e-01,4.09319e+01
1.67414e-01,3.78937e+01
1.70840e-01,3.50672e+01
1.74337e-01,3.24380e+01
1.77906e-01,2.99923e+01
1.81547e-01,2.77176e+01
1.85263e-01,2.56020e+01
1.89055e-01,2.36344e+01
1.92924e-01,2.18048e+01
1.96873e-01,2.01034e+01
2.00902e-01,1.85215e+01
2.05015e-01,1.70506e+01
2.09211e-01,1.56831e+01
2.13493e-01,1.44117e+01
2.17863e-01,1.32298e+01
2.22322e-01,1.21312e+01
2.26872e-01,1.11099e+01
2.31516e-01,1.01607e+01
2.36254e-01,9.27843e+00
2.41090e-01,8.45843e+00
2.46025e-01,7.69634e+00
2.51060e-01,6.98810e+00
2.56199e-01,6.32994e+00
2.61443e-01,5.71833e+00
2.66794e-01,5.15001e+00
2.72254e-01,4.62193e+00
2.77827e-01,4.13125e+00
2.83513e-01,3.67535e+00
2.89316e-01,3.25177e+00
2.95238e-01,2.85823e+00
3.01281e-01,2.49262e+00
3.07447e-01,2.15296e+00
3.13740e-01,1.83742e+00
3.20162e-01,1.54429e+00
3.26715e-01,1.27200e+00
3.33402e-01,1.01906e+00
3.40226e-01,7.84107e-01
3.47190e-01,5.65868e-01
3.54296e-01,3.63158e-01
3.61547e-01,1.74876e-01
3.68948e-01,0.00000e+00
