m1=50088.518, m2=22.633, gsp=2.306, rhosp=216.057
fGW[Hz],dPh[rad]
2.64165e-03,1.80580e+04
2.68857e-03,1.72760e+04
2.73633e-03,1.65258e+04
2.78493e-03,1.58062e+04
2.83440e-03,1.51161e+04
2.88474e-03,1.44542e+04
2.93599e-03,1.38195e+04
2.98814e-03,1.32109e+04
3.04121e-03,1.26274e+04
3.09523e-03,1.20680e+04
3.15021e-03,1.15319e+04
3.20617e-03,1.10180e+04
3.26312e-03,1.05256e+04
3.32108e-03,1.00537e+04
3.38007e-03,9.60159e+03
3.44011e-03,9.16848e+03
3.50121e-03,8.75362e+03
3.56340e-03,8.35628e+03
3.62670e-03,7.97578e+03
3.69112e-03,7.61144e+03
3.75668e-03,7.26263e+03
3.82341e-03,6.92873e+03
3.89132e-03,6.60914e+03
3.96044e-03,6.30329e+03
4.03079e-03,6.01063e+03
4.10239e-03,5.73063e+03
4.17526e-03,5.46279e+03
4.24942e-03,5.20661e+03
4.32490e-03,4.96162e+03
4.40172e-03,4.72736e+03
4.47991e-03,4.50341e+03
4.55948e-03,4.28933e+03
4.64047e-03,4.08473e+03
4.72289e-03,3.88922e+03
4.80679e-03,3.70243e+03
4.89217e-03,3.52399e+03
4.97906e-03,3.35355e+03
5.06750e-03,3.19080e+03
5.15752e-03,3.03540e+03
5.24913e-03,2.88705e+03
5.34236e-03,2.74546e+03
5.43726e-03,2.61034e+03
5.53384e-03,2.48141e+03
5.63213e-03,2.35843e+03
5.73217e-03,2.24112e+03
5.83399e-03,2.12926e+03
5.93762e-03,2.02261e+03
6.04308e-03,1.92094e+03
6.15043e-03,1.82404e+03
6.25967e-03,1.73171e+03
6.37086e-03,1.64374e+03
6.48402e-03,1.55995e+03
6.59920e-03,1.48015e+03
6.71641e-03,1.40417e+03
6.83571e-03,1.33184e+03
6.95713e-03,1.26300e+03
7.08071e-03,1.19748e+03
7.20648e-03,1.13516e+03
7.33449e-03,1.07587e+03
7.46477e-03,1.01949e+03
7.59736e-03,9.65878e+02
7.73231e-03,9.14915e+02
7.86965e-03,8.66478e+02
8.00944e-03,8.20452e+02
8.15171e-03,7.76725e+02
8.29650e-03,7.35191e+02
8.44387e-03,6.95748e+02
8.59385e-03,6.58300e+02
8.74650e-03,6.22752e+02
8.90186e-03,5.89015e+02
9.05998e-03,5.57003e+02
9.22091e-03,5.26636e+02
9.38470e-03,4.97833e+02
9.55139e-03,4.70520e+02
9.72105e-03,4.44626e+02
9.89372e-03,4.20082e+02
1.00695e-02,3.96822e+02
1.02483e-02,3.74784e+02
1.04304e-02,3.53908e+02
1.06156e-02,3.34137e+02
1.08042e-02,3.15415e+02
1.09961e-02,2.97692e+02
1.11914e-02,2.80916e+02
1.13902e-02,2.65041e+02
1.15925e-02,2.50022e+02
1.17984e-02,2.35814e+02
1.20080e-02,2.22377e+02
1.22213e-02,2.09672e+02
1.24384e-02,1.97661e+02
1.26593e-02,1.86308e+02
1.28842e-02,1.75579e+02
1.31130e-02,1.65443e+02
1.33459e-02,1.55867e+02
1.35830e-02,1.46823e+02
1.38243e-02,1.38283e+02
1.40698e-02,1.30220e+02
1.43197e-02,1.22609e+02
1.45741e-02,1.15426e+02
1.48330e-02,1.08648e+02
1.50964e-02,1.02253e+02
1.53646e-02,9.62215e+01
1.56375e-02,9.05327e+01
1.59153e-02,8.51684e+01
1.61980e-02,8.01110e+01
1.64857e-02,7.53437e+01
1.67785e-02,7.08506e+01
1.70765e-02,6.66166e+01
1.73799e-02,6.26275e+01
1.76886e-02,5.88695e+01
1.80028e-02,5.53300e+01
1.83225e-02,5.19967e+01
1.86480e-02,4.88580e+01
1.89792e-02,4.59031e+01
1.93163e-02,4.31216e+01
1.96595e-02,4.05037e+01
2.00087e-02,3.80400e+01
2.03641e-02,3.57220e+01
2.07258e-02,3.35411e+01
2.10939e-02,3.14897e+01
2.14686e-02,2.95602e+01
2.18499e-02,2.77457e+01
2.22380e-02,2.60395e+01
2.26331e-02,2.44353e+01
2.30351e-02,2.29273e+01
2.34442e-02,2.15099e+01
2.38607e-02,2.01777e+01
2.42845e-02,1.89257e+01
2.47158e-02,1.77494e+01
2.51549e-02,1.66442e+01
2.56017e-02,1.56059e+01
2.60564e-02,1.46307e+01
2.65193e-02,1.37147e+01
2.69903e-02,1.28545e+01
2.74697e-02,1.20467e+01
2.79576e-02,1.12882e+01
2.84542e-02,1.05761e+01
2.89597e-02,9.90765e+00
2.94741e-02,9.28017e+00
2.99976e-02,8.69121e+00
3.05304e-02,8.13847e+00
3.10727e-02,7.61976e+00
3.16247e-02,7.13303e+00
3.21864e-02,6.67635e+00
3.27581e-02,6.24789e+00
3.33400e-02,5.84594e+00
3.39322e-02,5.46890e+00
3.45349e-02,5.11523e+00
3.51483e-02,4.78353e+00
3.57726e-02,4.47244e+00
3.64081e-02,4.18071e+00
3.70548e-02,3.90715e+00
3.77129e-02,3.65064e+00
3.83828e-02,3.41014e+00
3.90646e-02,3.18467e+00
3.97585e-02,2.97330e+00
4.04647e-02,2.77515e+00
4.11835e-02,2.58941e+00
4.19150e-02,2.41532e+00
4.26595e-02,2.25216e+00
4.34172e-02,2.09924e+00
4.41884e-02,1.95592e+00
4.49733e-02,1.82163e+00
4.57722e-02,1.69578e+00
4.65852e-02,1.57787e+00
4.74127e-02,1.46738e+00
4.82548e-02,1.36387e+00
4.91120e-02,1.26689e+00
4.99843e-02,1.17603e+00
5.08722e-02,1.09092e+00
5.17758e-02,1.01119e+00
5.26955e-02,9.36502e-01
5.36315e-02,8.66546e-01
5.45841e-02,8.01023e-01
5.55536e-02,7.39653e-01
5.65404e-02,6.82175e-01
5.75447e-02,6.28345e-01
5.85669e-02,5.77933e-01
5.96072e-02,5.30724e-01
6.06659e-02,4.86515e-01
6.17435e-02,4.45117e-01
6.28402e-02,4.06352e-01
6.39564e-02,3.70055e-01
6.50925e-02,3.36069e-01
6.62487e-02,3.04248e-01
6.74254e-02,2.74455e-01
6.86231e-02,2.46562e-01
6.98420e-02,2.20447e-01
7.10825e-02,1.95998e-01
7.23452e-02,1.73110e-01
7.36302e-02,1.51684e-01
7.49380e-02,1.31626e-01
7.62691e-02,1.12849e-01
7.76239e-02,9.52728e-02
7.90027e-02,7.88202e-02
8.04060e-02,6.34199e-02
8.18342e-02,4.90048e-02
8.32878e-02,3.55122e-02
8.47672e-02,2.28834e-02
8.62728e-02,1.10631e-02
8.78053e-02,0.00000e+00
