m1=12850.035, m2=20.206, gsp=2.126, rhosp=48.398
fGW[Hz],dPh[rad]
3.87358e-03,2.52506e+02
3.96181e-03,2.39707e+02
4.05205e-03,2.27548e+02
4.14435e-03,2.15997e+02
4.23875e-03,2.05024e+02
4.33530e-03,1.94600e+02
4.43404e-03,1.84697e+02
4.53504e-03,1.75291e+02
4.63834e-03,1.66356e+02
4.74399e-03,1.57868e+02
4.85205e-03,1.49807e+02
4.96257e-03,1.42149e+02
5.07561e-03,1.34876e+02
5.19122e-03,1.27969e+02
5.30946e-03,1.21408e+02
5.43040e-03,1.15178e+02
5.55410e-03,1.09260e+02
5.68061e-03,1.03641e+02
5.81000e-03,9.83048e+01
5.94234e-03,9.32374e+01
6.07769e-03,8.84256e+01
6.21613e-03,8.38566e+01
6.35772e-03,7.95183e+01
6.50254e-03,7.53992e+01
6.65065e-03,7.14885e+01
6.80214e-03,6.77757e+01
6.95708e-03,6.42509e+01
7.11554e-03,6.09048e+01
7.27762e-03,5.77284e+01
7.44339e-03,5.47133e+01
7.61293e-03,5.18514e+01
7.78634e-03,4.91350e+01
7.96370e-03,4.65570e+01
8.14509e-03,4.41103e+01
8.33062e-03,4.17884e+01
8.52038e-03,3.95850e+01
8.71445e-03,3.74943e+01
8.91295e-03,3.55105e+01
9.11597e-03,3.36283e+01
9.32361e-03,3.18427e+01
9.53598e-03,3.01487e+01
9.75319e-03,2.85417e+01
9.97535e-03,2.70175e+01
1.02026e-02,2.55718e+01
1.04350e-02,2.42007e+01
1.06726e-02,2.29004e+01
1.09157e-02,2.16674e+01
1.11644e-02,2.04982e+01
1.14187e-02,1.93897e+01
1.16788e-02,1.83388e+01
1.19448e-02,1.73426e+01
1.22169e-02,1.63983e+01
1.24951e-02,1.55033e+01
1.27798e-02,1.46551e+01
1.30709e-02,1.38513e+01
1.33686e-02,1.30897e+01
1.36731e-02,1.23681e+01
1.39845e-02,1.16845e+01
1.43031e-02,1.10370e+01
1.46289e-02,1.04237e+01
1.49621e-02,9.84293e+00
1.53029e-02,9.29295e+00
1.56515e-02,8.77223e+00
1.60080e-02,8.27926e+00
1.63726e-02,7.81262e+00
1.67455e-02,7.37096e+00
1.71270e-02,6.95301e+00
1.75171e-02,6.55754e+00
1.79161e-02,6.18339e+00
1.83242e-02,5.82946e+00
1.87415e-02,5.49472e+00
1.91684e-02,5.17816e+00
1.96051e-02,4.87885e+00
2.00516e-02,4.59589e+00
2.05084e-02,4.32843e+00
2.09755e-02,4.07566e+00
2.14533e-02,3.83682e+00
2.19419e-02,3.61117e+00
2.24417e-02,3.39803e+00
2.29529e-02,3.19674e+00
2.34757e-02,3.00668e+00
2.40104e-02,2.82726e+00
2.45573e-02,2.65790e+00
2.51167e-02,2.49809e+00
2.56888e-02,2.34730e+00
2.62740e-02,2.20507e+00
2.68724e-02,2.07093e+00
2.74845e-02,1.94446e+00
2.81106e-02,1.82523e+00
2.87509e-02,1.71287e+00
2.94057e-02,1.60700e+00
3.00755e-02,1.50726e+00
3.07606e-02,1.41333e+00
3.14613e-02,1.32489e+00
3.21779e-02,1.24164e+00
3.29108e-02,1.16329e+00
3.36605e-02,1.08958e+00
3.44272e-02,1.02025e+00
3.52114e-02,9.55054e-01
3.60134e-02,8.93763e-01
3.68337e-02,8.36161e-01
3.76727e-02,7.82040e-01
3.85308e-02,7.31204e-01
3.94085e-02,6.83467e-01
4.03061e-02,6.38655e-01
4.12242e-02,5.96600e-01
4.21632e-02,5.57144e-01
4.31236e-02,5.20138e-01
4.41058e-02,4.85440e-01
4.51105e-02,4.52917e-01
4.61380e-02,4.22442e-01
4.71889e-02,3.93895e-01
4.82638e-02,3.67162e-01
4.93631e-02,3.42137e-01
5.04875e-02,3.18717e-01
5.16375e-02,2.96808e-01
5.28137e-02,2.76317e-01
5.40167e-02,2.57161e-01
5.52471e-02,2.39257e-01
5.65055e-02,2.22530e-01
5.77926e-02,2.06908e-01
5.91090e-02,1.92322e-01
6.04554e-02,1.78708e-01
6.18324e-02,1.66006e-01
6.32408e-02,1.54159e-01
6.46813e-02,1.43113e-01
6.61546e-02,1.32817e-01
6.76615e-02,1.23223e-01
6.92027e-02,1.14288e-01
7.07790e-02,1.05967e-01
7.23911e-02,9.82227e-02
7.40401e-02,9.10163e-02
7.57265e-02,8.43129e-02
7.74514e-02,7.80795e-02
7.92156e-02,7.22852e-02
8.10200e-02,6.69006e-02
8.28654e-02,6.18986e-02
8.47529e-02,5.72533e-02
8.66834e-02,5.29408e-02
8.86579e-02,4.89385e-02
9.06773e-02,4.52252e-02
9.27428e-02,4.17812e-02
9.48553e-02,3.85879e-02
9.70159e-02,3.56280e-02
9.92257e-02,3.28852e-02
1.01486e-01,3.03444e-02
1.03797e-01,2.79914e-02
1.06162e-01,2.58129e-02
1.08580e-01,2.37966e-02
1.11053e-01,2.19309e-02
1.13583e-01,2.02051e-02
1.16170e-01,1.86091e-02
1.18816e-01,1.71335e-02
1.21522e-01,1.57696e-02
1.24290e-01,1.45093e-02
1.27121e-01,1.33451e-02
1.30017e-01,1.22697e-02
1.32979e-01,1.12768e-02
1.36007e-01,1.03602e-02
1.39105e-01,9.51431e-03
1.42274e-01,8.73375e-03
1.45515e-01,8.01368e-03
1.48829e-01,7.34957e-03
1.52219e-01,6.73719e-03
1.55686e-01,6.17264e-03
1.59233e-01,5.65228e-03
1.62860e-01,5.17275e-03
1.66569e-01,4.73095e-03
1.70363e-01,4.32396e-03
1.74244e-01,3.94914e-03
1.78213e-01,3.60398e-03
1.82272e-01,3.28621e-03
1.86424e-01,2.99370e-03
1.90670e-01,2.72449e-03
1.95013e-01,2.47676e-03
1.99455e-01,2.24884e-03
2.03998e-01,2.03917e-03
2.08645e-01,1.84632e-03
2.13398e-01,1.66897e-03
2.18258e-01,1.50590e-03
2.23230e-01,1.35598e-03
2.28314e-01,1.21816e-03
2.33515e-01,1.09149e-03
2.38834e-01,9.75071e-04
2.44274e-01,8.68099e-04
2.49838e-01,7.69814e-04
2.55529e-01,6.79521e-04
2.61349e-01,5.96580e-04
2.67302e-01,5.20401e-04
2.73391e-01,4.50440e-04
2.79618e-01,3.86195e-04
2.85987e-01,3.27207e-04
2.92502e-01,2.73049e-04
2.99164e-01,2.23331e-04
3.05978e-01,1.77693e-04
3.12948e-01,1.35805e-04
3.20076e-01,9.73601e-05
3.27367e-01,6.20796e-05
3.34824e-01,2.97053e-05
3.42450e-01,0.00000e+00
