m1=841027.812, m2=30.029, gsp=2.400, rhosp=517.273
fGW[Hz],dPh[rad]
1.17363e-03,1.61200e+04
1.18247e-03,1.56779e+04
1.19138e-03,1.52478e+04
1.20036e-03,1.48294e+04
1.20941e-03,1.44224e+04
1.21852e-03,1.40264e+04
1.22770e-03,1.36412e+04
1.23695e-03,1.32665e+04
1.24627e-03,1.29020e+04
1.25567e-03,1.25474e+04
1.26513e-03,1.22025e+04
1.27466e-03,1.18670e+04
1.28427e-03,1.15406e+04
1.29395e-03,1.12231e+04
1.30370e-03,1.09142e+04
1.31352e-03,1.06138e+04
1.32342e-03,1.03215e+04
1.33339e-03,1.00372e+04
1.34344e-03,9.76071e+03
1.35356e-03,9.49171e+03
1.36376e-03,9.23006e+03
1.37404e-03,8.97554e+03
1.38439e-03,8.72796e+03
1.39483e-03,8.48714e+03
1.40534e-03,8.25289e+03
1.41593e-03,8.02504e+03
1.42660e-03,7.80340e+03
1.43735e-03,7.58782e+03
1.44818e-03,7.37812e+03
1.45909e-03,7.17415e+03
1.47009e-03,6.97576e+03
1.48117e-03,6.78278e+03
1.49233e-03,6.59507e+03
1.50357e-03,6.41250e+03
1.51490e-03,6.23491e+03
1.52632e-03,6.06218e+03
1.53782e-03,5.89417e+03
1.54941e-03,5.73075e+03
1.56109e-03,5.57180e+03
1.57285e-03,5.41720e+03
1.58470e-03,5.26683e+03
1.59664e-03,5.12057e+03
1.60868e-03,4.97831e+03
1.62080e-03,4.83995e+03
1.63301e-03,4.70537e+03
1.64532e-03,4.57447e+03
1.65772e-03,4.44716e+03
1.67021e-03,4.32333e+03
1.68280e-03,4.20289e+03
1.69548e-03,4.08575e+03
1.70825e-03,3.97182e+03
1.72113e-03,3.86101e+03
1.73410e-03,3.75324e+03
1.74716e-03,3.64841e+03
1.76033e-03,3.54646e+03
1.77360e-03,3.44730e+03
1.78696e-03,3.35086e+03
1.80043e-03,3.25706e+03
1.81399e-03,3.16583e+03
1.82766e-03,3.07711e+03
1.84144e-03,2.99081e+03
1.85531e-03,2.90689e+03
1.86929e-03,2.82526e+03
1.88338e-03,2.74587e+03
1.89757e-03,2.66866e+03
1.91187e-03,2.59356e+03
1.92628e-03,2.52053e+03
1.94080e-03,2.44950e+03
1.95542e-03,2.38042e+03
1.97016e-03,2.31323e+03
1.98500e-03,2.24789e+03
1.99996e-03,2.18434e+03
2.01503e-03,2.12253e+03
2.03022e-03,2.06243e+03
2.04552e-03,2.00397e+03
2.06093e-03,1.94711e+03
2.07646e-03,1.89182e+03
2.09211e-03,1.83804e+03
2.10787e-03,1.78574e+03
2.12376e-03,1.73488e+03
2.13976e-03,1.68542e+03
2.15589e-03,1.63731e+03
2.17213e-03,1.59052e+03
2.18850e-03,1.54502e+03
2.20499e-03,1.50077e+03
2.22161e-03,1.45774e+03
2.23835e-03,1.41589e+03
2.25522e-03,1.37518e+03
2.27221e-03,1.33560e+03
2.28934e-03,1.29710e+03
2.30659e-03,1.25966e+03
2.32397e-03,1.22326e+03
2.34148e-03,1.18785e+03
2.35913e-03,1.15341e+03
2.37690e-03,1.11992e+03
2.39482e-03,1.08736e+03
2.41286e-03,1.05568e+03
2.43105e-03,1.02488e+03
2.44936e-03,9.94927e+02
2.46782e-03,9.65797e+02
2.48642e-03,9.37467e+02
2.50516e-03,9.09917e+02
2.52403e-03,8.83124e+02
2.54305e-03,8.57068e+02
2.56222e-03,8.31729e+02
2.58153e-03,8.07088e+02
2.60098e-03,7.83124e+02
2.62058e-03,7.59819e+02
2.64033e-03,7.37156e+02
2.66022e-03,7.15116e+02
2.68027e-03,6.93682e+02
2.70047e-03,6.72839e+02
2.72082e-03,6.52569e+02
2.74132e-03,6.32857e+02
2.76198e-03,6.13687e+02
2.78279e-03,5.95045e+02
2.80376e-03,5.76917e+02
2.82489e-03,5.59287e+02
2.84618e-03,5.42143e+02
2.86763e-03,5.25470e+02
2.88924e-03,5.09257e+02
2.91101e-03,4.93490e+02
2.93295e-03,4.78157e+02
2.95505e-03,4.63246e+02
2.97732e-03,4.48746e+02
2.99975e-03,4.34645e+02
3.02236e-03,4.20933e+02
3.04513e-03,4.07598e+02
3.06808e-03,3.94631e+02
3.09120e-03,3.82020e+02
3.11449e-03,3.69757e+02
3.13796e-03,3.57832e+02
3.16161e-03,3.46235e+02
3.18544e-03,3.34958e+02
3.20944e-03,3.23991e+02
3.23363e-03,3.13327e+02
3.25799e-03,3.02956e+02
3.28254e-03,2.92871e+02
3.30728e-03,2.83064e+02
3.33220e-03,2.73527e+02
3.35731e-03,2.64253e+02
3.38261e-03,2.55235e+02
3.40810e-03,2.46465e+02
3.43379e-03,2.37936e+02
3.45966e-03,2.29643e+02
3.48573e-03,2.21578e+02
3.51200e-03,2.13736e+02
3.53847e-03,2.06109e+02
3.56513e-03,1.98693e+02
3.59200e-03,1.91482e+02
3.61907e-03,1.84469e+02
3.64634e-03,1.77649e+02
3.67381e-03,1.71018e+02
3.70150e-03,1.64569e+02
3.72939e-03,1.58298e+02
3.75750e-03,1.52200e+02
3.78581e-03,1.46270e+02
3.81434e-03,1.40503e+02
3.84308e-03,1.34896e+02
3.87204e-03,1.29443e+02
3.90122e-03,1.24140e+02
3.93062e-03,1.18984e+02
3.96024e-03,1.13970e+02
3.99008e-03,1.09094e+02
4.02015e-03,1.04353e+02
4.05045e-03,9.97420e+01
4.08097e-03,9.52585e+01
4.11172e-03,9.08987e+01
4.14271e-03,8.66591e+01
4.17393e-03,8.25364e+01
4.20538e-03,7.85274e+01
4.23707e-03,7.46290e+01
4.26900e-03,7.08382e+01
4.30117e-03,6.71519e+01
4.33358e-03,6.35673e+01
4.36624e-03,6.00815e+01
4.39914e-03,5.66919e+01
4.43229e-03,5.33958e+01
4.46569e-03,5.01907e+01
4.49934e-03,4.70739e+01
4.53325e-03,4.40432e+01
4.56741e-03,4.10961e+01
4.60183e-03,3.82302e+01
4.63651e-03,3.54435e+01
4.67145e-03,3.27336e+01
4.70665e-03,3.00985e+01
4.74212e-03,2.75361e+01
4.77785e-03,2.50444e+01
4.81386e-03,2.26214e+01
4.85013e-03,2.02653e+01
4.88668e-03,1.79742e+01
4.92351e-03,1.57464e+01
4.96061e-03,1.35800e+01
4.99799e-03,1.14734e+01
5.03565e-03,9.42493e+00
5.07360e-03,7.43299e+00
5.11183e-03,5.49603e+00
5.15035e-03,3.61251e+00
5.18917e-03,1.78098e+00
5.22827e-03,0.00000e+00
