m1=52295.839, m2=4.092, gsp=2.395, rhosp=397.253
fGW[Hz],dPh[rad]
4.96286e-03,2.05972e+05
5.03394e-03,1.96624e+05
5.10603e-03,1.87681e+05
5.17916e-03,1.79127e+05
5.25334e-03,1.70944e+05
5.32857e-03,1.63119e+05
5.40489e-03,1.55636e+05
5.48230e-03,1.48481e+05
5.56081e-03,1.41641e+05
5.64045e-03,1.35103e+05
5.72124e-03,1.28854e+05
5.80317e-03,1.22882e+05
5.88629e-03,1.17175e+05
5.97059e-03,1.11724e+05
6.05610e-03,1.06515e+05
6.14283e-03,1.01540e+05
6.23081e-03,9.67890e+04
6.32005e-03,9.22516e+04
6.41056e-03,8.79190e+04
6.50237e-03,8.37824e+04
6.59550e-03,7.98335e+04
6.68996e-03,7.60641e+04
6.78577e-03,7.24665e+04
6.88295e-03,6.90333e+04
6.98153e-03,6.57572e+04
7.08152e-03,6.26314e+04
7.18294e-03,5.96494e+04
7.28581e-03,5.68048e+04
7.39016e-03,5.40915e+04
7.49600e-03,5.15039e+04
7.60336e-03,4.90362e+04
7.71225e-03,4.66833e+04
7.82270e-03,4.44399e+04
7.93474e-03,4.23012e+04
8.04838e-03,4.02625e+04
8.16365e-03,3.83193e+04
8.28056e-03,3.64673e+04
8.39916e-03,3.47024e+04
8.51945e-03,3.30206e+04
8.64146e-03,3.14182e+04
8.76522e-03,2.98916e+04
8.89076e-03,2.84373e+04
9.01809e-03,2.70520e+04
9.14724e-03,2.57325e+04
9.27825e-03,2.44758e+04
9.41113e-03,2.32791e+04
9.54592e-03,2.21396e+04
9.68263e-03,2.10545e+04
9.82130e-03,2.00215e+04
9.96196e-03,1.90381e+04
1.01046e-02,1.81019e+04
1.02494e-02,1.72108e+04
1.03961e-02,1.63626e+04
1.05450e-02,1.55554e+04
1.06961e-02,1.47872e+04
1.08492e-02,1.40562e+04
1.10046e-02,1.33607e+04
1.11622e-02,1.26989e+04
1.13221e-02,1.20693e+04
1.14842e-02,1.14704e+04
1.16487e-02,1.09006e+04
1.18156e-02,1.03586e+04
1.19848e-02,9.84316e+03
1.21564e-02,9.35289e+03
1.23305e-02,8.88664e+03
1.25071e-02,8.44325e+03
1.26862e-02,8.02163e+03
1.28679e-02,7.62072e+03
1.30522e-02,7.23954e+03
1.32392e-02,6.87714e+03
1.34288e-02,6.53260e+03
1.36211e-02,6.20506e+03
1.38162e-02,5.89371e+03
1.40140e-02,5.59776e+03
1.42147e-02,5.31645e+03
1.44183e-02,5.04909e+03
1.46248e-02,4.79498e+03
1.48343e-02,4.55349e+03
1.50467e-02,4.32400e+03
1.52622e-02,4.10592e+03
1.54808e-02,3.89870e+03
1.57025e-02,3.70180e+03
1.59274e-02,3.51471e+03
1.61555e-02,3.33696e+03
1.63869e-02,3.16809e+03
1.66216e-02,3.00766e+03
1.68596e-02,2.85525e+03
1.71011e-02,2.71047e+03
1.73460e-02,2.57294e+03
1.75945e-02,2.44231e+03
1.78464e-02,2.31823e+03
1.81020e-02,2.20037e+03
1.83613e-02,2.08844e+03
1.86243e-02,1.98213e+03
1.88910e-02,1.88117e+03
1.91615e-02,1.78529e+03
1.94360e-02,1.69424e+03
1.97143e-02,1.60778e+03
1.99967e-02,1.52567e+03
2.02831e-02,1.44771e+03
2.05735e-02,1.37369e+03
2.08682e-02,1.30340e+03
2.11671e-02,1.23666e+03
2.14702e-02,1.17330e+03
2.17777e-02,1.11314e+03
2.20896e-02,1.05603e+03
2.24060e-02,1.00181e+03
2.27269e-02,9.50341e+02
2.30524e-02,9.01477e+02
2.33825e-02,8.55091e+02
2.37174e-02,8.11059e+02
2.40571e-02,7.69261e+02
2.44016e-02,7.29586e+02
2.47511e-02,6.91927e+02
2.51056e-02,6.56181e+02
2.54651e-02,6.22253e+02
2.58298e-02,5.90050e+02
2.61998e-02,5.59486e+02
2.65750e-02,5.30478e+02
2.69556e-02,5.02947e+02
2.73416e-02,4.76819e+02
2.77332e-02,4.52022e+02
2.81304e-02,4.28489e+02
2.85333e-02,4.06156e+02
2.89419e-02,3.84962e+02
2.93564e-02,3.64850e+02
2.97769e-02,3.45765e+02
3.02033e-02,3.27654e+02
3.06359e-02,3.10468e+02
3.10747e-02,2.94160e+02
3.15197e-02,2.78686e+02
3.19711e-02,2.64002e+02
3.24290e-02,2.50070e+02
3.28935e-02,2.36850e+02
3.33646e-02,2.24306e+02
3.38424e-02,2.12405e+02
3.43271e-02,2.01113e+02
3.48187e-02,1.90399e+02
3.53174e-02,1.80233e+02
3.58232e-02,1.70589e+02
3.63362e-02,1.61438e+02
3.68566e-02,1.52757e+02
3.73845e-02,1.44521e+02
3.79199e-02,1.36707e+02
3.84630e-02,1.29293e+02
3.90139e-02,1.22260e+02
3.95726e-02,1.15588e+02
4.01394e-02,1.09258e+02
4.07142e-02,1.03253e+02
4.12973e-02,9.75567e+01
4.18888e-02,9.21526e+01
4.24887e-02,8.70260e+01
4.30972e-02,8.21627e+01
4.37144e-02,7.75493e+01
4.43405e-02,7.31730e+01
4.49756e-02,6.90215e+01
4.56197e-02,6.50834e+01
4.62730e-02,6.13478e+01
4.69358e-02,5.78042e+01
4.76080e-02,5.44428e+01
4.82898e-02,5.12544e+01
4.89814e-02,4.82299e+01
4.96829e-02,4.53611e+01
5.03945e-02,4.26398e+01
5.11162e-02,4.00586e+01
5.18483e-02,3.76102e+01
5.25908e-02,3.52879e+01
5.33440e-02,3.30851e+01
5.41080e-02,3.09957e+01
5.48829e-02,2.90139e+01
5.56690e-02,2.71341e+01
5.64662e-02,2.53512e+01
5.72749e-02,2.36601e+01
5.80952e-02,2.20562e+01
5.89273e-02,2.05348e+01
5.97712e-02,1.90919e+01
6.06272e-02,1.77233e+01
6.14955e-02,1.64252e+01
6.23763e-02,1.51941e+01
6.32696e-02,1.40264e+01
6.41757e-02,1.29189e+01
6.50948e-02,1.18685e+01
6.60271e-02,1.08723e+01
6.69727e-02,9.92741e+00
6.79319e-02,9.03127e+00
6.89048e-02,8.18134e+00
6.98917e-02,7.37526e+00
7.08926e-02,6.61075e+00
7.19080e-02,5.88568e+00
7.29378e-02,5.19802e+00
7.39824e-02,4.54583e+00
7.50420e-02,3.92730e+00
7.61167e-02,3.34068e+00
7.72068e-02,2.78434e+00
7.83126e-02,2.25670e+00
7.94342e-02,1.75630e+00
8.05718e-02,1.28173e+00
8.17257e-02,8.31653e-01
8.28962e-02,4.04809e-01
8.40834e-02,0.00000e+00
