m1=75832.329, m2=6.510, gsp=2.206, rhosp=5024.032
fGW[Hz],dPh[rad]
3.79971e-03,1.12298e+04
3.85210e-03,1.07197e+04
3.90522e-03,1.02318e+04
3.95907e-03,9.76509e+03
4.01366e-03,9.31881e+03
4.06900e-03,8.89207e+03
4.12511e-03,8.48408e+03
4.18199e-03,8.09406e+03
4.23966e-03,7.72125e+03
4.29812e-03,7.36494e+03
4.35739e-03,7.02444e+03
4.41747e-03,6.69907e+03
4.47838e-03,6.38821e+03
4.54014e-03,6.09124e+03
4.60274e-03,5.80757e+03
4.66621e-03,5.53663e+03
4.73055e-03,5.27788e+03
4.79578e-03,5.03080e+03
4.86191e-03,4.79489e+03
4.92895e-03,4.56966e+03
4.99692e-03,4.35466e+03
5.06582e-03,4.14944e+03
5.13567e-03,3.95357e+03
5.20649e-03,3.76666e+03
5.27828e-03,3.58830e+03
5.35106e-03,3.41812e+03
5.42485e-03,3.25577e+03
5.49965e-03,3.10090e+03
5.57549e-03,2.95317e+03
5.65237e-03,2.81228e+03
5.73031e-03,2.67792e+03
5.80933e-03,2.54979e+03
5.88943e-03,2.42763e+03
5.97064e-03,2.31115e+03
6.05297e-03,2.20012e+03
6.13644e-03,2.09428e+03
6.22105e-03,1.99339e+03
6.30684e-03,1.89725e+03
6.39380e-03,1.80562e+03
6.48197e-03,1.71831e+03
6.57135e-03,1.63511e+03
6.66196e-03,1.55585e+03
6.75382e-03,1.48034e+03
6.84695e-03,1.40841e+03
6.94136e-03,1.33990e+03
7.03708e-03,1.27464e+03
7.13411e-03,1.21249e+03
7.23249e-03,1.15331e+03
7.33222e-03,1.09696e+03
7.43332e-03,1.04330e+03
7.53582e-03,9.92207e+02
7.63973e-03,9.43569e+02
7.74508e-03,8.97268e+02
7.85188e-03,8.53195e+02
7.96015e-03,8.11245e+02
8.06991e-03,7.71319e+02
8.18119e-03,7.33321e+02
8.29400e-03,6.97162e+02
8.40836e-03,6.62753e+02
8.52431e-03,6.30012e+02
8.64185e-03,5.98861e+02
8.76101e-03,5.69224e+02
8.88182e-03,5.41029e+02
9.00429e-03,5.14207e+02
9.12845e-03,4.88694e+02
9.25432e-03,4.64426e+02
9.38193e-03,4.41344e+02
9.51130e-03,4.19392e+02
9.64245e-03,3.98515e+02
9.77541e-03,3.78662e+02
9.91021e-03,3.59783e+02
1.00469e-02,3.41831e+02
1.01854e-02,3.24763e+02
1.03258e-02,3.08534e+02
1.04682e-02,2.93106e+02
1.06126e-02,2.78438e+02
1.07589e-02,2.64494e+02
1.09073e-02,2.51239e+02
1.10577e-02,2.38639e+02
1.12101e-02,2.26663e+02
1.13647e-02,2.15281e+02
1.15214e-02,2.04462e+02
1.16803e-02,1.94180e+02
1.18414e-02,1.84409e+02
1.20046e-02,1.75124e+02
1.21702e-02,1.66300e+02
1.23380e-02,1.57915e+02
1.25081e-02,1.49948e+02
1.26806e-02,1.42377e+02
1.28555e-02,1.35185e+02
1.30327e-02,1.28351e+02
1.32124e-02,1.21859e+02
1.33946e-02,1.15691e+02
1.35793e-02,1.09832e+02
1.37666e-02,1.04265e+02
1.39564e-02,9.89778e+01
1.41488e-02,9.39551e+01
1.43439e-02,8.91843e+01
1.45417e-02,8.46527e+01
1.47422e-02,8.03486e+01
1.49455e-02,7.62606e+01
1.51516e-02,7.23780e+01
1.53605e-02,6.86906e+01
1.55723e-02,6.51887e+01
1.57871e-02,6.18630e+01
1.60048e-02,5.87047e+01
1.62255e-02,5.57056e+01
1.64492e-02,5.28576e+01
1.66760e-02,5.01532e+01
1.69060e-02,4.75852e+01
1.71391e-02,4.51469e+01
1.73754e-02,4.28316e+01
1.76150e-02,4.06334e+01
1.78579e-02,3.85462e+01
1.81041e-02,3.65645e+01
1.83538e-02,3.46831e+01
1.86069e-02,3.28968e+01
1.88634e-02,3.12010e+01
1.91235e-02,2.95911e+01
1.93872e-02,2.80627e+01
1.96546e-02,2.66117e+01
1.99256e-02,2.52344e+01
2.02003e-02,2.39268e+01
2.04789e-02,2.26856e+01
2.07613e-02,2.15074e+01
2.10475e-02,2.03890e+01
2.13378e-02,1.93274e+01
2.16320e-02,1.83197e+01
2.19303e-02,1.73633e+01
2.22327e-02,1.64554e+01
2.25393e-02,1.55937e+01
2.28501e-02,1.47758e+01
2.31651e-02,1.39996e+01
2.34846e-02,1.32628e+01
2.38084e-02,1.25635e+01
2.41367e-02,1.18999e+01
2.44695e-02,1.12700e+01
2.48069e-02,1.06722e+01
2.51490e-02,1.01049e+01
2.54958e-02,9.56653e+00
2.58473e-02,9.05558e+00
2.62037e-02,8.57068e+00
2.65651e-02,8.11051e+00
2.69314e-02,7.67382e+00
2.73027e-02,7.25941e+00
2.76792e-02,6.86615e+00
2.80609e-02,6.49297e+00
2.84478e-02,6.13883e+00
2.88401e-02,5.80279e+00
2.92378e-02,5.48391e+00
2.96409e-02,5.18131e+00
3.00497e-02,4.89418e+00
3.04640e-02,4.62173e+00
3.08841e-02,4.36320e+00
3.13099e-02,4.11789e+00
3.17417e-02,3.88512e+00
3.21794e-02,3.66426e+00
3.26231e-02,3.45470e+00
3.30729e-02,3.25585e+00
3.35290e-02,3.06718e+00
3.39913e-02,2.88817e+00
3.44600e-02,2.71832e+00
3.49352e-02,2.55716e+00
3.54169e-02,2.40425e+00
3.59053e-02,2.25918e+00
3.64004e-02,2.12153e+00
3.69023e-02,1.99093e+00
3.74112e-02,1.86703e+00
3.79270e-02,1.74947e+00
3.84500e-02,1.63793e+00
3.89802e-02,1.53211e+00
3.95177e-02,1.43172e+00
4.00626e-02,1.33647e+00
4.06150e-02,1.24610e+00
4.11751e-02,1.16037e+00
4.17429e-02,1.07903e+00
4.23184e-02,1.00186e+00
4.29020e-02,9.28654e-01
4.34936e-02,8.59200e-01
4.40933e-02,7.93309e-01
4.47013e-02,7.30798e-01
4.53177e-02,6.71494e-01
4.59426e-02,6.15233e-01
4.65761e-02,5.61860e-01
4.72183e-02,5.11225e-01
4.78694e-02,4.63189e-01
4.85295e-02,4.17620e-01
4.91987e-02,3.74389e-01
4.98771e-02,3.33378e-01
5.05648e-02,2.94472e-01
5.12621e-02,2.57564e-01
5.19689e-02,2.22552e-01
5.26856e-02,1.89337e-01
5.34120e-02,1.57828e-01
5.41485e-02,1.27938e-01
5.48952e-02,9.95828e-02
5.56522e-02,7.26843e-02
5.64196e-02,4.71677e-02
5.71975e-02,2.29620e-02
5.79862e-02,0.00000e+00
