m1=1413.396, m2=9.261, gsp=2.287, rhosp=33.243
fGW[Hz],dPh[rad]
9.01778e-03,2.02574e+03
9.28666e-03,1.90193e+03
9.56355e-03,1.78568e+03
9.84871e-03,1.67653e+03
1.01424e-02,1.57403e+03
1.04448e-02,1.47780e+03
1.07562e-02,1.38744e+03
1.10769e-02,1.30260e+03
1.14072e-02,1.22293e+03
1.17473e-02,1.14813e+03
1.20976e-02,1.07790e+03
1.24583e-02,1.01195e+03
1.28297e-02,9.50037e+02
1.32123e-02,8.91900e+02
1.36062e-02,8.37313e+02
1.40119e-02,7.86060e+02
1.44297e-02,7.37937e+02
1.48600e-02,6.92753e+02
1.53030e-02,6.50329e+02
1.57593e-02,6.10497e+02
1.62292e-02,5.73098e+02
1.67131e-02,5.37984e+02
1.72114e-02,5.05015e+02
1.77246e-02,4.74060e+02
1.82531e-02,4.44997e+02
1.87973e-02,4.17710e+02
1.93578e-02,3.92091e+02
1.99350e-02,3.68037e+02
2.05294e-02,3.45454e+02
2.11415e-02,3.24251e+02
2.17719e-02,3.04345e+02
2.24210e-02,2.85656e+02
2.30896e-02,2.68109e+02
2.37780e-02,2.51636e+02
2.44870e-02,2.36170e+02
2.52171e-02,2.21651e+02
2.59690e-02,2.08019e+02
2.67433e-02,1.95222e+02
2.75407e-02,1.83208e+02
2.83619e-02,1.71929e+02
2.92075e-02,1.61341e+02
3.00784e-02,1.51400e+02
3.09752e-02,1.42069e+02
3.18988e-02,1.33309e+02
3.28499e-02,1.25085e+02
3.38294e-02,1.17366e+02
3.48381e-02,1.10119e+02
3.58768e-02,1.03317e+02
3.69465e-02,9.69311e+01
3.80481e-02,9.09372e+01
3.91826e-02,8.53108e+01
4.03509e-02,8.00296e+01
4.15540e-02,7.50725e+01
4.27930e-02,7.04196e+01
4.40690e-02,6.60524e+01
4.53830e-02,6.19533e+01
4.67361e-02,5.81060e+01
4.81296e-02,5.44951e+01
4.95647e-02,5.11062e+01
5.10425e-02,4.79256e+01
5.25645e-02,4.49407e+01
5.41317e-02,4.21394e+01
5.57458e-02,3.95106e+01
5.74079e-02,3.70436e+01
5.91196e-02,3.47286e+01
6.08824e-02,3.25562e+01
6.26977e-02,3.05178e+01
6.45671e-02,2.86051e+01
6.64923e-02,2.68105e+01
6.84748e-02,2.51267e+01
7.05165e-02,2.35469e+01
7.26191e-02,2.20647e+01
7.47843e-02,2.06742e+01
7.70141e-02,1.93698e+01
7.93104e-02,1.81461e+01
8.16752e-02,1.69982e+01
8.41105e-02,1.59216e+01
8.66184e-02,1.49117e+01
8.92010e-02,1.39645e+01
9.18607e-02,1.30762e+01
9.45997e-02,1.22431e+01
9.74203e-02,1.14618e+01
1.00325e-01,1.07292e+01
1.03316e-01,1.00423e+01
1.06397e-01,9.39830e+00
1.09569e-01,8.79449e+00
1.12836e-01,8.22843e+00
1.16201e-01,7.69780e+00
1.19665e-01,7.20041e+00
1.23233e-01,6.73423e+00
1.26908e-01,6.29732e+00
1.30692e-01,5.88789e+00
1.34589e-01,5.50423e+00
1.38602e-01,5.14475e+00
1.42734e-01,4.80797e+00
1.46990e-01,4.49248e+00
1.51373e-01,4.19696e+00
1.55886e-01,3.92017e+00
1.60534e-01,3.66097e+00
1.65321e-01,3.41825e+00
1.70250e-01,3.19100e+00
1.75326e-01,2.97826e+00
1.80554e-01,2.77912e+00
1.85937e-01,2.59274e+00
1.91481e-01,2.41832e+00
1.97191e-01,2.25513e+00
2.03070e-01,2.10245e+00
2.09125e-01,1.95965e+00
2.15361e-01,1.82609e+00
2.21782e-01,1.70120e+00
2.28395e-01,1.58443e+00
2.35205e-01,1.47529e+00
2.42218e-01,1.37329e+00
2.49440e-01,1.27797e+00
2.56877e-01,1.18893e+00
2.64536e-01,1.10575e+00
2.72424e-01,1.02809e+00
2.80547e-01,9.55574e-01
2.88912e-01,8.87890e-01
2.97526e-01,8.24727e-01
3.06397e-01,7.65799e-01
3.15533e-01,7.10835e-01
3.24941e-01,6.59581e-01
3.34630e-01,6.11802e-01
3.44607e-01,5.67272e-01
3.54882e-01,5.25784e-01
3.65463e-01,4.87141e-01
3.76360e-01,4.51159e-01
3.87582e-01,4.17666e-01
3.99138e-01,3.86499e-01
4.11039e-01,3.57508e-01
4.23295e-01,3.30548e-01
4.35916e-01,3.05488e-01
4.48914e-01,2.82201e-01
4.62299e-01,2.60571e-01
4.76083e-01,2.40487e-01
4.90278e-01,2.21847e-01
5.04897e-01,2.04553e-01
5.19951e-01,1.88516e-01
5.35454e-01,1.73649e-01
5.51420e-01,1.59875e-01
5.67861e-01,1.47118e-01
5.84793e-01,1.35308e-01
6.02229e-01,1.24381e-01
6.20186e-01,1.14276e-01
6.38677e-01,1.04934e-01
6.57721e-01,9.63034e-02
6.77332e-01,8.83333e-02
6.97527e-01,8.09771e-02
7.18325e-01,7.41910e-02
7.39743e-01,6.79342e-02
7.61800e-01,6.21685e-02
7.84514e-01,5.68583e-02
8.07905e-01,5.19702e-02
8.31994e-01,4.74733e-02
8.56802e-01,4.33384e-02
8.82349e-01,3.95387e-02
9.08657e-01,3.60490e-02
9.35750e-01,3.28458e-02
9.63651e-01,2.99072e-02
9.92384e-01,2.72130e-02
1.02197e+00,2.47443e-02
1.05245e+00,2.24835e-02
1.08383e+00,2.04143e-02
1.11614e+00,1.85216e-02
1.14942e+00,1.67913e-02
1.18369e+00,1.52104e-02
1.21899e+00,1.37669e-02
1.25533e+00,1.24494e-02
1.29276e+00,1.12478e-02
1.33131e+00,1.01524e-02
1.37100e+00,9.15442e-03
1.41188e+00,8.24568e-03
1.45398e+00,7.41865e-03
1.49733e+00,6.66640e-03
1.54198e+00,5.98252e-03
1.58795e+00,5.36113e-03
1.63530e+00,4.79680e-03
1.68406e+00,4.28456e-03
1.73427e+00,3.81983e-03
1.78598e+00,3.39841e-03
1.83923e+00,3.01645e-03
1.89407e+00,2.67041e-03
1.95055e+00,2.35706e-03
2.00871e+00,2.07344e-03
2.06860e+00,1.81684e-03
2.13028e+00,1.58478e-03
2.19380e+00,1.37501e-03
2.25921e+00,1.18546e-03
2.32657e+00,1.01426e-03
2.39594e+00,8.59674e-04
2.46738e+00,7.20154e-04
2.54095e+00,5.94275e-04
2.61671e+00,4.80743e-04
2.69473e+00,3.78382e-04
2.77508e+00,2.86123e-04
2.85782e+00,2.02995e-04
2.94303e+00,1.28119e-04
3.03078e+00,6.06956e-05
3.12115e+00,0.00000e+00
