m1=317499.001, m2=17.482, gsp=2.024, rhosp=524.601
fGW[Hz],dPh[rad]
1.83402e-03,8.43192e+01
1.85274e-03,8.11018e+01
1.87166e-03,7.80052e+01
1.89077e-03,7.50251e+01
1.91008e-03,7.21572e+01
1.92959e-03,6.93972e+01
1.94929e-03,6.67413e+01
1.96919e-03,6.41856e+01
1.98930e-03,6.17263e+01
2.00962e-03,5.93600e+01
2.03014e-03,5.70831e+01
2.05087e-03,5.48923e+01
2.07181e-03,5.27845e+01
2.09296e-03,5.07566e+01
2.11434e-03,4.88055e+01
2.13593e-03,4.69285e+01
2.15774e-03,4.51227e+01
2.17977e-03,4.33855e+01
2.20203e-03,4.17144e+01
2.22451e-03,4.01069e+01
2.24723e-03,3.85605e+01
2.27018e-03,3.70730e+01
2.29336e-03,3.56423e+01
2.31677e-03,3.42661e+01
2.34043e-03,3.29424e+01
2.36433e-03,3.16693e+01
2.38847e-03,3.04448e+01
2.41286e-03,2.92671e+01
2.43750e-03,2.81344e+01
2.46239e-03,2.70451e+01
2.48753e-03,2.59976e+01
2.51294e-03,2.49901e+01
2.53860e-03,2.40213e+01
2.56452e-03,2.30896e+01
2.59070e-03,2.21937e+01
2.61716e-03,2.13322e+01
2.64388e-03,2.05038e+01
2.67088e-03,1.97072e+01
2.69815e-03,1.89413e+01
2.72571e-03,1.82048e+01
2.75354e-03,1.74967e+01
2.78166e-03,1.68158e+01
2.81006e-03,1.61612e+01
2.83875e-03,1.55318e+01
2.86774e-03,1.49267e+01
2.89702e-03,1.43449e+01
2.92661e-03,1.37856e+01
2.95649e-03,1.32479e+01
2.98668e-03,1.27309e+01
3.01718e-03,1.22340e+01
3.04799e-03,1.17562e+01
3.07911e-03,1.12969e+01
3.11055e-03,1.08554e+01
3.14231e-03,1.04310e+01
3.17440e-03,1.00230e+01
3.20682e-03,9.63086e+00
3.23956e-03,9.25389e+00
3.27264e-03,8.89153e+00
3.30606e-03,8.54322e+00
3.33982e-03,8.20842e+00
3.37392e-03,7.88662e+00
3.40837e-03,7.57732e+00
3.44318e-03,7.28002e+00
3.47834e-03,6.99428e+00
3.51385e-03,6.71964e+00
3.54974e-03,6.45568e+00
3.58598e-03,6.20198e+00
3.62260e-03,5.95816e+00
3.65959e-03,5.72382e+00
3.69696e-03,5.49860e+00
3.73471e-03,5.28216e+00
3.77285e-03,5.07414e+00
3.81137e-03,4.87423e+00
3.85029e-03,4.68211e+00
3.88961e-03,4.49748e+00
3.92932e-03,4.32005e+00
3.96945e-03,4.14954e+00
4.00998e-03,3.98568e+00
4.05093e-03,3.82822e+00
4.09229e-03,3.67690e+00
4.13408e-03,3.53149e+00
4.17629e-03,3.39177e+00
4.21894e-03,3.25750e+00
4.26202e-03,3.12847e+00
4.30554e-03,3.00450e+00
4.34951e-03,2.88536e+00
4.39392e-03,2.77089e+00
4.43879e-03,2.66089e+00
4.48411e-03,2.55520e+00
4.52990e-03,2.45364e+00
4.57616e-03,2.35606e+00
4.62288e-03,2.26230e+00
4.67009e-03,2.17221e+00
4.71778e-03,2.08565e+00
4.76595e-03,2.00248e+00
4.81462e-03,1.92257e+00
4.86378e-03,1.84579e+00
4.91345e-03,1.77202e+00
4.96362e-03,1.70114e+00
5.01430e-03,1.63304e+00
5.06551e-03,1.56761e+00
5.11723e-03,1.50475e+00
5.16948e-03,1.44436e+00
5.22227e-03,1.38633e+00
5.27560e-03,1.33059e+00
5.32947e-03,1.27703e+00
5.38389e-03,1.22557e+00
5.43886e-03,1.17614e+00
5.49440e-03,1.12864e+00
5.55051e-03,1.08302e+00
5.60718e-03,1.03918e+00
5.66444e-03,9.97067e-01
5.72228e-03,9.56609e-01
5.78071e-03,9.17742e-01
5.83974e-03,8.80402e-01
5.89937e-03,8.44531e-01
5.95961e-03,8.10070e-01
6.02047e-03,7.76965e-01
6.08194e-03,7.45162e-01
6.14405e-03,7.14610e-01
6.20679e-03,6.85260e-01
6.27016e-03,6.57065e-01
6.33419e-03,6.29980e-01
6.39887e-03,6.03961e-01
6.46421e-03,5.78966e-01
6.53022e-03,5.54955e-01
6.59690e-03,5.31890e-01
6.66426e-03,5.09733e-01
6.73231e-03,4.88449e-01
6.80106e-03,4.68003e-01
6.87051e-03,4.48363e-01
6.94066e-03,4.29497e-01
7.01153e-03,4.11374e-01
7.08313e-03,3.93965e-01
7.15546e-03,3.77242e-01
7.22852e-03,3.61179e-01
7.30234e-03,3.45749e-01
7.37690e-03,3.30927e-01
7.45223e-03,3.16689e-01
7.52833e-03,3.03013e-01
7.60520e-03,2.89877e-01
7.68286e-03,2.77258e-01
7.76131e-03,2.65137e-01
7.84056e-03,2.53495e-01
7.92062e-03,2.42311e-01
8.00150e-03,2.31569e-01
8.08321e-03,2.21251e-01
8.16575e-03,2.11340e-01
8.24913e-03,2.01820e-01
8.33336e-03,1.92676e-01
8.41846e-03,1.83893e-01
8.50442e-03,1.75457e-01
8.59126e-03,1.67353e-01
8.67899e-03,1.59570e-01
8.76761e-03,1.52094e-01
8.85714e-03,1.44913e-01
8.94758e-03,1.38016e-01
9.03895e-03,1.31391e-01
9.13125e-03,1.25028e-01
9.22449e-03,1.18916e-01
9.31868e-03,1.13045e-01
9.41384e-03,1.07407e-01
9.50997e-03,1.01991e-01
9.60707e-03,9.67895e-02
9.70517e-03,9.17933e-02
9.80428e-03,8.69945e-02
9.90439e-03,8.23854e-02
1.00055e-02,7.79585e-02
1.01077e-02,7.37065e-02
1.02109e-02,6.96226e-02
1.03152e-02,6.57001e-02
1.04205e-02,6.19326e-02
1.05269e-02,5.83142e-02
1.06344e-02,5.48387e-02
1.07430e-02,5.15007e-02
1.08527e-02,4.82947e-02
1.09635e-02,4.52154e-02
1.10755e-02,4.22579e-02
1.11886e-02,3.94174e-02
1.13028e-02,3.66892e-02
1.14182e-02,3.40689e-02
1.15348e-02,3.15523e-02
1.16526e-02,2.91351e-02
1.17716e-02,2.68136e-02
1.18918e-02,2.45840e-02
1.20132e-02,2.24425e-02
1.21359e-02,2.03858e-02
1.22598e-02,1.84104e-02
1.23850e-02,1.65132e-02
1.25115e-02,1.46911e-02
1.26392e-02,1.29410e-02
1.27683e-02,1.12602e-02
1.28987e-02,9.64593e-03
1.30304e-02,8.09553e-03
1.31634e-02,6.60649e-03
1.32978e-02,5.17638e-03
1.34336e-02,3.80287e-03
1.35708e-02,2.48372e-03
1.37094e-02,1.21678e-03
1.38494e-02,0.00000e+00
