m1=13026.506, m2=47.904, gsp=2.330, rhosp=891.641
fGW[Hz],dPh[rad]
2.79358e-03,8.17910e+03
2.86173e-03,7.76802e+03
2.93154e-03,7.37745e+03
3.00305e-03,7.00636e+03
3.07631e-03,6.65380e+03
3.15136e-03,6.31883e+03
3.22823e-03,6.00059e+03
3.30698e-03,5.69823e+03
3.38765e-03,5.41098e+03
3.47029e-03,5.13807e+03
3.55495e-03,4.87880e+03
3.64167e-03,4.63249e+03
3.73051e-03,4.39849e+03
3.82151e-03,4.17619e+03
3.91473e-03,3.96500e+03
4.01023e-03,3.76438e+03
4.10806e-03,3.57379e+03
4.20827e-03,3.39275e+03
4.31093e-03,3.22077e+03
4.41609e-03,3.05740e+03
4.52382e-03,2.90221e+03
4.63418e-03,2.75480e+03
4.74722e-03,2.61477e+03
4.86303e-03,2.48177e+03
4.98166e-03,2.35544e+03
5.10318e-03,2.23545e+03
5.22767e-03,2.12148e+03
5.35520e-03,2.01323e+03
5.48583e-03,1.91042e+03
5.61966e-03,1.81277e+03
5.75675e-03,1.72003e+03
5.89718e-03,1.63196e+03
6.04104e-03,1.54832e+03
6.18840e-03,1.46889e+03
6.33936e-03,1.39346e+03
6.49401e-03,1.32183e+03
6.65243e-03,1.25381e+03
6.81471e-03,1.18922e+03
6.98095e-03,1.12789e+03
7.15124e-03,1.06966e+03
7.32569e-03,1.01437e+03
7.50440e-03,9.61874e+02
7.68746e-03,9.12035e+02
7.87500e-03,8.64718e+02
8.06710e-03,8.19799e+02
8.26389e-03,7.77156e+02
8.46548e-03,7.36676e+02
8.67199e-03,6.98250e+02
8.88354e-03,6.61777e+02
9.10025e-03,6.27158e+02
9.32225e-03,5.94300e+02
9.54966e-03,5.63116e+02
9.78261e-03,5.33521e+02
1.00213e-02,5.05436e+02
1.02657e-02,4.78784e+02
1.05161e-02,4.53495e+02
1.07727e-02,4.29500e+02
1.10355e-02,4.06733e+02
1.13047e-02,3.85134e+02
1.15804e-02,3.64643e+02
1.18629e-02,3.45205e+02
1.21523e-02,3.26766e+02
1.24488e-02,3.09277e+02
1.27525e-02,2.92690e+02
1.30635e-02,2.76960e+02
1.33822e-02,2.62042e+02
1.37087e-02,2.47897e+02
1.40431e-02,2.34485e+02
1.43857e-02,2.21769e+02
1.47366e-02,2.09715e+02
1.50961e-02,1.98287e+02
1.54643e-02,1.87456e+02
1.58416e-02,1.77191e+02
1.62280e-02,1.67463e+02
1.66239e-02,1.58245e+02
1.70294e-02,1.49510e+02
1.74448e-02,1.41236e+02
1.78704e-02,1.33397e+02
1.83063e-02,1.25972e+02
1.87529e-02,1.18940e+02
1.92104e-02,1.12281e+02
1.96790e-02,1.05976e+02
2.01591e-02,1.00006e+02
2.06508e-02,9.43552e+01
2.11546e-02,8.90064e+01
2.16706e-02,8.39445e+01
2.21993e-02,7.91546e+01
2.27408e-02,7.46228e+01
2.32956e-02,7.03359e+01
2.38638e-02,6.62811e+01
2.44460e-02,6.24465e+01
2.50423e-02,5.88207e+01
2.56532e-02,5.53930e+01
2.62790e-02,5.21530e+01
2.69201e-02,4.90910e+01
2.75768e-02,4.61978e+01
2.82495e-02,4.34645e+01
2.89386e-02,4.08828e+01
2.96446e-02,3.84447e+01
3.03677e-02,3.61427e+01
3.11085e-02,3.39698e+01
3.18674e-02,3.19189e+01
3.26448e-02,2.99838e+01
3.34411e-02,2.81583e+01
3.42569e-02,2.64365e+01
3.50926e-02,2.48130e+01
3.59486e-02,2.32825e+01
3.68256e-02,2.18400e+01
3.77239e-02,2.04809e+01
3.86442e-02,1.92005e+01
3.95869e-02,1.79947e+01
4.05526e-02,1.68594e+01
4.15418e-02,1.57908e+01
4.25552e-02,1.47853e+01
4.35933e-02,1.38393e+01
4.46567e-02,1.29497e+01
4.57461e-02,1.21132e+01
4.68621e-02,1.13271e+01
4.80052e-02,1.05884e+01
4.91763e-02,9.89453e+00
5.03759e-02,9.24297e+00
5.16048e-02,8.63133e+00
5.28637e-02,8.05736e+00
5.41532e-02,7.51892e+00
5.54743e-02,7.01397e+00
5.68275e-02,6.54059e+00
5.82138e-02,6.09697e+00
5.96339e-02,5.68138e+00
6.10886e-02,5.29218e+00
6.25788e-02,4.92784e+00
6.41054e-02,4.58688e+00
6.56692e-02,4.26792e+00
6.72712e-02,3.96966e+00
6.89122e-02,3.69086e+00
7.05933e-02,3.43034e+00
7.23153e-02,3.18700e+00
7.40794e-02,2.95979e+00
7.58866e-02,2.74772e+00
7.77378e-02,2.54986e+00
7.96341e-02,2.36534e+00
8.15767e-02,2.19331e+00
8.35668e-02,2.03300e+00
8.56053e-02,1.88366e+00
8.76936e-02,1.74460e+00
8.98328e-02,1.61517e+00
9.20242e-02,1.49473e+00
9.42691e-02,1.38272e+00
9.65687e-02,1.27858e+00
9.89245e-02,1.18179e+00
1.01338e-01,1.09188e+00
1.03810e-01,1.00839e+00
1.06342e-01,9.30877e-01
1.08936e-01,8.58955e-01
1.11594e-01,7.92242e-01
1.14316e-01,7.30384e-01
1.17105e-01,6.73048e-01
1.19961e-01,6.19924e-01
1.22888e-01,5.70721e-01
1.25885e-01,5.25166e-01
1.28956e-01,4.83003e-01
1.32102e-01,4.43993e-01
1.35325e-01,4.07914e-01
1.38626e-01,3.74556e-01
1.42008e-01,3.43726e-01
1.45472e-01,3.15240e-01
1.49020e-01,2.88930e-01
1.52656e-01,2.64637e-01
1.56380e-01,2.42214e-01
1.60194e-01,2.21522e-01
1.64102e-01,2.02436e-01
1.68105e-01,1.84834e-01
1.72206e-01,1.68607e-01
1.76407e-01,1.53651e-01
1.80710e-01,1.39872e-01
1.85119e-01,1.27179e-01
1.89635e-01,1.15491e-01
1.94261e-01,1.04730e-01
1.98999e-01,9.48260e-02
2.03854e-01,8.57130e-02
2.08827e-01,7.73297e-02
2.13921e-01,6.96197e-02
2.19139e-01,6.25305e-02
2.24485e-01,5.60136e-02
2.29961e-01,5.00243e-02
2.35571e-01,4.45209e-02
2.41318e-01,3.94652e-02
2.47205e-01,3.48217e-02
2.53235e-01,3.05577e-02
2.59412e-01,2.66429e-02
2.65741e-01,2.30494e-02
2.72223e-01,1.97514e-02
2.78864e-01,1.67252e-02
2.85667e-01,1.39490e-02
2.92635e-01,1.14023e-02
2.99774e-01,9.06678e-03
3.07087e-01,6.92514e-03
3.14578e-01,4.96161e-03
3.22252e-01,3.16166e-03
3.30113e-01,1.51190e-03
3.38166e-01,0.00000e+00
