m1=1595.359, m2=68.231, gsp=2.477, rhosp=55.151
fGW[Hz],dPh[rad]
4.15554e-03,7.61456e+03
4.29390e-03,7.12810e+03
4.43687e-03,6.67270e+03
4.58461e-03,6.24640e+03
4.73726e-03,5.84732e+03
4.89499e-03,5.47374e+03
5.05798e-03,5.12402e+03
5.22639e-03,4.79664e+03
5.40041e-03,4.49016e+03
5.58023e-03,4.20327e+03
5.76603e-03,3.93470e+03
5.95802e-03,3.68329e+03
6.15640e-03,3.44794e+03
6.36139e-03,3.22762e+03
6.57320e-03,3.02137e+03
6.79206e-03,2.82830e+03
7.01821e-03,2.64756e+03
7.25190e-03,2.47837e+03
7.49336e-03,2.31998e+03
7.74286e-03,2.17172e+03
8.00067e-03,2.03292e+03
8.26707e-03,1.90299e+03
8.54233e-03,1.78136e+03
8.82676e-03,1.66751e+03
9.12066e-03,1.56092e+03
9.42435e-03,1.46114e+03
9.73815e-03,1.36774e+03
1.00624e-02,1.28031e+03
1.03974e-02,1.19846e+03
1.07436e-02,1.12184e+03
1.11014e-02,1.05011e+03
1.14710e-02,9.82971e+02
1.18529e-02,9.20119e+02
1.22476e-02,8.61282e+02
1.26554e-02,8.06204e+02
1.30768e-02,7.54645e+02
1.35122e-02,7.06381e+02
1.39621e-02,6.61200e+02
1.44270e-02,6.18907e+02
1.49074e-02,5.79315e+02
1.54037e-02,5.42254e+02
1.59166e-02,5.07561e+02
1.64466e-02,4.75085e+02
1.69942e-02,4.44684e+02
1.75601e-02,4.16226e+02
1.81447e-02,3.89587e+02
1.87489e-02,3.64650e+02
1.93732e-02,3.41307e+02
2.00182e-02,3.19456e+02
2.06848e-02,2.99002e+02
2.13735e-02,2.79855e+02
2.20852e-02,2.61931e+02
2.28205e-02,2.45154e+02
2.35804e-02,2.29449e+02
2.43655e-02,2.14748e+02
2.51768e-02,2.00987e+02
2.60151e-02,1.88106e+02
2.68813e-02,1.76048e+02
2.77764e-02,1.64761e+02
2.87012e-02,1.54197e+02
2.96569e-02,1.44307e+02
3.06443e-02,1.35050e+02
3.16647e-02,1.26385e+02
3.27190e-02,1.18275e+02
3.38084e-02,1.10683e+02
3.49341e-02,1.03577e+02
3.60973e-02,9.69254e+01
3.72992e-02,9.06995e+01
3.85412e-02,8.48719e+01
3.98245e-02,7.94173e+01
4.11505e-02,7.43117e+01
4.25207e-02,6.95330e+01
4.39364e-02,6.50601e+01
4.53994e-02,6.08736e+01
4.69110e-02,5.69552e+01
4.84730e-02,5.32877e+01
5.00870e-02,4.98550e+01
5.17547e-02,4.66422e+01
5.34779e-02,4.36353e+01
5.52586e-02,4.08210e+01
5.70985e-02,3.81870e+01
5.89997e-02,3.57219e+01
6.09642e-02,3.34148e+01
6.29941e-02,3.12556e+01
6.50915e-02,2.92349e+01
6.72589e-02,2.73438e+01
6.94983e-02,2.55740e+01
7.18124e-02,2.39178e+01
7.42035e-02,2.23679e+01
7.66742e-02,2.09174e+01
7.92272e-02,1.95602e+01
8.18652e-02,1.82901e+01
8.45910e-02,1.71016e+01
8.74076e-02,1.59895e+01
9.03180e-02,1.49489e+01
9.33253e-02,1.39752e+01
9.64327e-02,1.30641e+01
9.96435e-02,1.22117e+01
1.02961e-01,1.14142e+01
1.06390e-01,1.06680e+01
1.09932e-01,9.96991e+00
1.13592e-01,9.31682e+00
1.17375e-01,8.70584e+00
1.21283e-01,8.13429e+00
1.25321e-01,7.59963e+00
1.29494e-01,7.09950e+00
1.33805e-01,6.63169e+00
1.38261e-01,6.19413e+00
1.42864e-01,5.78488e+00
1.47621e-01,5.40212e+00
1.52536e-01,5.04416e+00
1.57615e-01,4.70940e+00
1.62863e-01,4.39636e+00
1.68286e-01,4.10365e+00
1.73890e-01,3.82995e+00
1.79680e-01,3.57405e+00
1.85662e-01,3.33481e+00
1.91844e-01,3.11115e+00
1.98232e-01,2.90208e+00
2.04832e-01,2.70666e+00
2.11653e-01,2.52400e+00
2.18700e-01,2.35329e+00
2.25982e-01,2.19376e+00
2.33506e-01,2.04470e+00
2.41281e-01,1.90542e+00
2.49315e-01,1.77529e+00
2.57616e-01,1.65373e+00
2.66194e-01,1.54018e+00
2.75057e-01,1.43413e+00
2.84216e-01,1.33510e+00
2.93679e-01,1.24262e+00
3.03458e-01,1.15628e+00
3.13562e-01,1.07568e+00
3.24002e-01,1.00044e+00
3.34790e-01,9.30226e-01
3.45938e-01,8.64705e-01
3.57456e-01,8.03575e-01
3.69358e-01,7.46549e-01
3.81657e-01,6.93361e-01
3.94365e-01,6.43762e-01
4.07496e-01,5.97517e-01
4.21064e-01,5.54409e-01
4.35084e-01,5.14232e-01
4.49570e-01,4.76794e-01
4.64540e-01,4.41918e-01
4.80007e-01,4.09433e-01
4.95990e-01,3.79185e-01
5.12504e-01,3.51025e-01
5.29569e-01,3.24816e-01
5.47202e-01,3.00430e-01
5.65422e-01,2.77746e-01
5.84248e-01,2.56651e-01
6.03702e-01,2.37040e-01
6.23803e-01,2.18814e-01
6.44573e-01,2.01881e-01
6.66036e-01,1.86155e-01
6.88212e-01,1.71553e-01
7.11127e-01,1.58002e-01
7.34805e-01,1.45430e-01
7.59272e-01,1.33771e-01
7.84553e-01,1.22963e-01
8.10676e-01,1.12948e-01
8.37669e-01,1.03672e-01
8.65560e-01,9.50841e-02
8.94380e-01,8.71370e-02
9.24160e-01,7.97864e-02
9.54931e-01,7.29910e-02
9.86727e-01,6.67118e-02
1.01958e+00,6.09127e-02
1.05353e+00,5.55599e-02
1.08861e+00,5.06217e-02
1.12486e+00,4.60685e-02
1.16231e+00,4.18729e-02
1.20101e+00,3.80089e-02
1.24100e+00,3.44525e-02
1.28232e+00,3.11812e-02
1.32502e+00,2.81742e-02
1.36914e+00,2.54117e-02
1.41472e+00,2.28756e-02
1.46183e+00,2.05489e-02
1.51050e+00,1.84156e-02
1.56080e+00,1.64612e-02
1.61277e+00,1.46717e-02
1.66647e+00,1.30345e-02
1.72195e+00,1.15376e-02
1.77929e+00,1.01700e-02
1.83853e+00,8.92134e-03
1.89975e+00,7.78221e-03
1.96301e+00,6.74371e-03
2.02837e+00,5.79763e-03
2.09590e+00,4.93637e-03
2.16569e+00,4.15291e-03
2.23780e+00,3.44072e-03
2.31231e+00,2.79380e-03
2.38930e+00,2.20659e-03
2.46886e+00,1.67395e-03
2.55106e+00,1.19116e-03
2.63600e+00,7.53855e-04
2.72377e+00,3.58032e-04
2.81447e+00,0.00000e+00
