m1=2260.601, m2=7.695, gsp=2.400, rhosp=351.058
fGW[Hz],dPh[rad]
8.59216e-03,4.91727e+04
8.82957e-03,4.64639e+04
9.07353e-03,4.39037e+04
9.32424e-03,4.14841e+04
9.58188e-03,3.91973e+04
9.84663e-03,3.70360e+04
1.01187e-02,3.49934e+04
1.03983e-02,3.30629e+04
1.06856e-02,3.12384e+04
1.09808e-02,2.95141e+04
1.12843e-02,2.78845e+04
1.15960e-02,2.63444e+04
1.19165e-02,2.48889e+04
1.22457e-02,2.35134e+04
1.25841e-02,2.22134e+04
1.29318e-02,2.09849e+04
1.32891e-02,1.98240e+04
1.36563e-02,1.87268e+04
1.40336e-02,1.76899e+04
1.44214e-02,1.67101e+04
1.48198e-02,1.57842e+04
1.52293e-02,1.49092e+04
1.56501e-02,1.40823e+04
1.60825e-02,1.33009e+04
1.65269e-02,1.25625e+04
1.69836e-02,1.18648e+04
1.74528e-02,1.12055e+04
1.79351e-02,1.05825e+04
1.84306e-02,9.99377e+03
1.89399e-02,9.43751e+03
1.94632e-02,8.91191e+03
2.00010e-02,8.41527e+03
2.05536e-02,7.94602e+03
2.11215e-02,7.50264e+03
2.17051e-02,7.08373e+03
2.23048e-02,6.68793e+03
2.29211e-02,6.31398e+03
2.35545e-02,5.96068e+03
2.42053e-02,5.62689e+03
2.48741e-02,5.31154e+03
2.55614e-02,5.01362e+03
2.62677e-02,4.73218e+03
2.69934e-02,4.46630e+03
2.77393e-02,4.21514e+03
2.85057e-02,3.97788e+03
2.92934e-02,3.75376e+03
3.01028e-02,3.54206e+03
3.09345e-02,3.34209e+03
3.17893e-02,3.15322e+03
3.26676e-02,2.97482e+03
3.35703e-02,2.80633e+03
3.44978e-02,2.64720e+03
3.54510e-02,2.49691e+03
3.64306e-02,2.35498e+03
3.74372e-02,2.22095e+03
3.84716e-02,2.09438e+03
3.95346e-02,1.97487e+03
4.06269e-02,1.86201e+03
4.17495e-02,1.75546e+03
4.29030e-02,1.65485e+03
4.40885e-02,1.55987e+03
4.53067e-02,1.47019e+03
4.65585e-02,1.38554e+03
4.78450e-02,1.30563e+03
4.91670e-02,1.23020e+03
5.05255e-02,1.15900e+03
5.19215e-02,1.09180e+03
5.33561e-02,1.02838e+03
5.48304e-02,9.68534e+02
5.63454e-02,9.12057e+02
5.79023e-02,8.58766e+02
5.95021e-02,8.08485e+02
6.11462e-02,7.61047e+02
6.28357e-02,7.16294e+02
6.45719e-02,6.74079e+02
6.63561e-02,6.34260e+02
6.81896e-02,5.96704e+02
7.00737e-02,5.61287e+02
7.20099e-02,5.27888e+02
7.39995e-02,4.96397e+02
7.60442e-02,4.66706e+02
7.81453e-02,4.38717e+02
8.03046e-02,4.12333e+02
8.25234e-02,3.87466e+02
8.48036e-02,3.64031e+02
8.71468e-02,3.41949e+02
8.95547e-02,3.21143e+02
9.20291e-02,3.01542e+02
9.45720e-02,2.83079e+02
9.71851e-02,2.65691e+02
9.98703e-02,2.49316e+02
1.02630e-01,2.33898e+02
1.05466e-01,2.19384e+02
1.08380e-01,2.05722e+02
1.11374e-01,1.92865e+02
1.14452e-01,1.80767e+02
1.17614e-01,1.69384e+02
1.20864e-01,1.58678e+02
1.24203e-01,1.48609e+02
1.27635e-01,1.39142e+02
1.31162e-01,1.30241e+02
1.34786e-01,1.21876e+02
1.38510e-01,1.14014e+02
1.42337e-01,1.06629e+02
1.46270e-01,9.96915e+01
1.50312e-01,9.31768e+01
1.54465e-01,8.70604e+01
1.58733e-01,8.13194e+01
1.63119e-01,7.59321e+01
1.67626e-01,7.08781e+01
1.72257e-01,6.61379e+01
1.77017e-01,6.16933e+01
1.81908e-01,5.75271e+01
1.86934e-01,5.36229e+01
1.92099e-01,4.99655e+01
1.97407e-01,4.65402e+01
2.02862e-01,4.33333e+01
2.08467e-01,4.03319e+01
2.14227e-01,3.75238e+01
2.20146e-01,3.48973e+01
2.26229e-01,3.24417e+01
2.32480e-01,3.01466e+01
2.38903e-01,2.80023e+01
2.45504e-01,2.59996e+01
2.52288e-01,2.41300e+01
2.59259e-01,2.23853e+01
2.66422e-01,2.07577e+01
2.73783e-01,1.92400e+01
2.81348e-01,1.78254e+01
2.89122e-01,1.65075e+01
2.97111e-01,1.52801e+01
3.05320e-01,1.41376e+01
3.13756e-01,1.30745e+01
3.22426e-01,1.20858e+01
3.31334e-01,1.11667e+01
3.40489e-01,1.03126e+01
3.49897e-01,9.51942e+00
3.59565e-01,8.78308e+00
3.69500e-01,8.09985e+00
3.79710e-01,7.46621e+00
3.90201e-01,6.87883e+00
4.00983e-01,6.33462e+00
4.12062e-01,5.83064e+00
4.23448e-01,5.36415e+00
4.35148e-01,4.93259e+00
4.47171e-01,4.53352e+00
4.59527e-01,4.16470e+00
4.72224e-01,3.82400e+00
4.85272e-01,3.50943e+00
4.98680e-01,3.21914e+00
5.12459e-01,2.95138e+00
5.26619e-01,2.70453e+00
5.41170e-01,2.47707e+00
5.56122e-01,2.26758e+00
5.71489e-01,2.07474e+00
5.87279e-01,1.89731e+00
6.03506e-01,1.73413e+00
6.20181e-01,1.58414e+00
6.37317e-01,1.44634e+00
6.54927e-01,1.31979e+00
6.73023e-01,1.20363e+00
6.91619e-01,1.09705e+00
7.10729e-01,9.99316e-01
7.30367e-01,9.09727e-01
7.50547e-01,8.27641e-01
7.71285e-01,7.52463e-01
7.92596e-01,6.83642e-01
8.14496e-01,6.20665e-01
8.37001e-01,5.63061e-01
8.60128e-01,5.10392e-01
8.83894e-01,4.62254e-01
9.08317e-01,4.18276e-01
9.33414e-01,3.78112e-01
9.59205e-01,3.41445e-01
9.85708e-01,3.07983e-01
1.01294e+00,2.77457e-01
1.04093e+00,2.49619e-01
1.06969e+00,2.24241e-01
1.09925e+00,2.01112e-01
1.12962e+00,1.80040e-01
1.16084e+00,1.60849e-01
1.19291e+00,1.43375e-01
1.22587e+00,1.27469e-01
1.25974e+00,1.12996e-01
1.29455e+00,9.98287e-02
1.33032e+00,8.78536e-02
1.36708e+00,7.69653e-02
1.40485e+00,6.70677e-02
1.44367e+00,5.80727e-02
1.48356e+00,4.99000e-02
1.52455e+00,4.24762e-02
1.56667e+00,3.57340e-02
1.60996e+00,2.96123e-02
1.65444e+00,2.40550e-02
1.70016e+00,1.90111e-02
1.74713e+00,1.44340e-02
1.79541e+00,1.02814e-02
1.84502e+00,6.51447e-03
1.89600e+00,3.09804e-03
1.94838e+00,0.00000e+00
