m1=111957.581, m2=25.342, gsp=2.232, rhosp=22.973
fGW[Hz],dPh[rad]
2.07071e-03,2.71233e+03
2.10156e-03,2.59472e+03
2.13287e-03,2.48188e+03
2.16465e-03,2.37364e+03
2.19689e-03,2.26981e+03
2.22962e-03,2.17024e+03
2.26284e-03,2.07476e+03
2.29655e-03,1.98322e+03
2.33076e-03,1.89546e+03
2.36549e-03,1.81135e+03
2.40073e-03,1.73074e+03
2.43649e-03,1.65350e+03
2.47279e-03,1.57949e+03
2.50963e-03,1.50860e+03
2.54702e-03,1.44070e+03
2.58496e-03,1.37567e+03
2.62347e-03,1.31340e+03
2.66256e-03,1.25379e+03
2.70222e-03,1.19672e+03
2.74248e-03,1.14210e+03
2.78334e-03,1.08983e+03
2.82480e-03,1.03981e+03
2.86689e-03,9.91965e+02
2.90960e-03,9.46194e+02
2.95294e-03,9.02419e+02
2.99693e-03,8.60557e+02
3.04158e-03,8.20531e+02
3.08689e-03,7.82266e+02
3.13288e-03,7.45690e+02
3.17956e-03,7.10734e+02
3.22692e-03,6.77331e+02
3.27500e-03,6.45416e+02
3.32379e-03,6.14928e+02
3.37330e-03,5.85806e+02
3.42356e-03,5.57995e+02
3.47456e-03,5.31438e+02
3.52633e-03,5.06083e+02
3.57886e-03,4.81879e+02
3.63218e-03,4.58777e+02
3.68629e-03,4.36731e+02
3.74121e-03,4.15694e+02
3.79694e-03,3.95623e+02
3.85351e-03,3.76477e+02
3.91092e-03,3.58216e+02
3.96918e-03,3.40801e+02
4.02831e-03,3.24196e+02
4.08832e-03,3.08364e+02
4.14923e-03,2.93273e+02
4.21105e-03,2.78888e+02
4.27378e-03,2.65180e+02
4.33745e-03,2.52118e+02
4.40207e-03,2.39674e+02
4.46765e-03,2.27819e+02
4.53421e-03,2.16527e+02
4.60176e-03,2.05773e+02
4.67031e-03,1.95533e+02
4.73989e-03,1.85783e+02
4.81050e-03,1.76501e+02
4.88217e-03,1.67666e+02
4.95490e-03,1.59257e+02
5.02872e-03,1.51255e+02
5.10364e-03,1.43641e+02
5.17967e-03,1.36397e+02
5.25683e-03,1.29506e+02
5.33515e-03,1.22952e+02
5.41463e-03,1.16718e+02
5.49530e-03,1.10790e+02
5.57717e-03,1.05154e+02
5.66025e-03,9.97948e+01
5.74458e-03,9.47007e+01
5.83016e-03,8.98588e+01
5.91702e-03,8.52569e+01
6.00517e-03,8.08838e+01
6.09463e-03,7.67285e+01
6.18543e-03,7.27806e+01
6.27757e-03,6.90301e+01
6.37110e-03,6.54675e+01
6.46601e-03,6.20838e+01
6.56234e-03,5.88703e+01
6.66010e-03,5.58187e+01
6.75932e-03,5.29212e+01
6.86002e-03,5.01702e+01
6.96222e-03,4.75587e+01
7.06594e-03,4.50797e+01
7.17121e-03,4.27267e+01
7.27805e-03,4.04937e+01
7.38647e-03,3.83745e+01
7.49651e-03,3.63637e+01
7.60820e-03,3.44558e+01
7.72154e-03,3.26457e+01
7.83657e-03,3.09285e+01
7.95332e-03,2.92997e+01
8.07181e-03,2.77548e+01
8.19206e-03,2.62896e+01
8.31410e-03,2.49001e+01
8.43797e-03,2.35824e+01
8.56367e-03,2.23331e+01
8.69125e-03,2.11485e+01
8.82073e-03,2.00255e+01
8.95214e-03,1.89609e+01
9.08551e-03,1.79518e+01
9.22086e-03,1.69953e+01
9.35823e-03,1.60888e+01
9.49765e-03,1.52296e+01
9.63914e-03,1.44154e+01
9.78274e-03,1.36439e+01
9.92848e-03,1.29129e+01
1.00764e-02,1.22203e+01
1.02265e-02,1.15641e+01
1.03789e-02,1.09425e+01
1.05335e-02,1.03536e+01
1.06904e-02,9.79578e+00
1.08497e-02,9.26744e+00
1.10113e-02,8.76702e+00
1.11754e-02,8.29310e+00
1.13418e-02,7.84427e+00
1.15108e-02,7.41925e+00
1.16823e-02,7.01678e+00
1.18563e-02,6.63570e+00
1.20330e-02,6.27487e+00
1.22122e-02,5.93325e+00
1.23942e-02,5.60982e+00
1.25788e-02,5.30364e+00
1.27662e-02,5.01379e+00
1.29564e-02,4.73941e+00
1.31494e-02,4.47970e+00
1.33453e-02,4.23388e+00
1.35441e-02,4.00121e+00
1.37459e-02,3.78100e+00
1.39507e-02,3.57260e+00
1.41585e-02,3.37537e+00
1.43695e-02,3.18873e+00
1.45835e-02,3.01211e+00
1.48008e-02,2.84498e+00
1.50213e-02,2.68685e+00
1.52451e-02,2.53722e+00
1.54722e-02,2.39565e+00
1.57027e-02,2.26170e+00
1.59366e-02,2.13498e+00
1.61740e-02,2.01509e+00
1.64150e-02,1.90168e+00
1.66595e-02,1.79438e+00
1.69077e-02,1.69289e+00
1.71596e-02,1.59688e+00
1.74153e-02,1.50607e+00
1.76747e-02,1.42017e+00
1.79380e-02,1.33892e+00
1.82053e-02,1.26207e+00
1.84765e-02,1.18938e+00
1.87517e-02,1.12064e+00
1.90311e-02,1.05563e+00
1.93146e-02,9.94142e-01
1.96024e-02,9.35995e-01
1.98944e-02,8.81005e-01
2.01908e-02,8.29004e-01
2.04916e-02,7.79829e-01
2.07969e-02,7.33329e-01
2.11067e-02,6.89358e-01
2.14211e-02,6.47780e-01
2.17402e-02,6.08466e-01
2.20641e-02,5.71293e-01
2.23928e-02,5.36145e-01
2.27264e-02,5.02913e-01
2.30650e-02,4.71492e-01
2.34086e-02,4.41785e-01
2.37574e-02,4.13699e-01
2.41113e-02,3.87145e-01
2.44705e-02,3.62041e-01
2.48351e-02,3.38307e-01
2.52050e-02,3.15870e-01
2.55805e-02,2.94658e-01
2.59616e-02,2.74606e-01
2.63484e-02,2.55650e-01
2.67409e-02,2.37731e-01
2.71393e-02,2.20791e-01
2.75436e-02,2.04779e-01
2.79540e-02,1.89642e-01
2.83704e-02,1.75334e-01
2.87931e-02,1.61809e-01
2.92220e-02,1.49025e-01
2.96574e-02,1.36942e-01
3.00992e-02,1.25520e-01
3.05476e-02,1.14724e-01
3.10027e-02,1.04519e-01
3.14646e-02,9.48744e-02
3.19333e-02,8.57583e-02
3.24091e-02,7.71421e-02
3.28919e-02,6.89985e-02
3.33819e-02,6.13017e-02
3.38792e-02,5.40272e-02
3.43839e-02,4.71520e-02
3.48962e-02,4.06541e-02
3.54161e-02,3.45129e-02
3.59437e-02,2.87090e-02
3.64792e-02,2.32238e-02
3.70226e-02,1.80398e-02
3.75742e-02,1.31407e-02
3.81339e-02,8.51068e-03
3.87020e-02,4.13510e-03
3.92786e-02,0.00000e+00
