m1=1100.725, m2=86.906, gsp=2.191, rhosp=6987.847
fGW[Hz],dPh[rad]
4.18189e-03,7.92451e+01
4.32944e-03,7.34091e+01
4.48218e-03,6.80030e+01
4.64032e-03,6.29949e+01
4.80404e-03,5.83556e+01
4.97353e-03,5.40580e+01
5.14900e-03,5.00769e+01
5.33067e-03,4.63889e+01
5.51874e-03,4.29725e+01
5.71345e-03,3.98077e+01
5.91502e-03,3.68760e+01
6.12371e-03,3.41601e+01
6.33976e-03,3.16443e+01
6.56344e-03,2.93137e+01
6.79501e-03,2.71548e+01
7.03474e-03,2.51548e+01
7.28294e-03,2.33021e+01
7.53989e-03,2.15859e+01
7.80590e-03,1.99961e+01
8.08131e-03,1.85233e+01
8.36642e-03,1.71590e+01
8.66160e-03,1.58951e+01
8.96719e-03,1.47244e+01
9.28357e-03,1.36398e+01
9.61110e-03,1.26352e+01
9.95019e-03,1.17045e+01
1.03012e-02,1.08423e+01
1.06647e-02,1.00437e+01
1.10410e-02,9.30385e+00
1.14305e-02,8.61850e+00
1.18338e-02,7.98363e+00
1.22513e-02,7.39551e+00
1.26835e-02,6.85071e+00
1.31310e-02,6.34603e+00
1.35943e-02,5.87851e+00
1.40739e-02,5.44544e+00
1.45705e-02,5.04425e+00
1.50845e-02,4.67262e+00
1.56167e-02,4.32835e+00
1.61677e-02,4.00944e+00
1.67381e-02,3.71402e+00
1.73287e-02,3.44036e+00
1.79400e-02,3.18685e+00
1.85730e-02,2.95202e+00
1.92283e-02,2.73448e+00
1.99067e-02,2.53297e+00
2.06090e-02,2.34630e+00
2.13361e-02,2.17338e+00
2.20889e-02,2.01319e+00
2.28682e-02,1.86481e+00
2.36750e-02,1.72736e+00
2.45103e-02,1.60003e+00
2.53750e-02,1.48208e+00
2.62703e-02,1.37282e+00
2.71972e-02,1.27161e+00
2.81567e-02,1.17785e+00
2.91501e-02,1.09100e+00
3.01786e-02,1.01055e+00
3.12433e-02,9.36029e-01
3.23456e-02,8.66997e-01
3.34868e-02,8.03051e-01
3.46682e-02,7.43817e-01
3.58914e-02,6.88947e-01
3.71577e-02,6.38120e-01
3.84686e-02,5.91038e-01
3.98259e-02,5.47426e-01
4.12310e-02,5.07028e-01
4.26857e-02,4.69607e-01
4.41917e-02,4.34944e-01
4.57508e-02,4.02835e-01
4.73649e-02,3.73094e-01
4.90360e-02,3.45544e-01
5.07661e-02,3.20025e-01
5.25572e-02,2.96388e-01
5.44114e-02,2.74493e-01
5.63312e-02,2.54212e-01
5.83186e-02,2.35426e-01
6.03761e-02,2.18026e-01
6.25063e-02,2.01909e-01
6.47116e-02,1.86980e-01
6.69947e-02,1.73152e-01
6.93583e-02,1.60344e-01
7.18054e-02,1.48481e-01
7.43388e-02,1.37493e-01
7.69615e-02,1.27316e-01
7.96768e-02,1.17890e-01
8.24879e-02,1.09159e-01
8.53982e-02,1.01072e-01
8.84112e-02,9.35828e-02
9.15304e-02,8.66460e-02
9.47597e-02,8.02214e-02
9.81030e-02,7.42711e-02
1.01564e-01,6.87603e-02
1.05147e-01,6.36564e-02
1.08857e-01,5.89296e-02
1.12698e-01,5.45520e-02
1.16674e-01,5.04979e-02
1.20790e-01,4.67434e-02
1.25052e-01,4.32664e-02
1.29464e-01,4.00466e-02
1.34032e-01,3.70648e-02
1.38760e-01,3.43036e-02
1.43656e-01,3.17466e-02
1.48724e-01,2.93789e-02
1.53972e-01,2.71865e-02
1.59404e-01,2.51563e-02
1.65028e-01,2.32766e-02
1.70850e-01,2.15361e-02
1.76878e-01,1.99246e-02
1.83119e-01,1.84325e-02
1.89579e-01,1.70511e-02
1.96268e-01,1.57721e-02
2.03192e-01,1.45881e-02
2.10361e-01,1.34920e-02
2.17783e-01,1.24773e-02
2.25467e-01,1.15380e-02
2.33421e-01,1.06685e-02
2.41657e-01,9.86368e-03
2.50183e-01,9.11875e-03
2.59009e-01,8.42928e-03
2.68148e-01,7.79117e-03
2.77608e-01,7.20062e-03
2.87403e-01,6.65411e-03
2.97543e-01,6.14839e-03
3.08040e-01,5.68044e-03
3.18908e-01,5.24746e-03
3.30160e-01,4.84686e-03
3.41808e-01,4.47625e-03
3.53868e-01,4.13340e-03
3.66352e-01,3.81625e-03
3.79278e-01,3.52290e-03
3.92659e-01,3.25158e-03
4.06513e-01,3.00066e-03
4.20855e-01,2.76863e-03
4.35703e-01,2.55407e-03
4.51075e-01,2.35571e-03
4.66990e-01,2.17232e-03
4.83466e-01,2.00279e-03
5.00523e-01,1.84610e-03
5.18182e-01,1.70130e-03
5.36464e-01,1.56748e-03
5.55391e-01,1.44384e-03
5.74986e-01,1.32961e-03
5.95273e-01,1.22410e-03
6.16275e-01,1.12665e-03
6.38017e-01,1.03665e-03
6.60527e-01,9.53562e-04
6.83832e-01,8.76854e-04
7.07958e-01,8.06052e-04
7.32936e-01,7.40713e-04
7.58795e-01,6.80426e-04
7.85566e-01,6.24811e-04
8.13282e-01,5.73517e-04
8.41975e-01,5.26217e-04
8.71681e-01,4.82611e-04
9.02435e-01,4.42420e-04
9.34274e-01,4.05384e-04
9.67236e-01,3.71266e-04
1.00136e+00,3.39842e-04
1.03669e+00,3.10909e-04
1.07327e+00,2.84277e-04
1.11113e+00,2.59769e-04
1.15034e+00,2.37224e-04
1.19092e+00,2.16491e-04
1.23294e+00,1.97431e-04
1.27644e+00,1.79915e-04
1.32147e+00,1.63824e-04
1.36809e+00,1.49047e-04
1.41636e+00,1.35483e-04
1.46633e+00,1.23037e-04
1.51807e+00,1.11622e-04
1.57163e+00,1.01157e-04
1.62708e+00,9.15679e-05
1.68448e+00,8.27847e-05
1.74391e+00,7.47440e-05
1.80544e+00,6.73868e-05
1.86914e+00,6.06585e-05
1.93508e+00,5.45086e-05
2.00335e+00,4.88906e-05
2.07404e+00,4.37615e-05
2.14721e+00,3.90814e-05
2.22297e+00,3.48136e-05
2.30140e+00,3.09243e-05
2.38259e+00,2.73822e-05
2.46665e+00,2.41583e-05
2.55368e+00,2.12261e-05
2.64378e+00,1.85610e-05
2.73705e+00,1.61404e-05
2.83362e+00,1.39434e-05
2.93359e+00,1.19508e-05
3.03709e+00,1.01449e-05
3.14424e+00,8.50954e-06
3.25518e+00,7.02964e-06
3.37002e+00,5.69148e-06
3.48892e+00,4.48244e-06
3.61202e+00,3.39091e-06
3.73945e+00,2.40625e-06
3.87138e+00,1.51871e-06
4.00797e+00,7.19358e-07
4.14938e+00,0.00000e+00
