m1=1944.857, m2=6.485, gsp=2.476, rhosp=1760.269
fGW[Hz],dPh[rad]
9.51267e-03,2.78099e+05
9.77790e-03,2.63015e+05
1.00505e-02,2.48745e+05
1.03307e-02,2.35247e+05
1.06188e-02,2.22478e+05
1.09149e-02,2.10399e+05
1.12192e-02,1.98973e+05
1.15320e-02,1.88164e+05
1.18535e-02,1.77940e+05
1.21840e-02,1.68269e+05
1.25237e-02,1.59120e+05
1.28729e-02,1.50467e+05
1.32318e-02,1.42281e+05
1.36008e-02,1.34538e+05
1.39800e-02,1.27214e+05
1.43698e-02,1.20286e+05
1.47704e-02,1.13733e+05
1.51823e-02,1.07535e+05
1.56056e-02,1.01672e+05
1.60407e-02,9.61262e+04
1.64879e-02,9.08809e+04
1.69476e-02,8.59197e+04
1.74202e-02,8.12271e+04
1.79059e-02,7.67888e+04
1.84051e-02,7.25909e+04
1.89183e-02,6.86205e+04
1.94458e-02,6.48653e+04
1.99879e-02,6.13137e+04
2.05452e-02,5.79547e+04
2.11181e-02,5.47779e+04
2.17069e-02,5.17734e+04
2.23121e-02,4.89319e+04
2.29342e-02,4.62446e+04
2.35737e-02,4.37033e+04
2.42310e-02,4.12999e+04
2.49066e-02,3.90271e+04
2.56010e-02,3.68779e+04
2.63148e-02,3.48454e+04
2.70485e-02,3.29234e+04
2.78027e-02,3.11060e+04
2.85779e-02,2.93875e+04
2.93747e-02,2.77625e+04
3.01937e-02,2.62260e+04
3.10355e-02,2.47732e+04
3.19009e-02,2.33996e+04
3.27903e-02,2.21008e+04
3.37046e-02,2.08729e+04
3.46443e-02,1.97120e+04
3.56103e-02,1.86145e+04
3.66031e-02,1.75769e+04
3.76237e-02,1.65960e+04
3.86727e-02,1.56688e+04
3.97510e-02,1.47923e+04
4.08593e-02,1.39638e+04
4.19985e-02,1.31806e+04
4.31695e-02,1.24404e+04
4.43732e-02,1.17408e+04
4.56104e-02,1.10796e+04
4.68821e-02,1.04547e+04
4.81892e-02,9.86416e+03
4.95328e-02,9.30610e+03
5.09139e-02,8.77877e+03
5.23335e-02,8.28049e+03
5.37926e-02,7.80969e+03
5.52925e-02,7.36488e+03
5.68341e-02,6.94464e+03
5.84188e-02,6.54764e+03
6.00476e-02,6.17262e+03
6.17218e-02,5.81839e+03
6.34427e-02,5.48380e+03
6.52116e-02,5.16780e+03
6.70299e-02,4.86937e+03
6.88988e-02,4.58755e+03
7.08198e-02,4.32145e+03
7.27944e-02,4.07020e+03
7.48240e-02,3.83299e+03
7.69102e-02,3.60906e+03
7.90546e-02,3.39768e+03
8.12588e-02,3.19817e+03
8.35245e-02,3.00987e+03
8.58533e-02,2.83218e+03
8.82470e-02,2.66452e+03
9.07075e-02,2.50633e+03
9.32366e-02,2.35710e+03
9.58362e-02,2.21633e+03
9.85083e-02,2.08357e+03
1.01255e-01,1.95836e+03
1.04078e-01,1.84030e+03
1.06980e-01,1.72899e+03
1.09963e-01,1.62407e+03
1.13029e-01,1.52517e+03
1.16180e-01,1.43197e+03
1.19419e-01,1.34415e+03
1.22749e-01,1.26141e+03
1.26172e-01,1.18348e+03
1.29689e-01,1.11008e+03
1.33305e-01,1.04096e+03
1.37022e-01,9.75891e+02
1.40843e-01,9.14640e+02
1.44770e-01,8.56997e+02
1.48806e-01,8.02760e+02
1.52955e-01,7.51737e+02
1.57220e-01,7.03748e+02
1.61603e-01,6.58624e+02
1.66109e-01,6.16202e+02
1.70740e-01,5.76331e+02
1.75501e-01,5.38866e+02
1.80394e-01,5.03670e+02
1.85424e-01,4.70616e+02
1.90594e-01,4.39580e+02
1.95908e-01,4.10447e+02
2.01370e-01,3.83110e+02
2.06985e-01,3.57463e+02
2.12756e-01,3.33411e+02
2.18688e-01,3.10860e+02
2.24786e-01,2.89725e+02
2.31053e-01,2.69922e+02
2.37495e-01,2.51373e+02
2.44117e-01,2.34006e+02
2.50923e-01,2.17750e+02
2.57920e-01,2.02540e+02
2.65111e-01,1.88314e+02
2.72503e-01,1.75014e+02
2.80100e-01,1.62583e+02
2.87910e-01,1.50970e+02
2.95938e-01,1.40125e+02
3.04189e-01,1.30001e+02
3.12670e-01,1.20555e+02
3.21388e-01,1.11745e+02
3.30349e-01,1.03532e+02
3.39560e-01,9.58781e+01
3.49027e-01,8.87490e+01
3.58759e-01,8.21116e+01
3.68762e-01,7.59350e+01
3.79043e-01,7.01897e+01
3.89612e-01,6.48483e+01
4.00475e-01,5.98846e+01
4.11641e-01,5.52743e+01
4.23118e-01,5.09943e+01
4.34915e-01,4.70229e+01
4.47042e-01,4.33396e+01
4.59506e-01,3.99253e+01
4.72318e-01,3.67619e+01
4.85487e-01,3.38325e+01
4.99023e-01,3.11212e+01
5.12937e-01,2.86129e+01
5.27238e-01,2.62937e+01
5.41939e-01,2.41505e+01
5.57049e-01,2.21708e+01
5.72581e-01,2.03432e+01
5.88545e-01,1.86568e+01
6.04955e-01,1.71015e+01
6.21822e-01,1.56678e+01
6.39160e-01,1.43469e+01
6.56981e-01,1.31306e+01
6.75298e-01,1.20110e+01
6.94127e-01,1.09811e+01
7.13480e-01,1.00341e+01
7.33374e-01,9.16371e+00
7.53821e-01,8.36416e+00
7.74839e-01,7.63002e+00
7.96443e-01,6.95626e+00
8.18649e-01,6.33819e+00
8.41475e-01,5.77147e+00
8.64937e-01,5.25206e+00
8.89053e-01,4.77622e+00
9.13841e-01,4.34048e+00
9.39321e-01,3.94164e+00
9.65511e-01,3.57671e+00
9.92431e-01,3.24296e+00
1.02010e+00,2.93783e+00
1.04854e+00,2.65899e+00
1.07778e+00,2.40426e+00
1.10783e+00,2.17165e+00
1.13872e+00,1.95931e+00
1.17047e+00,1.76554e+00
1.20310e+00,1.58878e+00
1.23665e+00,1.42760e+00
1.27113e+00,1.28066e+00
1.30657e+00,1.14675e+00
1.34300e+00,1.02475e+00
1.38044e+00,9.13642e-01
1.41893e+00,8.12476e-01
1.45849e+00,7.20390e-01
1.49916e+00,6.36591e-01
1.54096e+00,5.60356e-01
1.58392e+00,4.91017e-01
1.62809e+00,4.27968e-01
1.67348e+00,3.70651e-01
1.72014e+00,3.18558e-01
1.76810e+00,2.71223e-01
1.81740e+00,2.28220e-01
1.86807e+00,1.89162e-01
1.92016e+00,1.53693e-01
1.97369e+00,1.21491e-01
2.02872e+00,9.22588e-02
2.08529e+00,6.57287e-02
2.14343e+00,4.16547e-02
2.20319e+00,1.98130e-02
2.26462e+00,0.00000e+00
