m1=81629.266, m2=63.444, gsp=2.390, rhosp=920.129
fGW[Hz],dPh[rad]
1.58853e-03,5.17846e+04
1.61691e-03,4.96560e+04
1.64580e-03,4.76100e+04
1.67521e-03,4.56436e+04
1.70514e-03,4.37538e+04
1.73560e-03,4.19378e+04
1.76661e-03,4.01928e+04
1.79818e-03,3.85161e+04
1.83030e-03,3.69053e+04
1.86300e-03,3.53579e+04
1.89629e-03,3.38714e+04
1.93017e-03,3.24436e+04
1.96466e-03,3.10723e+04
1.99976e-03,2.97554e+04
2.03549e-03,2.84909e+04
2.07185e-03,2.72767e+04
2.10887e-03,2.61109e+04
2.14655e-03,2.49919e+04
2.18490e-03,2.39177e+04
2.22394e-03,2.28866e+04
2.26367e-03,2.18972e+04
2.30412e-03,2.09477e+04
2.34528e-03,2.00366e+04
2.38719e-03,1.91625e+04
2.42984e-03,1.83241e+04
2.47325e-03,1.75198e+04
2.51744e-03,1.67484e+04
2.56242e-03,1.60087e+04
2.60820e-03,1.52994e+04
2.65480e-03,1.46194e+04
2.70223e-03,1.39675e+04
2.75051e-03,1.33427e+04
2.79965e-03,1.27439e+04
2.84967e-03,1.21701e+04
2.90059e-03,1.16203e+04
2.95241e-03,1.10935e+04
3.00516e-03,1.05890e+04
3.05885e-03,1.01058e+04
3.11351e-03,9.64309e+03
3.16913e-03,9.20004e+03
3.22576e-03,8.77590e+03
3.28339e-03,8.36991e+03
3.34205e-03,7.98136e+03
3.40176e-03,7.60956e+03
3.46254e-03,7.25383e+03
3.52441e-03,6.91354e+03
3.58738e-03,6.58807e+03
3.65147e-03,6.27682e+03
3.71671e-03,5.97922e+03
3.78311e-03,5.69472e+03
3.85071e-03,5.42279e+03
3.91951e-03,5.16291e+03
3.98953e-03,4.91460e+03
4.06081e-03,4.67738e+03
4.13337e-03,4.45080e+03
4.20722e-03,4.23441e+03
4.28239e-03,4.02780e+03
4.35890e-03,3.83056e+03
4.43678e-03,3.64229e+03
4.51605e-03,3.46264e+03
4.59673e-03,3.29122e+03
4.67886e-03,3.12770e+03
4.76246e-03,2.97175e+03
4.84755e-03,2.82303e+03
4.93416e-03,2.68125e+03
5.02231e-03,2.54610e+03
5.11205e-03,2.41730e+03
5.20338e-03,2.29458e+03
5.29635e-03,2.17768e+03
5.39098e-03,2.06633e+03
5.48729e-03,1.96030e+03
5.58533e-03,1.85936e+03
5.68513e-03,1.76328e+03
5.78670e-03,1.67184e+03
5.89009e-03,1.58484e+03
5.99532e-03,1.50208e+03
6.10244e-03,1.42337e+03
6.21147e-03,1.34852e+03
6.32245e-03,1.27737e+03
6.43541e-03,1.20975e+03
6.55039e-03,1.14549e+03
6.66742e-03,1.08443e+03
6.78655e-03,1.02644e+03
6.90780e-03,9.71367e+02
7.03122e-03,9.19078e+02
7.15685e-03,8.69441e+02
7.28471e-03,8.22334e+02
7.41487e-03,7.77635e+02
7.54735e-03,7.35231e+02
7.68219e-03,6.95013e+02
7.81945e-03,6.56876e+02
7.95916e-03,6.20719e+02
8.10136e-03,5.86448e+02
8.24610e-03,5.53970e+02
8.39343e-03,5.23199e+02
8.54340e-03,4.94050e+02
8.69604e-03,4.66444e+02
8.85141e-03,4.40304e+02
9.00955e-03,4.15557e+02
9.17052e-03,3.92135e+02
9.33437e-03,3.69970e+02
9.50114e-03,3.48999e+02
9.67090e-03,3.29162e+02
9.84368e-03,3.10401e+02
1.00196e-02,2.92662e+02
1.01986e-02,2.75891e+02
1.03808e-02,2.60040e+02
1.05663e-02,2.45060e+02
1.07550e-02,2.30906e+02
1.09472e-02,2.17536e+02
1.11428e-02,2.04908e+02
1.13419e-02,1.92982e+02
1.15445e-02,1.81723e+02
1.17508e-02,1.71095e+02
1.19607e-02,1.61064e+02
1.21744e-02,1.51598e+02
1.23919e-02,1.42667e+02
1.26133e-02,1.34242e+02
1.28387e-02,1.26296e+02
1.30681e-02,1.18803e+02
1.33016e-02,1.11738e+02
1.35392e-02,1.05077e+02
1.37811e-02,9.87996e+01
1.40273e-02,9.28834e+01
1.42780e-02,8.73087e+01
1.45331e-02,8.20567e+01
1.47927e-02,7.71094e+01
1.50570e-02,7.24498e+01
1.53260e-02,6.80618e+01
1.55999e-02,6.39302e+01
1.58786e-02,6.00404e+01
1.61623e-02,5.63790e+01
1.64510e-02,5.29328e+01
1.67450e-02,4.96898e+01
1.70442e-02,4.66383e+01
1.73487e-02,4.37673e+01
1.76586e-02,4.10666e+01
1.79741e-02,3.85263e+01
1.82953e-02,3.61373e+01
1.86222e-02,3.38907e+01
1.89549e-02,3.17783e+01
1.92935e-02,2.97923e+01
1.96382e-02,2.79254e+01
1.99891e-02,2.61707e+01
2.03462e-02,2.45214e+01
2.07098e-02,2.29716e+01
2.10798e-02,2.15153e+01
2.14564e-02,2.01470e+01
2.18398e-02,1.88615e+01
2.22300e-02,1.76540e+01
2.26271e-02,1.65198e+01
2.30314e-02,1.54545e+01
2.34429e-02,1.44542e+01
2.38618e-02,1.35148e+01
2.42881e-02,1.26327e+01
2.47220e-02,1.18046e+01
2.51637e-02,1.10271e+01
2.56133e-02,1.02973e+01
2.60709e-02,9.61229e+00
2.65367e-02,8.96933e+00
2.70109e-02,8.36592e+00
2.74935e-02,7.79965e+00
2.79847e-02,7.26829e+00
2.84847e-02,6.76970e+00
2.89936e-02,6.30191e+00
2.95116e-02,5.86304e+00
3.00389e-02,5.45132e+00
3.05756e-02,5.06511e+00
3.11219e-02,4.70284e+00
3.16779e-02,4.36305e+00
3.22439e-02,4.04437e+00
3.28200e-02,3.74550e+00
3.34064e-02,3.46522e+00
3.40032e-02,3.20239e+00
3.46108e-02,2.95594e+00
3.52291e-02,2.72487e+00
3.58586e-02,2.50821e+00
3.64992e-02,2.30508e+00
3.71514e-02,2.11465e+00
3.78151e-02,1.93613e+00
3.84908e-02,1.76879e+00
3.91785e-02,1.61192e+00
3.98784e-02,1.46489e+00
4.05909e-02,1.32708e+00
4.13162e-02,1.19791e+00
4.20543e-02,1.07685e+00
4.28057e-02,9.63400e-01
4.35705e-02,8.57078e-01
4.43490e-02,7.57444e-01
4.51413e-02,6.64079e-01
4.59479e-02,5.76591e-01
4.67688e-02,4.94615e-01
4.76044e-02,4.17804e-01
4.84549e-02,3.45836e-01
4.93207e-02,2.78408e-01
5.02019e-02,2.15235e-01
5.10988e-02,1.56050e-01
5.20118e-02,1.00603e-01
5.29410e-02,4.86598e-02
5.38869e-02,0.00000e+00
