m1=6525.105, m2=5.658, gsp=2.208, rhosp=8058.658
fGW[Hz],dPh[rad]
7.39544e-03,1.01696e+04
7.56506e-03,9.65724e+03
7.73857e-03,9.17019e+03
7.91605e-03,8.70721e+03
8.09761e-03,8.26712e+03
8.28333e-03,7.84880e+03
8.47332e-03,7.45119e+03
8.66766e-03,7.07328e+03
8.86645e-03,6.71410e+03
9.06981e-03,6.37274e+03
9.27783e-03,6.04832e+03
9.49062e-03,5.74001e+03
9.70829e-03,5.44703e+03
9.93096e-03,5.16862e+03
1.01587e-02,4.90408e+03
1.03917e-02,4.65271e+03
1.06301e-02,4.41387e+03
1.08739e-02,4.18696e+03
1.11233e-02,3.97138e+03
1.13784e-02,3.76658e+03
1.16393e-02,3.57203e+03
1.19063e-02,3.38722e+03
1.21794e-02,3.21168e+03
1.24587e-02,3.04495e+03
1.27445e-02,2.88660e+03
1.30368e-02,2.73621e+03
1.33358e-02,2.59339e+03
1.36416e-02,2.45777e+03
1.39545e-02,2.32900e+03
1.42746e-02,2.20674e+03
1.46020e-02,2.09066e+03
1.49369e-02,1.98046e+03
1.52794e-02,1.87585e+03
1.56299e-02,1.77656e+03
1.59884e-02,1.68232e+03
1.63551e-02,1.59287e+03
1.67302e-02,1.50799e+03
1.71139e-02,1.42745e+03
1.75064e-02,1.35103e+03
1.79079e-02,1.27853e+03
1.83186e-02,1.20975e+03
1.87388e-02,1.14450e+03
1.91686e-02,1.08262e+03
1.96082e-02,1.02393e+03
2.00579e-02,9.68275e+02
2.05180e-02,9.15504e+02
2.09886e-02,8.65472e+02
2.14699e-02,8.18042e+02
2.19624e-02,7.73084e+02
2.24661e-02,7.30474e+02
2.29813e-02,6.90094e+02
2.35084e-02,6.51833e+02
2.40476e-02,6.15582e+02
2.45992e-02,5.81242e+02
2.51633e-02,5.48716e+02
2.57405e-02,5.17912e+02
2.63308e-02,4.88743e+02
2.69348e-02,4.61127e+02
2.75525e-02,4.34984e+02
2.81844e-02,4.10240e+02
2.88309e-02,3.86823e+02
2.94921e-02,3.64666e+02
3.01685e-02,3.43705e+02
3.08605e-02,3.23878e+02
3.15683e-02,3.05127e+02
3.22923e-02,2.87397e+02
3.30329e-02,2.70635e+02
3.37906e-02,2.54792e+02
3.45656e-02,2.39820e+02
3.53583e-02,2.25673e+02
3.61693e-02,2.12309e+02
3.69988e-02,1.99687e+02
3.78474e-02,1.87769e+02
3.87155e-02,1.76517e+02
3.96034e-02,1.65897e+02
4.05118e-02,1.55875e+02
4.14409e-02,1.46420e+02
4.23914e-02,1.37502e+02
4.33636e-02,1.29092e+02
4.43582e-02,1.21164e+02
4.53756e-02,1.13691e+02
4.64163e-02,1.06649e+02
4.74809e-02,1.00015e+02
4.85699e-02,9.37666e+01
4.96838e-02,8.78836e+01
5.08234e-02,8.23458e+01
5.19890e-02,7.71343e+01
5.31814e-02,7.22314e+01
5.44012e-02,6.76200e+01
5.56489e-02,6.32841e+01
5.69252e-02,5.92083e+01
5.82308e-02,5.53783e+01
5.95664e-02,5.17802e+01
6.09325e-02,4.84010e+01
6.23300e-02,4.52284e+01
6.37596e-02,4.22507e+01
6.52220e-02,3.94568e+01
6.67179e-02,3.68361e+01
6.82481e-02,3.43788e+01
6.98134e-02,3.20753e+01
7.14146e-02,2.99168e+01
7.30525e-02,2.78948e+01
7.47280e-02,2.60013e+01
7.64419e-02,2.42287e+01
7.81951e-02,2.25698e+01
7.99886e-02,2.10180e+01
8.18231e-02,1.95667e+01
8.36998e-02,1.82099e+01
8.56195e-02,1.69419e+01
8.75832e-02,1.57572e+01
8.95920e-02,1.46509e+01
9.16468e-02,1.36181e+01
9.37488e-02,1.26541e+01
9.58989e-02,1.17548e+01
9.80984e-02,1.09161e+01
1.00348e-01,1.01342e+01
1.02650e-01,9.40542e+00
1.05004e-01,8.72646e+00
1.07413e-01,8.09411e+00
1.09876e-01,7.50537e+00
1.12396e-01,6.95743e+00
1.14974e-01,6.44761e+00
1.17611e-01,5.97344e+00
1.20308e-01,5.53257e+00
1.23068e-01,5.12278e+00
1.25890e-01,4.74203e+00
1.28778e-01,4.38835e+00
1.31731e-01,4.05994e+00
1.34753e-01,3.75508e+00
1.37843e-01,3.47218e+00
1.41005e-01,3.20974e+00
1.44239e-01,2.96635e+00
1.47547e-01,2.74069e+00
1.50931e-01,2.53154e+00
1.54393e-01,2.33775e+00
1.57934e-01,2.15825e+00
1.61556e-01,1.99202e+00
1.65261e-01,1.83813e+00
1.69052e-01,1.69570e+00
1.72929e-01,1.56392e+00
1.76895e-01,1.44202e+00
1.80952e-01,1.32929e+00
1.85103e-01,1.22506e+00
1.89348e-01,1.12873e+00
1.93691e-01,1.03972e+00
1.98133e-01,9.57484e-01
2.02677e-01,8.81531e-01
2.07326e-01,8.11397e-01
2.12081e-01,7.46650e-01
2.16945e-01,6.86891e-01
2.21921e-01,6.31747e-01
2.27011e-01,5.80872e-01
2.32217e-01,5.33947e-01
2.37543e-01,4.90673e-01
2.42992e-01,4.50774e-01
2.48565e-01,4.13995e-01
2.54266e-01,3.80097e-01
2.60097e-01,3.48861e-01
2.66063e-01,3.20084e-01
2.72165e-01,2.93575e-01
2.78407e-01,2.69161e-01
2.84793e-01,2.46680e-01
2.91324e-01,2.25982e-01
2.98006e-01,2.06929e-01
3.04841e-01,1.89393e-01
3.11833e-01,1.73255e-01
3.18985e-01,1.58406e-01
3.26301e-01,1.44745e-01
3.33785e-01,1.32178e-01
3.41440e-01,1.20621e-01
3.49271e-01,1.09992e-01
3.57282e-01,1.00219e-01
3.65476e-01,9.12336e-02
3.73859e-01,8.29734e-02
3.82433e-01,7.53809e-02
3.91205e-01,6.84027e-02
4.00177e-01,6.19899e-02
4.09355e-01,5.60973e-02
4.18744e-01,5.06833e-02
4.28348e-01,4.57094e-02
4.38172e-01,4.11403e-02
4.48222e-01,3.69435e-02
4.58502e-01,3.30889e-02
4.69018e-01,2.95490e-02
4.79775e-01,2.62983e-02
4.90779e-01,2.33135e-02
5.02035e-01,2.05731e-02
5.13550e-01,1.80571e-02
5.25328e-01,1.57474e-02
5.37377e-01,1.36273e-02
5.49702e-01,1.16812e-02
5.62310e-01,9.89512e-03
5.75206e-01,8.25589e-03
5.88399e-01,6.75157e-03
6.01894e-01,5.37113e-03
6.15699e-01,4.10444e-03
6.29820e-01,2.94220e-03
6.44265e-01,1.87584e-03
6.59042e-01,8.97518e-04
6.74157e-01,0.00000e+00
