m1=438174.463, m2=22.874, gsp=2.415, rhosp=15.951
fGW[Hz],dPh[rad]
1.52985e-03,2.15909e+04
1.54438e-03,2.08639e+04
1.55904e-03,2.01611e+04
1.57385e-03,1.94817e+04
1.58880e-03,1.88249e+04
1.60388e-03,1.81899e+04
1.61912e-03,1.75762e+04
1.63449e-03,1.69828e+04
1.65001e-03,1.64093e+04
1.66568e-03,1.58549e+04
1.68150e-03,1.53191e+04
1.69747e-03,1.48011e+04
1.71359e-03,1.43004e+04
1.72986e-03,1.38165e+04
1.74629e-03,1.33488e+04
1.76288e-03,1.28967e+04
1.77962e-03,1.24598e+04
1.79652e-03,1.20375e+04
1.81358e-03,1.16294e+04
1.83080e-03,1.12349e+04
1.84819e-03,1.08537e+04
1.86574e-03,1.04853e+04
1.88346e-03,1.01293e+04
1.90135e-03,9.78517e+03
1.91940e-03,9.45266e+03
1.93763e-03,9.13132e+03
1.95603e-03,8.82080e+03
1.97461e-03,8.52073e+03
1.99336e-03,8.23076e+03
2.01229e-03,7.95055e+03
2.03140e-03,7.67979e+03
2.05069e-03,7.41815e+03
2.07017e-03,7.16534e+03
2.08983e-03,6.92105e+03
2.10967e-03,6.68501e+03
2.12971e-03,6.45693e+03
2.14993e-03,6.23656e+03
2.17035e-03,6.02363e+03
2.19096e-03,5.81790e+03
2.21177e-03,5.61912e+03
2.23277e-03,5.42706e+03
2.25398e-03,5.24150e+03
2.27538e-03,5.06222e+03
2.29699e-03,4.88901e+03
2.31881e-03,4.72166e+03
2.34083e-03,4.55998e+03
2.36306e-03,4.40378e+03
2.38550e-03,4.25288e+03
2.40815e-03,4.10709e+03
2.43102e-03,3.96624e+03
2.45411e-03,3.83017e+03
2.47741e-03,3.69872e+03
2.50094e-03,3.57173e+03
2.52469e-03,3.44906e+03
2.54867e-03,3.33055e+03
2.57287e-03,3.21606e+03
2.59731e-03,3.10547e+03
2.62197e-03,2.99863e+03
2.64687e-03,2.89543e+03
2.67201e-03,2.79573e+03
2.69738e-03,2.69943e+03
2.72300e-03,2.60640e+03
2.74886e-03,2.51654e+03
2.77497e-03,2.42974e+03
2.80132e-03,2.34589e+03
2.82792e-03,2.26490e+03
2.85478e-03,2.18667e+03
2.88189e-03,2.11110e+03
2.90926e-03,2.03811e+03
2.93689e-03,1.96761e+03
2.96478e-03,1.89951e+03
2.99293e-03,1.83374e+03
3.02135e-03,1.77020e+03
3.05005e-03,1.70884e+03
3.07901e-03,1.64957e+03
3.10825e-03,1.59232e+03
3.13777e-03,1.53702e+03
3.16757e-03,1.48362e+03
3.19765e-03,1.43203e+03
3.22802e-03,1.38221e+03
3.25867e-03,1.33410e+03
3.28962e-03,1.28762e+03
3.32086e-03,1.24274e+03
3.35240e-03,1.19938e+03
3.38424e-03,1.15751e+03
3.41637e-03,1.11708e+03
3.44882e-03,1.07802e+03
3.48157e-03,1.04030e+03
3.51463e-03,1.00388e+03
3.54801e-03,9.68694e+02
3.58171e-03,9.34716e+02
3.61572e-03,9.01902e+02
3.65006e-03,8.70210e+02
3.68472e-03,8.39604e+02
3.71971e-03,8.10046e+02
3.75504e-03,7.81501e+02
3.79070e-03,7.53933e+02
3.82670e-03,7.27309e+02
3.86304e-03,7.01598e+02
3.89973e-03,6.76768e+02
3.93676e-03,6.52789e+02
3.97415e-03,6.29632e+02
4.01189e-03,6.07269e+02
4.04999e-03,5.85673e+02
4.08845e-03,5.64817e+02
4.12728e-03,5.44677e+02
4.16647e-03,5.25227e+02
4.20604e-03,5.06445e+02
4.24598e-03,4.88307e+02
4.28631e-03,4.70791e+02
4.32701e-03,4.53877e+02
4.36810e-03,4.37543e+02
4.40959e-03,4.21770e+02
4.45146e-03,4.06538e+02
4.49374e-03,3.91829e+02
4.53641e-03,3.77626e+02
4.57949e-03,3.63910e+02
4.62299e-03,3.50665e+02
4.66689e-03,3.37875e+02
4.71121e-03,3.25525e+02
4.75595e-03,3.13599e+02
4.80112e-03,3.02082e+02
4.84671e-03,2.90962e+02
4.89274e-03,2.80223e+02
4.93920e-03,2.69854e+02
4.98611e-03,2.59841e+02
5.03346e-03,2.50172e+02
5.08126e-03,2.40836e+02
5.12952e-03,2.31821e+02
5.17823e-03,2.23115e+02
5.22741e-03,2.14709e+02
5.27705e-03,2.06592e+02
5.32716e-03,1.98755e+02
5.37775e-03,1.91187e+02
5.42883e-03,1.83879e+02
5.48038e-03,1.76823e+02
5.53243e-03,1.70009e+02
5.58497e-03,1.63430e+02
5.63801e-03,1.57077e+02
5.69155e-03,1.50943e+02
5.74560e-03,1.45020e+02
5.80016e-03,1.39301e+02
5.85525e-03,1.33779e+02
5.91085e-03,1.28447e+02
5.96699e-03,1.23298e+02
6.02365e-03,1.18327e+02
6.08086e-03,1.13527e+02
6.13861e-03,1.08892e+02
6.19690e-03,1.04416e+02
6.25575e-03,1.00095e+02
6.31516e-03,9.59229e+01
6.37513e-03,9.18943e+01
6.43568e-03,8.80045e+01
6.49679e-03,8.42486e+01
6.55849e-03,8.06221e+01
6.62078e-03,7.71206e+01
6.68365e-03,7.37397e+01
6.74713e-03,7.04752e+01
6.81120e-03,6.73233e+01
6.87588e-03,6.42800e+01
6.94118e-03,6.13415e+01
7.00710e-03,5.85044e+01
7.07365e-03,5.57650e+01
7.14082e-03,5.31200e+01
7.20864e-03,5.05662e+01
7.27709e-03,4.81004e+01
7.34620e-03,4.57196e+01
7.41597e-03,4.34209e+01
7.48640e-03,4.12014e+01
7.55749e-03,3.90585e+01
7.62926e-03,3.69894e+01
7.70172e-03,3.49917e+01
7.77486e-03,3.30629e+01
7.84869e-03,3.12006e+01
7.92323e-03,2.94025e+01
7.99847e-03,2.76664e+01
8.07443e-03,2.59902e+01
8.15111e-03,2.43717e+01
8.22852e-03,2.28092e+01
8.30667e-03,2.13005e+01
8.38555e-03,1.98438e+01
8.46519e-03,1.84374e+01
8.54558e-03,1.70795e+01
8.62673e-03,1.57685e+01
8.70866e-03,1.45027e+01
8.79136e-03,1.32805e+01
8.87485e-03,1.21005e+01
8.95913e-03,1.09613e+01
9.04422e-03,9.86131e+00
9.13011e-03,8.79930e+00
9.21681e-03,7.77394e+00
9.30434e-03,6.78397e+00
9.39270e-03,5.82815e+00
9.48190e-03,4.90532e+00
9.57195e-03,4.01434e+00
9.66285e-03,3.15410e+00
9.75462e-03,2.32356e+00
9.84725e-03,1.52168e+00
9.94077e-03,7.47480e-01
1.00352e-02,0.00000e+00
