m1=311200.509, m2=7.498, gsp=2.087, rhosp=73.338
fGW[Hz],dPh[rad]
2.53194e-03,1.08031e+02
2.55391e-03,1.04458e+02
2.57607e-03,1.01003e+02
2.59843e-03,9.76604e+01
2.62097e-03,9.44282e+01
2.64371e-03,9.13023e+01
2.66665e-03,8.82791e+01
2.68979e-03,8.53555e+01
2.71313e-03,8.25280e+01
2.73667e-03,7.97936e+01
2.76042e-03,7.71492e+01
2.78437e-03,7.45919e+01
2.80853e-03,7.21188e+01
2.83290e-03,6.97272e+01
2.85748e-03,6.74143e+01
2.88228e-03,6.51778e+01
2.90729e-03,6.30149e+01
2.93251e-03,6.09234e+01
2.95796e-03,5.89008e+01
2.98362e-03,5.69450e+01
3.00951e-03,5.50537e+01
3.03563e-03,5.32248e+01
3.06197e-03,5.14563e+01
3.08854e-03,4.97461e+01
3.11534e-03,4.80925e+01
3.14237e-03,4.64934e+01
3.16963e-03,4.49472e+01
3.19714e-03,4.34520e+01
3.22488e-03,4.20063e+01
3.25286e-03,4.06083e+01
3.28109e-03,3.92566e+01
3.30956e-03,3.79495e+01
3.33827e-03,3.66857e+01
3.36724e-03,3.54636e+01
3.39646e-03,3.42820e+01
3.42593e-03,3.31395e+01
3.45565e-03,3.20348e+01
3.48564e-03,3.09667e+01
3.51588e-03,2.99339e+01
3.54639e-03,2.89353e+01
3.57716e-03,2.79698e+01
3.60820e-03,2.70362e+01
3.63951e-03,2.61336e+01
3.67109e-03,2.52608e+01
3.70294e-03,2.44170e+01
3.73507e-03,2.36012e+01
3.76748e-03,2.28124e+01
3.80017e-03,2.20497e+01
3.83315e-03,2.13123e+01
3.86641e-03,2.05994e+01
3.89996e-03,1.99101e+01
3.93380e-03,1.92437e+01
3.96793e-03,1.85993e+01
4.00236e-03,1.79764e+01
4.03709e-03,1.73741e+01
4.07212e-03,1.67918e+01
4.10745e-03,1.62288e+01
4.14309e-03,1.56845e+01
4.17904e-03,1.51583e+01
4.21530e-03,1.46496e+01
4.25188e-03,1.41577e+01
4.28877e-03,1.36822e+01
4.32599e-03,1.32224e+01
4.36352e-03,1.27780e+01
4.40139e-03,1.23483e+01
4.43958e-03,1.19328e+01
4.47810e-03,1.15312e+01
4.51696e-03,1.11429e+01
4.55615e-03,1.07676e+01
4.59568e-03,1.04047e+01
4.63556e-03,1.00538e+01
4.67578e-03,9.71466e+00
4.71635e-03,9.38677e+00
4.75728e-03,9.06977e+00
4.79856e-03,8.76332e+00
4.84019e-03,8.46706e+00
4.88219e-03,8.18065e+00
4.92456e-03,7.90377e+00
4.96729e-03,7.63610e+00
5.01039e-03,7.37733e+00
5.05386e-03,7.12717e+00
5.09771e-03,6.88534e+00
5.14195e-03,6.65155e+00
5.18656e-03,6.42555e+00
5.23157e-03,6.20706e+00
5.27696e-03,5.99585e+00
5.32275e-03,5.79167e+00
5.36894e-03,5.59429e+00
5.41552e-03,5.40348e+00
5.46251e-03,5.21902e+00
5.50991e-03,5.04071e+00
5.55772e-03,4.86833e+00
5.60595e-03,4.70169e+00
5.65459e-03,4.54061e+00
5.70365e-03,4.38488e+00
5.75314e-03,4.23435e+00
5.80306e-03,4.08883e+00
5.85342e-03,3.94816e+00
5.90421e-03,3.81218e+00
5.95544e-03,3.68073e+00
6.00711e-03,3.55365e+00
6.05924e-03,3.43082e+00
6.11181e-03,3.31207e+00
6.16484e-03,3.19729e+00
6.21834e-03,3.08633e+00
6.27229e-03,2.97907e+00
6.32672e-03,2.87538e+00
6.38162e-03,2.77515e+00
6.43699e-03,2.67827e+00
6.49284e-03,2.58461e+00
6.54918e-03,2.49408e+00
6.60601e-03,2.40656e+00
6.66333e-03,2.32196e+00
6.72115e-03,2.24019e+00
6.77947e-03,2.16114e+00
6.83829e-03,2.08473e+00
6.89763e-03,2.01087e+00
6.95748e-03,1.93947e+00
7.01785e-03,1.87045e+00
7.07874e-03,1.80374e+00
7.14016e-03,1.73925e+00
7.20212e-03,1.67691e+00
7.26461e-03,1.61666e+00
7.32765e-03,1.55841e+00
7.39123e-03,1.50211e+00
7.45536e-03,1.44768e+00
7.52005e-03,1.39507e+00
7.58530e-03,1.34422e+00
7.65112e-03,1.29507e+00
7.71751e-03,1.24755e+00
7.78448e-03,1.20162e+00
7.85202e-03,1.15723e+00
7.92015e-03,1.11432e+00
7.98888e-03,1.07284e+00
8.05820e-03,1.03274e+00
8.12812e-03,9.93982e-01
8.19864e-03,9.56519e-01
8.26978e-03,9.20306e-01
8.34154e-03,8.85303e-01
8.41392e-03,8.51468e-01
8.48693e-03,8.18763e-01
8.56057e-03,7.87151e-01
8.63485e-03,7.56594e-01
8.70977e-03,7.27057e-01
8.78535e-03,6.98507e-01
8.86158e-03,6.70910e-01
8.93847e-03,6.44236e-01
9.01603e-03,6.18452e-01
9.09426e-03,5.93529e-01
9.17317e-03,5.69439e-01
9.25277e-03,5.46153e-01
9.33306e-03,5.23645e-01
9.41404e-03,5.01890e-01
9.49572e-03,4.80861e-01
9.57812e-03,4.60534e-01
9.66123e-03,4.40887e-01
9.74506e-03,4.21896e-01
9.82962e-03,4.03539e-01
9.91491e-03,3.85796e-01
1.00009e-02,3.68646e-01
1.00877e-02,3.52069e-01
1.01752e-02,3.36046e-01
1.02635e-02,3.20558e-01
1.03526e-02,3.05587e-01
1.04424e-02,2.91117e-01
1.05330e-02,2.77131e-01
1.06244e-02,2.63612e-01
1.07166e-02,2.50545e-01
1.08096e-02,2.37914e-01
1.09034e-02,2.25706e-01
1.09980e-02,2.13906e-01
1.10934e-02,2.02500e-01
1.11897e-02,1.91475e-01
1.12868e-02,1.80819e-01
1.13847e-02,1.70519e-01
1.14835e-02,1.60563e-01
1.15832e-02,1.50941e-01
1.16837e-02,1.41639e-01
1.17850e-02,1.32649e-01
1.18873e-02,1.23959e-01
1.19904e-02,1.15560e-01
1.20945e-02,1.07442e-01
1.21994e-02,9.95948e-02
1.23053e-02,9.20102e-02
1.24121e-02,8.46791e-02
1.25198e-02,7.75932e-02
1.26284e-02,7.07442e-02
1.27380e-02,6.41241e-02
1.28485e-02,5.77255e-02
1.29600e-02,5.15408e-02
1.30724e-02,4.55628e-02
1.31859e-02,3.97848e-02
1.33003e-02,3.42000e-02
1.34157e-02,2.88019e-02
1.35321e-02,2.35844e-02
1.36495e-02,1.85413e-02
1.37679e-02,1.36668e-02
1.38874e-02,8.95543e-03
1.40079e-02,4.40157e-03
1.41295e-02,0.00000e+00
