m1=991253.886, m2=92.226, gsp=2.168, rhosp=17.251
fGW[Hz],dPh[rad]
7.39519e-04,1.59551e+02
7.46206e-04,1.54266e+02
7.52955e-04,1.49154e+02
7.59764e-04,1.44208e+02
7.66634e-04,1.39423e+02
7.73567e-04,1.34795e+02
7.80563e-04,1.30318e+02
7.87622e-04,1.25987e+02
7.94744e-04,1.21798e+02
8.01931e-04,1.17747e+02
8.09183e-04,1.13827e+02
8.16501e-04,1.10037e+02
8.23885e-04,1.06371e+02
8.31336e-04,1.02825e+02
8.38854e-04,9.93952e+01
8.46439e-04,9.60785e+01
8.54094e-04,9.28708e+01
8.61818e-04,8.97687e+01
8.69611e-04,8.67688e+01
8.77476e-04,8.38676e+01
8.85411e-04,8.10622e+01
8.93418e-04,7.83492e+01
9.01497e-04,7.57258e+01
9.09650e-04,7.31890e+01
9.17876e-04,7.07361e+01
9.26176e-04,6.83642e+01
9.34552e-04,6.60708e+01
9.43003e-04,6.38533e+01
9.51531e-04,6.17093e+01
9.60136e-04,5.96362e+01
9.68819e-04,5.76319e+01
9.77580e-04,5.56941e+01
9.86421e-04,5.38205e+01
9.95341e-04,5.20092e+01
1.00434e-03,5.02580e+01
1.01342e-03,4.85650e+01
1.02259e-03,4.69283e+01
1.03184e-03,4.53461e+01
1.04117e-03,4.38165e+01
1.05058e-03,4.23378e+01
1.06008e-03,4.09084e+01
1.06967e-03,3.95266e+01
1.07934e-03,3.81908e+01
1.08911e-03,3.68997e+01
1.09895e-03,3.56516e+01
1.10889e-03,3.44452e+01
1.11892e-03,3.32790e+01
1.12904e-03,3.21518e+01
1.13925e-03,3.10623e+01
1.14955e-03,3.00093e+01
1.15995e-03,2.89914e+01
1.17044e-03,2.80076e+01
1.18102e-03,2.70568e+01
1.19170e-03,2.61378e+01
1.20248e-03,2.52495e+01
1.21335e-03,2.43911e+01
1.22433e-03,2.35614e+01
1.23540e-03,2.27596e+01
1.24657e-03,2.19846e+01
1.25784e-03,2.12357e+01
1.26922e-03,2.05119e+01
1.28070e-03,1.98124e+01
1.29228e-03,1.91365e+01
1.30396e-03,1.84832e+01
1.31576e-03,1.78519e+01
1.32765e-03,1.72418e+01
1.33966e-03,1.66523e+01
1.35178e-03,1.60826e+01
1.36400e-03,1.55321e+01
1.37634e-03,1.50001e+01
1.38878e-03,1.44860e+01
1.40134e-03,1.39893e+01
1.41401e-03,1.35093e+01
1.42680e-03,1.30455e+01
1.43970e-03,1.25973e+01
1.45272e-03,1.21642e+01
1.46586e-03,1.17458e+01
1.47912e-03,1.13414e+01
1.49249e-03,1.09508e+01
1.50599e-03,1.05733e+01
1.51961e-03,1.02086e+01
1.53335e-03,9.85615e+00
1.54722e-03,9.51565e+00
1.56121e-03,9.18667e+00
1.57533e-03,8.86881e+00
1.58957e-03,8.56170e+00
1.60395e-03,8.26497e+00
1.61845e-03,7.97829e+00
1.63309e-03,7.70132e+00
1.64786e-03,7.43371e+00
1.66276e-03,7.17518e+00
1.67780e-03,6.92539e+00
1.69297e-03,6.68407e+00
1.70828e-03,6.45093e+00
1.72373e-03,6.22569e+00
1.73932e-03,6.00808e+00
1.75505e-03,5.79785e+00
1.77092e-03,5.59475e+00
1.78693e-03,5.39855e+00
1.80309e-03,5.20899e+00
1.81940e-03,5.02587e+00
1.83585e-03,4.84897e+00
1.85245e-03,4.67807e+00
1.86920e-03,4.51297e+00
1.88611e-03,4.35348e+00
1.90316e-03,4.19941e+00
1.92038e-03,4.05057e+00
1.93774e-03,3.90679e+00
1.95527e-03,3.76790e+00
1.97295e-03,3.63373e+00
1.99079e-03,3.50412e+00
2.00879e-03,3.37891e+00
2.02696e-03,3.25797e+00
2.04529e-03,3.14113e+00
2.06378e-03,3.02828e+00
2.08245e-03,2.91926e+00
2.10128e-03,2.81395e+00
2.12028e-03,2.71223e+00
2.13946e-03,2.61397e+00
2.15880e-03,2.51905e+00
2.17833e-03,2.42737e+00
2.19803e-03,2.33881e+00
2.21790e-03,2.25327e+00
2.23796e-03,2.17064e+00
2.25820e-03,2.09082e+00
2.27862e-03,2.01373e+00
2.29923e-03,1.93926e+00
2.32002e-03,1.86733e+00
2.34100e-03,1.79786e+00
2.36217e-03,1.73075e+00
2.38353e-03,1.66593e+00
2.40509e-03,1.60332e+00
2.42684e-03,1.54285e+00
2.44878e-03,1.48444e+00
2.47093e-03,1.42802e+00
2.49327e-03,1.37353e+00
2.51582e-03,1.32089e+00
2.53857e-03,1.27006e+00
2.56153e-03,1.22095e+00
2.58469e-03,1.17353e+00
2.60807e-03,1.12772e+00
2.63165e-03,1.08348e+00
2.65545e-03,1.04075e+00
2.67946e-03,9.99475e-01
2.70370e-03,9.59612e-01
2.72815e-03,9.21111e-01
2.75282e-03,8.83925e-01
2.77771e-03,8.48010e-01
2.80283e-03,8.13322e-01
2.82818e-03,7.79819e-01
2.85375e-03,7.47462e-01
2.87956e-03,7.16210e-01
2.90560e-03,6.86026e-01
2.93188e-03,6.56875e-01
2.95839e-03,6.28720e-01
2.98515e-03,6.01527e-01
3.01214e-03,5.75265e-01
3.03938e-03,5.49901e-01
3.06687e-03,5.25404e-01
3.09460e-03,5.01745e-01
3.12259e-03,4.78895e-01
3.15082e-03,4.56827e-01
3.17932e-03,4.35514e-01
3.20807e-03,4.14930e-01
3.23708e-03,3.95050e-01
3.26635e-03,3.75851e-01
3.29589e-03,3.57309e-01
3.32570e-03,3.39402e-01
3.35577e-03,3.22107e-01
3.38612e-03,3.05404e-01
3.41674e-03,2.89273e-01
3.44764e-03,2.73695e-01
3.47882e-03,2.58650e-01
3.51028e-03,2.44120e-01
3.54202e-03,2.30087e-01
3.57405e-03,2.16535e-01
3.60638e-03,2.03447e-01
3.63899e-03,1.90808e-01
3.67190e-03,1.78601e-01
3.70510e-03,1.66813e-01
3.73861e-03,1.55428e-01
3.77242e-03,1.44433e-01
3.80653e-03,1.33815e-01
3.84096e-03,1.23561e-01
3.87569e-03,1.13658e-01
3.91074e-03,1.04095e-01
3.94611e-03,9.48588e-02
3.98179e-03,8.59395e-02
4.01780e-03,7.73259e-02
4.05413e-03,6.90075e-02
4.09080e-03,6.09742e-02
4.12779e-03,5.32163e-02
4.16512e-03,4.57243e-02
4.20279e-03,3.84892e-02
4.24079e-03,3.15021e-02
4.27914e-03,2.47546e-02
4.31784e-03,1.82384e-02
4.35689e-03,1.19456e-02
4.39629e-03,5.86860e-03
4.43604e-03,0.00000e+00
