m1=244301.206, m2=4.798, gsp=2.159, rhosp=787.293
fGW[Hz],dPh[rad]
3.17995e-03,8.69103e+02
3.20777e-03,8.40417e+02
3.23584e-03,8.12672e+02
3.26415e-03,7.85837e+02
3.29270e-03,7.59884e+02
3.32151e-03,7.34782e+02
3.35057e-03,7.10505e+02
3.37988e-03,6.87025e+02
3.40945e-03,6.64317e+02
3.43928e-03,6.42355e+02
3.46937e-03,6.21114e+02
3.49972e-03,6.00572e+02
3.53034e-03,5.80706e+02
3.56123e-03,5.61493e+02
3.59238e-03,5.42912e+02
3.62381e-03,5.24942e+02
3.65552e-03,5.07563e+02
3.68750e-03,4.90757e+02
3.71976e-03,4.74503e+02
3.75230e-03,4.58785e+02
3.78513e-03,4.43585e+02
3.81824e-03,4.28885e+02
3.85165e-03,4.14669e+02
3.88535e-03,4.00922e+02
3.91934e-03,3.87628e+02
3.95363e-03,3.74772e+02
3.98822e-03,3.62339e+02
4.02311e-03,3.50317e+02
4.05831e-03,3.38691e+02
4.09381e-03,3.27448e+02
4.12963e-03,3.16577e+02
4.16576e-03,3.06064e+02
4.20220e-03,2.95898e+02
4.23896e-03,2.86067e+02
4.27605e-03,2.76561e+02
4.31346e-03,2.67368e+02
4.35120e-03,2.58480e+02
4.38927e-03,2.49884e+02
4.42767e-03,2.41573e+02
4.46640e-03,2.33536e+02
4.50548e-03,2.25764e+02
4.54490e-03,2.18250e+02
4.58466e-03,2.10983e+02
4.62477e-03,2.03957e+02
4.66523e-03,1.97163e+02
4.70604e-03,1.90593e+02
4.74722e-03,1.84241e+02
4.78875e-03,1.78099e+02
4.83064e-03,1.72160e+02
4.87291e-03,1.66417e+02
4.91554e-03,1.60864e+02
4.95854e-03,1.55495e+02
5.00192e-03,1.50304e+02
5.04568e-03,1.45284e+02
5.08983e-03,1.40430e+02
5.13436e-03,1.35737e+02
5.17928e-03,1.31200e+02
5.22459e-03,1.26812e+02
5.27030e-03,1.22570e+02
5.31640e-03,1.18468e+02
5.36292e-03,1.14502e+02
5.40984e-03,1.10668e+02
5.45716e-03,1.06960e+02
5.50491e-03,1.03375e+02
5.55307e-03,9.99092e+01
5.60165e-03,9.65580e+01
5.65066e-03,9.33178e+01
5.70010e-03,9.01850e+01
5.74996e-03,8.71560e+01
5.80027e-03,8.42273e+01
5.85101e-03,8.13957e+01
5.90220e-03,7.86580e+01
5.95384e-03,7.60111e+01
6.00593e-03,7.34518e+01
6.05847e-03,7.09775e+01
6.11148e-03,6.85852e+01
6.16494e-03,6.62722e+01
6.21888e-03,6.40359e+01
6.27329e-03,6.18738e+01
6.32817e-03,5.97834e+01
6.38353e-03,5.77623e+01
6.43938e-03,5.58083e+01
6.49572e-03,5.39191e+01
6.55255e-03,5.20926e+01
6.60988e-03,5.03267e+01
6.66770e-03,4.86194e+01
6.72604e-03,4.69687e+01
6.78488e-03,4.53729e+01
6.84424e-03,4.38300e+01
6.90412e-03,4.23383e+01
6.96452e-03,4.08961e+01
7.02545e-03,3.95018e+01
7.08692e-03,3.81538e+01
7.14892e-03,3.68506e+01
7.21146e-03,3.55906e+01
7.27455e-03,3.43724e+01
7.33820e-03,3.31947e+01
7.40240e-03,3.20562e+01
7.46716e-03,3.09554e+01
7.53249e-03,2.98912e+01
7.59839e-03,2.88623e+01
7.66486e-03,2.78677e+01
7.73192e-03,2.69060e+01
7.79957e-03,2.59763e+01
7.86780e-03,2.50775e+01
7.93664e-03,2.42086e+01
8.00607e-03,2.33685e+01
8.07611e-03,2.25563e+01
8.14677e-03,2.17712e+01
8.21804e-03,2.10121e+01
8.28994e-03,2.02782e+01
8.36247e-03,1.95688e+01
8.43563e-03,1.88829e+01
8.50943e-03,1.82198e+01
8.58388e-03,1.75788e+01
8.65898e-03,1.69590e+01
8.73473e-03,1.63599e+01
8.81115e-03,1.57807e+01
8.88824e-03,1.52207e+01
8.96600e-03,1.46794e+01
9.04444e-03,1.41561e+01
9.12357e-03,1.36501e+01
9.20338e-03,1.31610e+01
9.28390e-03,1.26881e+01
9.36513e-03,1.22310e+01
9.44706e-03,1.17891e+01
9.52971e-03,1.13619e+01
9.61308e-03,1.09488e+01
9.69718e-03,1.05496e+01
9.78202e-03,1.01636e+01
9.86760e-03,9.79039e+00
9.95393e-03,9.42964e+00
1.00410e-02,9.08089e+00
1.01289e-02,8.74374e+00
1.02175e-02,8.41781e+00
1.03069e-02,8.10272e+00
1.03970e-02,7.79812e+00
1.04880e-02,7.50364e+00
1.05798e-02,7.21897e+00
1.06723e-02,6.94377e+00
1.07657e-02,6.67772e+00
1.08599e-02,6.42053e+00
1.09549e-02,6.17189e+00
1.10507e-02,5.93153e+00
1.11474e-02,5.69917e+00
1.12449e-02,5.47454e+00
1.13433e-02,5.25739e+00
1.14425e-02,5.04746e+00
1.15427e-02,4.84452e+00
1.16436e-02,4.64834e+00
1.17455e-02,4.45868e+00
1.18483e-02,4.27534e+00
1.19519e-02,4.09810e+00
1.20565e-02,3.92676e+00
1.21620e-02,3.76112e+00
1.22684e-02,3.60100e+00
1.23757e-02,3.44621e+00
1.24840e-02,3.29657e+00
1.25932e-02,3.15191e+00
1.27034e-02,3.01207e+00
1.28145e-02,2.87688e+00
1.29266e-02,2.74620e+00
1.30397e-02,2.61986e+00
1.31538e-02,2.49773e+00
1.32689e-02,2.37967e+00
1.33850e-02,2.26554e+00
1.35021e-02,2.15521e+00
1.36202e-02,2.04856e+00
1.37393e-02,1.94545e+00
1.38595e-02,1.84578e+00
1.39808e-02,1.74943e+00
1.41031e-02,1.65628e+00
1.42265e-02,1.56624e+00
1.43510e-02,1.47920e+00
1.44765e-02,1.39505e+00
1.46032e-02,1.31371e+00
1.47309e-02,1.23508e+00
1.48598e-02,1.15906e+00
1.49898e-02,1.08558e+00
1.51209e-02,1.01455e+00
1.52532e-02,9.45878e-01
1.53867e-02,8.79496e-01
1.55213e-02,8.15325e-01
1.56571e-02,7.53292e-01
1.57941e-02,6.93325e-01
1.59323e-02,6.35355e-01
1.60716e-02,5.79316e-01
1.62122e-02,5.25144e-01
1.63541e-02,4.72777e-01
1.64972e-02,4.22154e-01
1.66415e-02,3.73218e-01
1.67871e-02,3.25911e-01
1.69339e-02,2.80181e-01
1.70821e-02,2.35974e-01
1.72315e-02,1.93240e-01
1.73823e-02,1.51930e-01
1.75344e-02,1.11996e-01
1.76878e-02,7.33918e-02
1.78425e-02,3.60742e-02
1.79986e-02,0.00000e+00
