m1=847011.200, m2=11.682, gsp=2.468, rhosp=1077.321
fGW[Hz],dPh[rad]
1.66923e-03,4.16429e+04
1.67878e-03,4.07657e+04
1.68838e-03,3.99067e+04
1.69803e-03,3.90655e+04
1.70774e-03,3.82417e+04
1.71751e-03,3.74350e+04
1.72733e-03,3.66449e+04
1.73720e-03,3.58713e+04
1.74714e-03,3.51137e+04
1.75713e-03,3.43718e+04
1.76717e-03,3.36452e+04
1.77728e-03,3.29337e+04
1.78744e-03,3.22370e+04
1.79766e-03,3.15546e+04
1.80794e-03,3.08865e+04
1.81828e-03,3.02321e+04
1.82867e-03,2.95914e+04
1.83913e-03,2.89639e+04
1.84964e-03,2.83494e+04
1.86022e-03,2.77476e+04
1.87086e-03,2.71584e+04
1.88155e-03,2.65813e+04
1.89231e-03,2.60162e+04
1.90313e-03,2.54628e+04
1.91401e-03,2.49209e+04
1.92496e-03,2.43902e+04
1.93597e-03,2.38706e+04
1.94703e-03,2.33617e+04
1.95817e-03,2.28633e+04
1.96936e-03,2.23753e+04
1.98062e-03,2.18974e+04
1.99195e-03,2.14294e+04
2.00334e-03,2.09711e+04
2.01479e-03,2.05223e+04
2.02631e-03,2.00829e+04
2.03790e-03,1.96525e+04
2.04955e-03,1.92311e+04
2.06127e-03,1.88184e+04
2.07306e-03,1.84142e+04
2.08491e-03,1.80185e+04
2.09683e-03,1.76309e+04
2.10882e-03,1.72514e+04
2.12088e-03,1.68798e+04
2.13301e-03,1.65158e+04
2.14520e-03,1.61595e+04
2.15747e-03,1.58105e+04
2.16981e-03,1.54687e+04
2.18221e-03,1.51341e+04
2.19469e-03,1.48064e+04
2.20724e-03,1.44854e+04
2.21986e-03,1.41712e+04
2.23255e-03,1.38634e+04
2.24532e-03,1.35621e+04
2.25816e-03,1.32670e+04
2.27107e-03,1.29780e+04
2.28405e-03,1.26950e+04
2.29711e-03,1.24179e+04
2.31025e-03,1.21466e+04
2.32346e-03,1.18808e+04
2.33674e-03,1.16206e+04
2.35010e-03,1.13658e+04
2.36354e-03,1.11163e+04
2.37706e-03,1.08719e+04
2.39065e-03,1.06327e+04
2.40432e-03,1.03983e+04
2.41807e-03,1.01689e+04
2.43189e-03,9.94422e+03
2.44580e-03,9.72419e+03
2.45978e-03,9.50874e+03
2.47385e-03,9.29776e+03
2.48799e-03,9.09115e+03
2.50222e-03,8.88884e+03
2.51653e-03,8.69073e+03
2.53091e-03,8.49672e+03
2.54539e-03,8.30675e+03
2.55994e-03,8.12072e+03
2.57458e-03,7.93855e+03
2.58930e-03,7.76016e+03
2.60410e-03,7.58548e+03
2.61899e-03,7.41442e+03
2.63397e-03,7.24691e+03
2.64903e-03,7.08289e+03
2.66418e-03,6.92226e+03
2.67941e-03,6.76498e+03
2.69473e-03,6.61096e+03
2.71014e-03,6.46013e+03
2.72563e-03,6.31244e+03
2.74122e-03,6.16782e+03
2.75689e-03,6.02619e+03
2.77266e-03,5.88751e+03
2.78851e-03,5.75171e+03
2.80445e-03,5.61873e+03
2.82049e-03,5.48851e+03
2.83662e-03,5.36099e+03
2.85284e-03,5.23613e+03
2.86915e-03,5.11385e+03
2.88555e-03,4.99412e+03
2.90205e-03,4.87687e+03
2.91865e-03,4.76206e+03
2.93534e-03,4.64963e+03
2.95212e-03,4.53954e+03
2.96900e-03,4.43173e+03
2.98598e-03,4.32616e+03
3.00305e-03,4.22279e+03
3.02022e-03,4.12156e+03
3.03749e-03,4.02243e+03
3.05486e-03,3.92537e+03
3.07232e-03,3.83032e+03
3.08989e-03,3.73724e+03
3.10756e-03,3.64610e+03
3.12533e-03,3.55685e+03
3.14320e-03,3.46946e+03
3.16117e-03,3.38388e+03
3.17925e-03,3.30007e+03
3.19742e-03,3.21801e+03
3.21571e-03,3.13766e+03
3.23409e-03,3.05897e+03
3.25259e-03,2.98192e+03
3.27118e-03,2.90647e+03
3.28989e-03,2.83258e+03
3.30870e-03,2.76024e+03
3.32762e-03,2.68939e+03
3.34664e-03,2.62002e+03
3.36578e-03,2.55208e+03
3.38503e-03,2.48556e+03
3.40438e-03,2.42042e+03
3.42385e-03,2.35664e+03
3.44342e-03,2.29418e+03
3.46311e-03,2.23302e+03
3.48291e-03,2.17313e+03
3.50283e-03,2.11448e+03
3.52286e-03,2.05705e+03
3.54300e-03,2.00082e+03
3.56326e-03,1.94575e+03
3.58363e-03,1.89183e+03
3.60412e-03,1.83902e+03
3.62473e-03,1.78732e+03
3.64546e-03,1.73669e+03
3.66630e-03,1.68711e+03
3.68727e-03,1.63856e+03
3.70835e-03,1.59103e+03
3.72955e-03,1.54448e+03
3.75088e-03,1.49889e+03
3.77232e-03,1.45426e+03
3.79389e-03,1.41055e+03
3.81559e-03,1.36775e+03
3.83740e-03,1.32584e+03
3.85935e-03,1.28480e+03
3.88141e-03,1.24461e+03
3.90361e-03,1.20526e+03
3.92593e-03,1.16672e+03
3.94838e-03,1.12899e+03
3.97095e-03,1.09204e+03
3.99366e-03,1.05586e+03
4.01649e-03,1.02043e+03
4.03946e-03,9.85741e+02
4.06256e-03,9.51770e+02
4.08578e-03,9.18505e+02
4.10915e-03,8.85931e+02
4.13264e-03,8.54035e+02
4.15627e-03,8.22801e+02
4.18004e-03,7.92216e+02
4.20394e-03,7.62268e+02
4.22798e-03,7.32941e+02
4.25215e-03,7.04225e+02
4.27646e-03,6.76105e+02
4.30092e-03,6.48570e+02
4.32551e-03,6.21607e+02
4.35024e-03,5.95205e+02
4.37511e-03,5.69351e+02
4.40013e-03,5.44035e+02
4.42529e-03,5.19245e+02
4.45059e-03,4.94971e+02
4.47604e-03,4.71201e+02
4.50163e-03,4.47925e+02
4.52737e-03,4.25133e+02
4.55326e-03,4.02815e+02
4.57930e-03,3.80961e+02
4.60548e-03,3.59561e+02
4.63181e-03,3.38606e+02
4.65830e-03,3.18087e+02
4.68493e-03,2.97994e+02
4.71172e-03,2.78319e+02
4.73866e-03,2.59053e+02
4.76576e-03,2.40188e+02
4.79301e-03,2.21714e+02
4.82041e-03,2.03625e+02
4.84798e-03,1.85912e+02
4.87570e-03,1.68567e+02
4.90357e-03,1.51583e+02
4.93161e-03,1.34952e+02
4.95981e-03,1.18667e+02
4.98817e-03,1.02720e+02
5.01669e-03,8.71047e+01
5.04538e-03,7.18141e+01
5.07423e-03,5.68415e+01
5.10324e-03,4.21802e+01
5.13242e-03,2.78237e+01
5.16177e-03,1.37657e+01
5.19128e-03,0.00000e+00
