m1=14947.488, m2=28.487, gsp=2.457, rhosp=1331.658
fGW[Hz],dPh[rad]
3.27928e-03,1.50797e+05
3.35424e-03,1.43845e+05
3.43091e-03,1.37209e+05
3.50933e-03,1.30874e+05
3.58955e-03,1.24826e+05
3.67160e-03,1.19052e+05
3.75552e-03,1.13541e+05
3.84137e-03,1.08279e+05
3.92917e-03,1.03257e+05
4.01898e-03,9.84629e+04
4.11085e-03,9.38868e+04
4.20481e-03,8.95188e+04
4.30092e-03,8.53496e+04
4.39923e-03,8.13702e+04
4.49979e-03,7.75721e+04
4.60264e-03,7.39472e+04
4.70785e-03,7.04876e+04
4.81546e-03,6.71859e+04
4.92553e-03,6.40349e+04
5.03812e-03,6.10280e+04
5.15327e-03,5.81585e+04
5.27107e-03,5.54203e+04
5.39155e-03,5.28075e+04
5.51479e-03,5.03144e+04
5.64084e-03,4.79356e+04
5.76978e-03,4.56660e+04
5.90167e-03,4.35006e+04
6.03656e-03,4.14347e+04
6.17455e-03,3.94639e+04
6.31568e-03,3.75838e+04
6.46004e-03,3.57903e+04
6.60770e-03,3.40795e+04
6.75874e-03,3.24477e+04
6.91323e-03,3.08913e+04
7.07125e-03,2.94069e+04
7.23288e-03,2.79912e+04
7.39821e-03,2.66412e+04
7.56732e-03,2.53538e+04
7.74029e-03,2.41262e+04
7.91721e-03,2.29557e+04
8.09818e-03,2.18397e+04
8.28329e-03,2.07757e+04
8.47262e-03,1.97615e+04
8.66629e-03,1.87946e+04
8.86438e-03,1.78730e+04
9.06700e-03,1.69945e+04
9.27425e-03,1.61573e+04
9.48624e-03,1.53595e+04
9.70307e-03,1.45992e+04
9.92486e-03,1.38748e+04
1.01517e-02,1.31846e+04
1.03838e-02,1.25271e+04
1.06211e-02,1.19007e+04
1.08639e-02,1.13040e+04
1.11122e-02,1.07357e+04
1.13662e-02,1.01945e+04
1.16260e-02,9.67918e+03
1.18918e-02,9.18846e+03
1.21636e-02,8.72127e+03
1.24416e-02,8.27651e+03
1.27260e-02,7.85316e+03
1.30169e-02,7.45023e+03
1.33144e-02,7.06678e+03
1.36188e-02,6.70191e+03
1.39300e-02,6.35476e+03
1.42485e-02,6.02451e+03
1.45741e-02,5.71038e+03
1.49073e-02,5.41162e+03
1.52480e-02,5.12752e+03
1.55966e-02,4.85740e+03
1.59531e-02,4.60060e+03
1.63177e-02,4.35650e+03
1.66907e-02,4.12451e+03
1.70722e-02,3.90407e+03
1.74624e-02,3.69462e+03
1.78616e-02,3.49566e+03
1.82699e-02,3.30669e+03
1.86875e-02,3.12725e+03
1.91146e-02,2.95687e+03
1.95515e-02,2.79513e+03
1.99984e-02,2.64163e+03
2.04555e-02,2.49596e+03
2.09231e-02,2.35776e+03
2.14014e-02,2.22667e+03
2.18906e-02,2.10235e+03
2.23909e-02,1.98447e+03
2.29027e-02,1.87272e+03
2.34262e-02,1.76682e+03
2.39617e-02,1.66646e+03
2.45094e-02,1.57140e+03
2.50696e-02,1.48135e+03
2.56427e-02,1.39609e+03
2.62288e-02,1.31538e+03
2.68283e-02,1.23899e+03
2.74416e-02,1.16671e+03
2.80688e-02,1.09834e+03
2.87104e-02,1.03368e+03
2.93667e-02,9.72540e+02
3.00379e-02,9.14754e+02
3.07245e-02,8.60149e+02
3.14268e-02,8.08564e+02
3.21451e-02,7.59846e+02
3.28799e-02,7.13850e+02
3.36315e-02,6.70435e+02
3.44002e-02,6.29468e+02
3.51865e-02,5.90824e+02
3.59908e-02,5.54382e+02
3.68135e-02,5.20026e+02
3.76549e-02,4.87648e+02
3.85156e-02,4.57142e+02
3.93960e-02,4.28411e+02
4.02965e-02,4.01359e+02
4.12176e-02,3.75897e+02
4.21597e-02,3.51939e+02
4.31234e-02,3.29403e+02
4.41091e-02,3.08212e+02
4.51173e-02,2.88293e+02
4.61486e-02,2.69576e+02
4.72035e-02,2.51993e+02
4.82824e-02,2.35482e+02
4.93860e-02,2.19983e+02
5.05149e-02,2.05439e+02
5.16696e-02,1.91796e+02
5.28506e-02,1.79001e+02
5.40586e-02,1.67007e+02
5.52943e-02,1.55768e+02
5.65582e-02,1.45239e+02
5.78510e-02,1.35379e+02
5.91733e-02,1.26149e+02
6.05259e-02,1.17511e+02
6.19094e-02,1.09431e+02
6.33245e-02,1.01874e+02
6.47719e-02,9.48101e+01
6.62525e-02,8.82083e+01
6.77668e-02,8.20407e+01
6.93158e-02,7.62808e+01
7.09002e-02,7.09034e+01
7.25208e-02,6.58848e+01
7.41785e-02,6.12025e+01
7.58740e-02,5.68355e+01
7.76084e-02,5.27638e+01
7.93823e-02,4.89686e+01
8.11968e-02,4.54324e+01
8.30528e-02,4.21384e+01
8.49512e-02,3.90710e+01
8.68929e-02,3.62156e+01
8.88791e-02,3.35582e+01
9.09107e-02,3.10858e+01
9.29887e-02,2.87863e+01
9.51142e-02,2.66482e+01
9.72883e-02,2.46606e+01
9.95121e-02,2.28136e+01
1.01787e-01,2.10977e+01
1.04113e-01,1.95039e+01
1.06493e-01,1.80240e+01
1.08927e-01,1.66502e+01
1.11417e-01,1.53753e+01
1.13964e-01,1.41923e+01
1.16569e-01,1.30950e+01
1.19233e-01,1.20773e+01
1.21959e-01,1.11338e+01
1.24746e-01,1.02592e+01
1.27598e-01,9.44867e+00
1.30514e-01,8.69768e+00
1.33498e-01,8.00200e+00
1.36549e-01,7.35770e+00
1.39670e-01,6.76111e+00
1.42863e-01,6.20881e+00
1.46128e-01,5.69760e+00
1.49468e-01,5.22452e+00
1.52885e-01,4.78681e+00
1.56380e-01,4.38190e+00
1.59954e-01,4.00740e+00
1.63610e-01,3.66107e+00
1.67350e-01,3.34087e+00
1.71175e-01,3.04485e+00
1.75088e-01,2.77125e+00
1.79090e-01,2.51840e+00
1.83184e-01,2.28476e+00
1.87371e-01,2.06891e+00
1.91654e-01,1.86952e+00
1.96034e-01,1.68536e+00
2.00515e-01,1.51528e+00
2.05098e-01,1.35824e+00
2.09787e-01,1.21325e+00
2.14582e-01,1.07940e+00
2.19487e-01,9.55855e-01
2.24504e-01,8.41831e-01
2.29635e-01,7.36606e-01
2.34884e-01,6.39511e-01
2.40253e-01,5.49929e-01
2.45745e-01,4.67287e-01
2.51362e-01,3.91053e-01
2.57107e-01,3.20738e-01
2.62984e-01,2.55889e-01
2.68995e-01,1.96085e-01
2.75144e-01,1.40940e-01
2.81433e-01,9.00940e-02
2.87866e-01,4.32161e-02
2.94446e-01,0.00000e+00
