m1=8367.562, m2=3.788, gsp=2.088, rhosp=43.092
fGW[Hz],dPh[rad]
8.07744e-03,4.45245e+02
8.24871e-03,4.22945e+02
8.42362e-03,4.01725e+02
8.60223e-03,3.81535e+02
8.78464e-03,3.62325e+02
8.97090e-03,3.44048e+02
9.16112e-03,3.26661e+02
9.35538e-03,3.10122e+02
9.55375e-03,2.94389e+02
9.75632e-03,2.79425e+02
9.96320e-03,2.65193e+02
1.01745e-02,2.51658e+02
1.03902e-02,2.38787e+02
1.06105e-02,2.26549e+02
1.08355e-02,2.14912e+02
1.10652e-02,2.03849e+02
1.12999e-02,1.93332e+02
1.15395e-02,1.83334e+02
1.17842e-02,1.73832e+02
1.20340e-02,1.64801e+02
1.22892e-02,1.56218e+02
1.25498e-02,1.48062e+02
1.28159e-02,1.40313e+02
1.30876e-02,1.32951e+02
1.33651e-02,1.25957e+02
1.36485e-02,1.19314e+02
1.39379e-02,1.13005e+02
1.42335e-02,1.07013e+02
1.45353e-02,1.01323e+02
1.48435e-02,9.59210e+01
1.51582e-02,9.07924e+01
1.54796e-02,8.59242e+01
1.58079e-02,8.13037e+01
1.61431e-02,7.69187e+01
1.64854e-02,7.27579e+01
1.68349e-02,6.88103e+01
1.71919e-02,6.50654e+01
1.75564e-02,6.15133e+01
1.79287e-02,5.81446e+01
1.83088e-02,5.49503e+01
1.86971e-02,5.19217e+01
1.90935e-02,4.90507e+01
1.94984e-02,4.63296e+01
1.99118e-02,4.37508e+01
2.03340e-02,4.13073e+01
2.07652e-02,3.89925e+01
2.12055e-02,3.67998e+01
2.16551e-02,3.47233e+01
2.21143e-02,3.27571e+01
2.25832e-02,3.08956e+01
2.30621e-02,2.91336e+01
2.35511e-02,2.74661e+01
2.40505e-02,2.58883e+01
2.45604e-02,2.43958e+01
2.50812e-02,2.29840e+01
2.56130e-02,2.16490e+01
2.61561e-02,2.03869e+01
2.67107e-02,1.91938e+01
2.72771e-02,1.80663e+01
2.78555e-02,1.70010e+01
2.84461e-02,1.59946e+01
2.90493e-02,1.50442e+01
2.96653e-02,1.41468e+01
3.02943e-02,1.32996e+01
3.09367e-02,1.25000e+01
3.15926e-02,1.17456e+01
3.22625e-02,1.10339e+01
3.29466e-02,1.03626e+01
3.36452e-02,9.72977e+00
3.43586e-02,9.13319e+00
3.50872e-02,8.57097e+00
3.58312e-02,8.04126e+00
3.65909e-02,7.54232e+00
3.73668e-02,7.07247e+00
3.81591e-02,6.63014e+00
3.89682e-02,6.21383e+00
3.97945e-02,5.82211e+00
4.06383e-02,5.45363e+00
4.15000e-02,5.10711e+00
4.23800e-02,4.78133e+00
4.32786e-02,4.47513e+00
4.41963e-02,4.18742e+00
4.51334e-02,3.91715e+00
4.60904e-02,3.66335e+00
4.70677e-02,3.42507e+00
4.80657e-02,3.20144e+00
4.90849e-02,2.99161e+00
5.01257e-02,2.79479e+00
5.11886e-02,2.61022e+00
5.22740e-02,2.43719e+00
5.33824e-02,2.27504e+00
5.45143e-02,2.12311e+00
5.56702e-02,1.98081e+00
5.68507e-02,1.84757e+00
5.80561e-02,1.72284e+00
5.92872e-02,1.60612e+00
6.05443e-02,1.49693e+00
6.18281e-02,1.39480e+00
6.31391e-02,1.29931e+00
6.44779e-02,1.21006e+00
6.58450e-02,1.12666e+00
6.72412e-02,1.04874e+00
6.86670e-02,9.75980e-01
7.01230e-02,9.08046e-01
7.16099e-02,8.44638e-01
7.31283e-02,7.85472e-01
7.46789e-02,7.30279e-01
7.62624e-02,6.78807e-01
7.78795e-02,6.30818e-01
7.95308e-02,5.86088e-01
8.12172e-02,5.44408e-01
8.29393e-02,5.05581e-01
8.46980e-02,4.69419e-01
8.64939e-02,4.35751e-01
8.83279e-02,4.04411e-01
9.02008e-02,3.75245e-01
9.21134e-02,3.48111e-01
9.40666e-02,3.22873e-01
9.60612e-02,2.99405e-01
9.80981e-02,2.77586e-01
1.00178e-01,2.57307e-01
1.02302e-01,2.38463e-01
1.04472e-01,2.20957e-01
1.06687e-01,2.04698e-01
1.08949e-01,1.89599e-01
1.11259e-01,1.75582e-01
1.13618e-01,1.62571e-01
1.16027e-01,1.50498e-01
1.18488e-01,1.39296e-01
1.21000e-01,1.28905e-01
1.23566e-01,1.19269e-01
1.26186e-01,1.10333e-01
1.28861e-01,1.02050e-01
1.31594e-01,9.43725e-02
1.34384e-01,8.72577e-02
1.37234e-01,8.06657e-02
1.40143e-01,7.45591e-02
1.43115e-01,6.89031e-02
1.46150e-01,6.36654e-02
1.49249e-01,5.88160e-02
1.52413e-01,5.43266e-02
1.55645e-01,5.01713e-02
1.58945e-01,4.63258e-02
1.62316e-01,4.27676e-02
1.65757e-01,3.94756e-02
1.69272e-01,3.64304e-02
1.72861e-01,3.36139e-02
1.76527e-01,3.10093e-02
1.80270e-01,2.86009e-02
1.84092e-01,2.63743e-02
1.87996e-01,2.43160e-02
1.91982e-01,2.24135e-02
1.96053e-01,2.06552e-02
2.00210e-01,1.90305e-02
2.04455e-01,1.75292e-02
2.08790e-01,1.61423e-02
2.13217e-01,1.48611e-02
2.17738e-01,1.36776e-02
2.22355e-01,1.25847e-02
2.27070e-01,1.15753e-02
2.31885e-01,1.06433e-02
2.36802e-01,9.78272e-03
2.41823e-01,8.98824e-03
2.46951e-01,8.25481e-03
2.52187e-01,7.57782e-03
2.57534e-01,6.95297e-03
2.62995e-01,6.37628e-03
2.68572e-01,5.84409e-03
2.74266e-01,5.35301e-03
2.80082e-01,4.89988e-03
2.86021e-01,4.48182e-03
2.92086e-01,4.09612e-03
2.98279e-01,3.74032e-03
3.04604e-01,3.41211e-03
3.11062e-01,3.10937e-03
3.17658e-01,2.83015e-03
3.24394e-01,2.57263e-03
3.31272e-01,2.33514e-03
3.38297e-01,2.11614e-03
3.45470e-01,1.91419e-03
3.52795e-01,1.72798e-03
3.60276e-01,1.55629e-03
3.67915e-01,1.39800e-03
3.75716e-01,1.25206e-03
3.83683e-01,1.11753e-03
3.91819e-01,9.93504e-04
4.00127e-01,8.79179e-04
4.08611e-01,7.73798e-04
4.17275e-01,6.76666e-04
4.26123e-01,5.87140e-04
4.35159e-01,5.04627e-04
4.44386e-01,4.28581e-04
4.53808e-01,3.58498e-04
4.63431e-01,2.93913e-04
4.73257e-01,2.34395e-04
4.83292e-01,1.79550e-04
4.93540e-01,1.29012e-04
5.04005e-01,8.24436e-05
5.14692e-01,3.95352e-05
5.25606e-01,0.00000e+00
