m1=253499.946, m2=4.111, gsp=2.400, rhosp=9488.183
fGW[Hz],dPh[rad]
3.33888e-03,7.56118e+04
3.36664e-03,7.33239e+04
3.39463e-03,7.11048e+04
3.42286e-03,6.89526e+04
3.45131e-03,6.68651e+04
3.48001e-03,6.48404e+04
3.50894e-03,6.28767e+04
3.53812e-03,6.09721e+04
3.56753e-03,5.91249e+04
3.59719e-03,5.73333e+04
3.62710e-03,5.55957e+04
3.65726e-03,5.39104e+04
3.68767e-03,5.22759e+04
3.71833e-03,5.06907e+04
3.74924e-03,4.91532e+04
3.78041e-03,4.76621e+04
3.81185e-03,4.62159e+04
3.84354e-03,4.48133e+04
3.87549e-03,4.34531e+04
3.90772e-03,4.21338e+04
3.94021e-03,4.08544e+04
3.97297e-03,3.96135e+04
4.00600e-03,3.84101e+04
4.03930e-03,3.72430e+04
4.07289e-03,3.61111e+04
4.10675e-03,3.50133e+04
4.14090e-03,3.39487e+04
4.17532e-03,3.29163e+04
4.21004e-03,3.19150e+04
4.24504e-03,3.09439e+04
4.28034e-03,3.00022e+04
4.31593e-03,2.90889e+04
4.35181e-03,2.82032e+04
4.38799e-03,2.73443e+04
4.42447e-03,2.65113e+04
4.46126e-03,2.57034e+04
4.49835e-03,2.49200e+04
4.53575e-03,2.41602e+04
4.57346e-03,2.34235e+04
4.61149e-03,2.27089e+04
4.64983e-03,2.20160e+04
4.68849e-03,2.13440e+04
4.72747e-03,2.06924e+04
4.76678e-03,2.00604e+04
4.80641e-03,1.94476e+04
4.84637e-03,1.88533e+04
4.88666e-03,1.82769e+04
4.92729e-03,1.77180e+04
4.96826e-03,1.71760e+04
5.00957e-03,1.66504e+04
5.05122e-03,1.61407e+04
5.09322e-03,1.56465e+04
5.13556e-03,1.51671e+04
5.17826e-03,1.47023e+04
5.22131e-03,1.42516e+04
5.26472e-03,1.38145e+04
5.30850e-03,1.33906e+04
5.35263e-03,1.29796e+04
5.39714e-03,1.25810e+04
5.44201e-03,1.21945e+04
5.48726e-03,1.18196e+04
5.53288e-03,1.14562e+04
5.57888e-03,1.11037e+04
5.62526e-03,1.07619e+04
5.67203e-03,1.04304e+04
5.71919e-03,1.01090e+04
5.76674e-03,9.79738e+03
5.81469e-03,9.49515e+03
5.86303e-03,9.20208e+03
5.91178e-03,8.91789e+03
5.96093e-03,8.64231e+03
6.01049e-03,8.37508e+03
6.06047e-03,8.11595e+03
6.11086e-03,7.86467e+03
6.16166e-03,7.62101e+03
6.21289e-03,7.38473e+03
6.26455e-03,7.15562e+03
6.31663e-03,6.93344e+03
6.36915e-03,6.71801e+03
6.42211e-03,6.50910e+03
6.47550e-03,6.30653e+03
6.52934e-03,6.11010e+03
6.58363e-03,5.91962e+03
6.63836e-03,5.73492e+03
6.69356e-03,5.55583e+03
6.74921e-03,5.38216e+03
6.80532e-03,5.21376e+03
6.86190e-03,5.05047e+03
6.91896e-03,4.89212e+03
6.97648e-03,4.73859e+03
7.03449e-03,4.58971e+03
7.09297e-03,4.44534e+03
7.15195e-03,4.30536e+03
7.21141e-03,4.16962e+03
7.27137e-03,4.03800e+03
7.33182e-03,3.91037e+03
7.39278e-03,3.78662e+03
7.45425e-03,3.66662e+03
7.51622e-03,3.55026e+03
7.57871e-03,3.43743e+03
7.64173e-03,3.32803e+03
7.70526e-03,3.22194e+03
7.76932e-03,3.11908e+03
7.83392e-03,3.01934e+03
7.89905e-03,2.92262e+03
7.96473e-03,2.82884e+03
8.03095e-03,2.73791e+03
8.09772e-03,2.64974e+03
8.16505e-03,2.56424e+03
8.23293e-03,2.48134e+03
8.30138e-03,2.40096e+03
8.37040e-03,2.32301e+03
8.44000e-03,2.24744e+03
8.51017e-03,2.17416e+03
8.58093e-03,2.10310e+03
8.65227e-03,2.03420e+03
8.72421e-03,1.96739e+03
8.79674e-03,1.90261e+03
8.86988e-03,1.83980e+03
8.94363e-03,1.77890e+03
9.01799e-03,1.71984e+03
9.09296e-03,1.66258e+03
9.16857e-03,1.60706e+03
9.24480e-03,1.55322e+03
9.32166e-03,1.50102e+03
9.39916e-03,1.45041e+03
9.47731e-03,1.40133e+03
9.55611e-03,1.35374e+03
9.63556e-03,1.30760e+03
9.71567e-03,1.26286e+03
9.79645e-03,1.21948e+03
9.87790e-03,1.17742e+03
9.96003e-03,1.13663e+03
1.00428e-02,1.09709e+03
1.01263e-02,1.05874e+03
1.02105e-02,1.02156e+03
1.02954e-02,9.85511e+02
1.03810e-02,9.50557e+02
1.04673e-02,9.16664e+02
1.05544e-02,8.83801e+02
1.06421e-02,8.51937e+02
1.07306e-02,8.21041e+02
1.08198e-02,7.91084e+02
1.09098e-02,7.62037e+02
1.10005e-02,7.33873e+02
1.10919e-02,7.06565e+02
1.11842e-02,6.80087e+02
1.12771e-02,6.54413e+02
1.13709e-02,6.29520e+02
1.14654e-02,6.05383e+02
1.15608e-02,5.81980e+02
1.16569e-02,5.59288e+02
1.17538e-02,5.37286e+02
1.18515e-02,5.15952e+02
1.19501e-02,4.95267e+02
1.20494e-02,4.75211e+02
1.21496e-02,4.55764e+02
1.22506e-02,4.36909e+02
1.23525e-02,4.18626e+02
1.24552e-02,4.00900e+02
1.25587e-02,3.83712e+02
1.26632e-02,3.67047e+02
1.27684e-02,3.50888e+02
1.28746e-02,3.35221e+02
1.29816e-02,3.20030e+02
1.30896e-02,3.05300e+02
1.31984e-02,2.91019e+02
1.33081e-02,2.77172e+02
1.34188e-02,2.63745e+02
1.35304e-02,2.50727e+02
1.36428e-02,2.38105e+02
1.37563e-02,2.25866e+02
1.38706e-02,2.14000e+02
1.39860e-02,2.02494e+02
1.41023e-02,1.91339e+02
1.42195e-02,1.80522e+02
1.43377e-02,1.70034e+02
1.44569e-02,1.59866e+02
1.45771e-02,1.50006e+02
1.46983e-02,1.40446e+02
1.48205e-02,1.31177e+02
1.49438e-02,1.22190e+02
1.50680e-02,1.13476e+02
1.51933e-02,1.05028e+02
1.53196e-02,9.68356e+01
1.54470e-02,8.88927e+01
1.55754e-02,8.11914e+01
1.57049e-02,7.37244e+01
1.58355e-02,6.64844e+01
1.59671e-02,5.94646e+01
1.60999e-02,5.26583e+01
1.62338e-02,4.60589e+01
1.63687e-02,3.96603e+01
1.65048e-02,3.34563e+01
1.66420e-02,2.74410e+01
1.67804e-02,2.16087e+01
1.69199e-02,1.59537e+01
1.70606e-02,1.04707e+01
1.72025e-02,5.15451e+00
1.73455e-02,0.00000e+00
