m1=2611.073, m2=4.827, gsp=2.355, rhosp=1436.266
fGW[Hz],dPh[rad]
9.87056e-03,5.53191e+04
1.01288e-02,5.23680e+04
1.03939e-02,4.95732e+04
1.06659e-02,4.69264e+04
1.09450e-02,4.44198e+04
1.12314e-02,4.20460e+04
1.15253e-02,3.97980e+04
1.18268e-02,3.76691e+04
1.21363e-02,3.56531e+04
1.24539e-02,3.37440e+04
1.27798e-02,3.19361e+04
1.31142e-02,3.02242e+04
1.34573e-02,2.86031e+04
1.38095e-02,2.70680e+04
1.41708e-02,2.56144e+04
1.45416e-02,2.42381e+04
1.49222e-02,2.29348e+04
1.53126e-02,2.17007e+04
1.57133e-02,2.05323e+04
1.61245e-02,1.94260e+04
1.65464e-02,1.83785e+04
1.69794e-02,1.73867e+04
1.74237e-02,1.64478e+04
1.78796e-02,1.55588e+04
1.83475e-02,1.47171e+04
1.88276e-02,1.39203e+04
1.93202e-02,1.31660e+04
1.98258e-02,1.24519e+04
2.03446e-02,1.17759e+04
2.08769e-02,1.11360e+04
2.14232e-02,1.05302e+04
2.19838e-02,9.95684e+03
2.25591e-02,9.41409e+03
2.31494e-02,8.90037e+03
2.37551e-02,8.41413e+03
2.43767e-02,7.95393e+03
2.50146e-02,7.51838e+03
2.56691e-02,7.10617e+03
2.63408e-02,6.71608e+03
2.70301e-02,6.34691e+03
2.77374e-02,5.99758e+03
2.84632e-02,5.66702e+03
2.92080e-02,5.35423e+03
2.99723e-02,5.05828e+03
3.07566e-02,4.77828e+03
3.15614e-02,4.51336e+03
3.23873e-02,4.26274e+03
3.32347e-02,4.02565e+03
3.41044e-02,3.80138e+03
3.49968e-02,3.58924e+03
3.59126e-02,3.38858e+03
3.68523e-02,3.19880e+03
3.78166e-02,3.01932e+03
3.88062e-02,2.84959e+03
3.98216e-02,2.68908e+03
4.08636e-02,2.53732e+03
4.19329e-02,2.39382e+03
4.30302e-02,2.25816e+03
4.41562e-02,2.12991e+03
4.53116e-02,2.00867e+03
4.64973e-02,1.89408e+03
4.77140e-02,1.78577e+03
4.89625e-02,1.68341e+03
5.02437e-02,1.58669e+03
5.15585e-02,1.49529e+03
5.29076e-02,1.40894e+03
5.42920e-02,1.32736e+03
5.57127e-02,1.25030e+03
5.71705e-02,1.17752e+03
5.86665e-02,1.10878e+03
6.02017e-02,1.04387e+03
6.17770e-02,9.82581e+02
6.33935e-02,9.24717e+02
6.50523e-02,8.70095e+02
6.67546e-02,8.18539e+02
6.85013e-02,7.69883e+02
7.02938e-02,7.23972e+02
7.21332e-02,6.80655e+02
7.40207e-02,6.39792e+02
7.59576e-02,6.01250e+02
7.79452e-02,5.64903e+02
7.99848e-02,5.30631e+02
8.20778e-02,4.98321e+02
8.42255e-02,4.67866e+02
8.64295e-02,4.39164e+02
8.86911e-02,4.12120e+02
9.10119e-02,3.86642e+02
9.33934e-02,3.62644e+02
9.58372e-02,3.40044e+02
9.83450e-02,3.18766e+02
1.00918e-01,2.98737e+02
1.03559e-01,2.79887e+02
1.06269e-01,2.62150e+02
1.09050e-01,2.45466e+02
1.11903e-01,2.29774e+02
1.14831e-01,2.15020e+02
1.17836e-01,2.01151e+02
1.20920e-01,1.88117e+02
1.24084e-01,1.75872e+02
1.27331e-01,1.64369e+02
1.30663e-01,1.53569e+02
1.34082e-01,1.43429e+02
1.37590e-01,1.33914e+02
1.41191e-01,1.24986e+02
1.44885e-01,1.16613e+02
1.48676e-01,1.08762e+02
1.52567e-01,1.01403e+02
1.56559e-01,9.45076e+01
1.60656e-01,8.80486e+01
1.64860e-01,8.20003e+01
1.69173e-01,7.63387e+01
1.73600e-01,7.10410e+01
1.78143e-01,6.60854e+01
1.82804e-01,6.14517e+01
1.87588e-01,5.71206e+01
1.92496e-01,5.30737e+01
1.97534e-01,4.92940e+01
2.02702e-01,4.57651e+01
2.08007e-01,4.24717e+01
2.13449e-01,3.93994e+01
2.19035e-01,3.65345e+01
2.24766e-01,3.38640e+01
2.30648e-01,3.13759e+01
2.36683e-01,2.90586e+01
2.42877e-01,2.69013e+01
2.49232e-01,2.48939e+01
2.55754e-01,2.30268e+01
2.62446e-01,2.12909e+01
2.69313e-01,1.96776e+01
2.76361e-01,1.81791e+01
2.83592e-01,1.67877e+01
2.91013e-01,1.54964e+01
2.98628e-01,1.42985e+01
3.06442e-01,1.31878e+01
3.14461e-01,1.21584e+01
3.22689e-01,1.12046e+01
3.31133e-01,1.03215e+01
3.39798e-01,9.50413e+00
3.48690e-01,8.74790e+00
3.57814e-01,8.04857e+00
3.67177e-01,7.40216e+00
3.76785e-01,6.80492e+00
3.86644e-01,6.25335e+00
3.96761e-01,5.74419e+00
4.07143e-01,5.27437e+00
4.17797e-01,4.84105e+00
4.28730e-01,4.44156e+00
4.39948e-01,4.07340e+00
4.51461e-01,3.73428e+00
4.63274e-01,3.42202e+00
4.75397e-01,3.13461e+00
4.87836e-01,2.87018e+00
5.00602e-01,2.62700e+00
5.13701e-01,2.40343e+00
5.27143e-01,2.19798e+00
5.40937e-01,2.00926e+00
5.55091e-01,1.83595e+00
5.69617e-01,1.67687e+00
5.84522e-01,1.53089e+00
5.99817e-01,1.39699e+00
6.15513e-01,1.27420e+00
6.31619e-01,1.16164e+00
6.48146e-01,1.05849e+00
6.65107e-01,9.64006e-01
6.82510e-01,8.77473e-01
7.00370e-01,7.98252e-01
7.18696e-01,7.25745e-01
7.37503e-01,6.59403e-01
7.56801e-01,5.98719e-01
7.76604e-01,5.43226e-01
7.96926e-01,4.92493e-01
8.17779e-01,4.46124e-01
8.39178e-01,4.03755e-01
8.61137e-01,3.65050e-01
8.83670e-01,3.29701e-01
9.06793e-01,2.97424e-01
9.30522e-01,2.67958e-01
9.54871e-01,2.41066e-01
9.79857e-01,2.16527e-01
1.00550e+00,1.94140e-01
1.03181e+00,1.73721e-01
1.05881e+00,1.55100e-01
1.08651e+00,1.38122e-01
1.11494e+00,1.22644e-01
1.14412e+00,1.08537e-01
1.17406e+00,9.56819e-02
1.20478e+00,8.39687e-02
1.23630e+00,7.32981e-02
1.26866e+00,6.35787e-02
1.30185e+00,5.47269e-02
1.33592e+00,4.66666e-02
1.37087e+00,3.93279e-02
1.40675e+00,3.26472e-02
1.44356e+00,2.65661e-02
1.48133e+00,2.10316e-02
1.52009e+00,1.59952e-02
1.55987e+00,1.14125e-02
1.60069e+00,7.24307e-03
1.64257e+00,3.45013e-03
1.68555e+00,0.00000e+00
