m1=25620.952, m2=3.644, gsp=2.469, rhosp=63.166
fGW[Hz],dPh[rad]
6.19524e-03,7.92237e+05
6.29952e-03,7.56225e+05
6.40555e-03,7.21730e+05
6.51336e-03,6.88694e+05
6.62299e-03,6.57061e+05
6.73446e-03,6.26777e+05
6.84781e-03,5.97787e+05
6.96307e-03,5.70043e+05
7.08027e-03,5.43495e+05
7.19944e-03,5.18096e+05
7.32062e-03,4.93801e+05
7.44383e-03,4.70565e+05
7.56912e-03,4.48347e+05
7.69652e-03,4.27106e+05
7.82606e-03,4.06802e+05
7.95779e-03,3.87397e+05
8.09173e-03,3.68856e+05
8.22792e-03,3.51143e+05
8.36641e-03,3.34224e+05
8.50723e-03,3.18066e+05
8.65041e-03,3.02639e+05
8.79601e-03,2.87911e+05
8.94406e-03,2.73854e+05
9.09460e-03,2.60440e+05
9.24768e-03,2.47642e+05
9.40333e-03,2.35433e+05
9.56160e-03,2.23789e+05
9.72253e-03,2.12686e+05
9.88618e-03,2.02101e+05
1.00526e-02,1.92010e+05
1.02218e-02,1.82394e+05
1.03938e-02,1.73232e+05
1.05688e-02,1.64503e+05
1.07466e-02,1.56189e+05
1.09275e-02,1.48271e+05
1.11115e-02,1.40732e+05
1.12985e-02,1.33556e+05
1.14886e-02,1.26726e+05
1.16820e-02,1.20226e+05
1.18786e-02,1.14043e+05
1.20786e-02,1.08160e+05
1.22819e-02,1.02566e+05
1.24886e-02,9.72464e+04
1.26988e-02,9.21889e+04
1.29125e-02,8.73815e+04
1.31299e-02,8.28127e+04
1.33509e-02,7.84714e+04
1.35756e-02,7.43470e+04
1.38041e-02,7.04294e+04
1.40364e-02,6.67088e+04
1.42727e-02,6.31760e+04
1.45129e-02,5.98221e+04
1.47572e-02,5.66385e+04
1.50055e-02,5.36171e+04
1.52581e-02,5.07502e+04
1.55149e-02,4.80302e+04
1.57761e-02,4.54502e+04
1.60416e-02,4.30032e+04
1.63116e-02,4.06828e+04
1.65861e-02,3.84828e+04
1.68653e-02,3.63974e+04
1.71492e-02,3.44207e+04
1.74378e-02,3.25475e+04
1.77313e-02,3.07726e+04
1.80298e-02,2.90911e+04
1.83332e-02,2.74984e+04
1.86418e-02,2.59899e+04
1.89556e-02,2.45614e+04
1.92746e-02,2.32089e+04
1.95990e-02,2.19285e+04
1.99289e-02,2.07166e+04
2.02643e-02,1.95695e+04
2.06054e-02,1.84841e+04
2.09522e-02,1.74571e+04
2.13049e-02,1.64855e+04
2.16635e-02,1.55665e+04
2.20281e-02,1.46973e+04
2.23989e-02,1.38753e+04
2.27759e-02,1.30980e+04
2.31592e-02,1.23632e+04
2.35490e-02,1.16685e+04
2.39454e-02,1.10118e+04
2.43484e-02,1.03913e+04
2.47582e-02,9.80480e+03
2.51750e-02,9.25065e+03
2.55987e-02,8.72710e+03
2.60295e-02,8.23251e+03
2.64677e-02,7.76531e+03
2.69131e-02,7.32405e+03
2.73661e-02,6.90733e+03
2.78267e-02,6.51381e+03
2.82951e-02,6.14225e+03
2.87713e-02,5.79146e+03
2.92556e-02,5.46029e+03
2.97480e-02,5.14769e+03
3.02487e-02,4.85265e+03
3.07578e-02,4.57419e+03
3.12755e-02,4.31141e+03
3.18020e-02,4.06345e+03
3.23372e-02,3.82949e+03
3.28815e-02,3.60876e+03
3.34349e-02,3.40053e+03
3.39977e-02,3.20411e+03
3.45699e-02,3.01883e+03
3.51518e-02,2.84409e+03
3.57434e-02,2.67929e+03
3.63451e-02,2.52389e+03
3.69568e-02,2.37734e+03
3.75788e-02,2.23917e+03
3.82113e-02,2.10890e+03
3.88545e-02,1.98608e+03
3.95084e-02,1.87030e+03
4.01734e-02,1.76116e+03
4.08496e-02,1.65829e+03
4.15372e-02,1.56133e+03
4.22363e-02,1.46995e+03
4.29472e-02,1.38383e+03
4.36700e-02,1.30267e+03
4.44051e-02,1.22620e+03
4.51525e-02,1.15414e+03
4.59124e-02,1.08624e+03
4.66852e-02,1.02227e+03
4.74710e-02,9.62008e+02
4.82700e-02,9.05234e+02
4.90824e-02,8.51750e+02
4.99086e-02,8.01370e+02
5.07486e-02,7.53915e+02
5.16028e-02,7.09217e+02
5.24713e-02,6.67118e+02
5.33545e-02,6.27469e+02
5.42525e-02,5.90128e+02
5.51656e-02,5.54962e+02
5.60942e-02,5.21847e+02
5.70383e-02,4.90663e+02
5.79983e-02,4.61300e+02
5.89745e-02,4.33651e+02
5.99671e-02,4.07618e+02
6.09765e-02,3.83107e+02
6.20028e-02,3.60030e+02
6.30464e-02,3.38304e+02
6.41075e-02,3.17850e+02
6.51866e-02,2.98595e+02
6.62837e-02,2.80468e+02
6.73994e-02,2.63404e+02
6.85338e-02,2.47342e+02
6.96873e-02,2.32222e+02
7.08603e-02,2.17991e+02
7.20529e-02,2.04595e+02
7.32657e-02,1.91987e+02
7.44988e-02,1.80121e+02
7.57528e-02,1.68952e+02
7.70278e-02,1.58441e+02
7.83243e-02,1.48548e+02
7.96426e-02,1.39238e+02
8.09831e-02,1.30477e+02
8.23461e-02,1.22232e+02
8.37321e-02,1.14473e+02
8.51414e-02,1.07171e+02
8.65745e-02,1.00301e+02
8.80316e-02,9.38354e+01
8.95133e-02,8.77517e+01
9.10200e-02,8.20273e+01
9.25520e-02,7.66410e+01
9.41097e-02,7.15730e+01
9.56937e-02,6.68044e+01
9.73044e-02,6.23177e+01
9.89422e-02,5.80963e+01
1.00607e-01,5.41246e+01
1.02301e-01,5.03878e+01
1.04023e-01,4.68721e+01
1.05774e-01,4.35645e+01
1.07554e-01,4.04527e+01
1.09364e-01,3.75252e+01
1.11205e-01,3.47711e+01
1.13077e-01,3.21801e+01
1.14980e-01,2.97426e+01
1.16915e-01,2.74495e+01
1.18883e-01,2.52924e+01
1.20884e-01,2.32632e+01
1.22919e-01,2.13543e+01
1.24987e-01,1.95586e+01
1.27091e-01,1.78694e+01
1.29230e-01,1.62804e+01
1.31405e-01,1.47857e+01
1.33617e-01,1.33797e+01
1.35866e-01,1.20571e+01
1.38153e-01,1.08131e+01
1.40478e-01,9.64291e+00
1.42843e-01,8.54222e+00
1.45247e-01,7.50690e+00
1.47692e-01,6.53307e+00
1.50177e-01,5.61709e+00
1.52705e-01,4.75553e+00
1.55275e-01,3.94516e+00
1.57889e-01,3.18295e+00
1.60546e-01,2.46604e+00
1.63249e-01,1.79175e+00
1.65996e-01,1.15754e+00
1.68790e-01,5.61036e-01
1.71631e-01,0.00000e+00
