m1=2292.803, m2=33.409, gsp=2.479, rhosp=2204.046
fGW[Hz],dPh[rad]
4.94371e-03,4.87304e+04
5.09422e-03,4.58707e+04
5.24931e-03,4.31786e+04
5.40912e-03,4.06444e+04
5.57380e-03,3.82589e+04
5.74349e-03,3.60132e+04
5.91834e-03,3.38992e+04
6.09852e-03,3.19091e+04
6.28419e-03,3.00358e+04
6.47551e-03,2.82724e+04
6.67265e-03,2.66123e+04
6.87579e-03,2.50496e+04
7.08512e-03,2.35786e+04
7.30082e-03,2.21938e+04
7.52309e-03,2.08903e+04
7.75213e-03,1.96632e+04
7.98814e-03,1.85081e+04
8.23133e-03,1.74208e+04
8.48193e-03,1.63972e+04
8.74015e-03,1.54337e+04
9.00624e-03,1.45267e+04
9.28043e-03,1.36729e+04
9.56297e-03,1.28692e+04
9.85410e-03,1.21126e+04
1.01541e-02,1.14004e+04
1.04632e-02,1.07300e+04
1.07818e-02,1.00990e+04
1.11100e-02,9.50498e+03
1.14483e-02,8.94582e+03
1.17968e-02,8.41947e+03
1.21559e-02,7.92402e+03
1.25260e-02,7.45764e+03
1.29074e-02,7.01863e+03
1.33003e-02,6.60540e+03
1.37053e-02,6.21642e+03
1.41225e-02,5.85027e+03
1.45524e-02,5.50562e+03
1.49955e-02,5.18121e+03
1.54520e-02,4.87584e+03
1.59224e-02,4.58841e+03
1.64072e-02,4.31785e+03
1.69067e-02,4.06319e+03
1.74214e-02,3.82348e+03
1.79518e-02,3.59786e+03
1.84983e-02,3.38549e+03
1.90615e-02,3.18559e+03
1.96418e-02,2.99745e+03
2.02398e-02,2.82035e+03
2.08560e-02,2.65367e+03
2.14909e-02,2.49679e+03
2.21452e-02,2.34912e+03
2.28194e-02,2.21014e+03
2.35141e-02,2.07933e+03
2.42300e-02,1.95622e+03
2.49677e-02,1.84034e+03
2.57278e-02,1.73129e+03
2.65110e-02,1.62865e+03
2.73182e-02,1.53205e+03
2.81498e-02,1.44113e+03
2.90068e-02,1.35557e+03
2.98899e-02,1.27505e+03
3.07999e-02,1.19927e+03
3.17376e-02,1.12795e+03
3.27038e-02,1.06083e+03
3.36995e-02,9.97672e+02
3.47254e-02,9.38235e+02
3.57826e-02,8.82303e+02
3.68720e-02,8.29670e+02
3.79945e-02,7.80141e+02
3.91513e-02,7.33536e+02
4.03432e-02,6.89681e+02
4.15714e-02,6.48416e+02
4.28370e-02,6.09589e+02
4.41412e-02,5.73056e+02
4.54850e-02,5.38682e+02
4.68698e-02,5.06341e+02
4.82967e-02,4.75913e+02
4.97671e-02,4.47286e+02
5.12822e-02,4.20354e+02
5.28434e-02,3.95017e+02
5.44522e-02,3.71181e+02
5.61100e-02,3.48759e+02
5.78182e-02,3.27667e+02
5.95784e-02,3.07827e+02
6.13923e-02,2.89165e+02
6.32613e-02,2.71611e+02
6.51873e-02,2.55102e+02
6.71719e-02,2.39574e+02
6.92169e-02,2.24971e+02
7.13241e-02,2.11238e+02
7.34955e-02,1.98324e+02
7.57331e-02,1.86180e+02
7.80387e-02,1.74761e+02
8.04145e-02,1.64025e+02
8.28627e-02,1.53930e+02
8.53854e-02,1.44440e+02
8.79849e-02,1.35519e+02
9.06635e-02,1.27132e+02
9.34237e-02,1.19249e+02
9.62679e-02,1.11840e+02
9.91988e-02,1.04877e+02
1.02219e-01,9.83329e+01
1.05331e-01,9.21835e+01
1.08538e-01,8.64055e+01
1.11842e-01,8.09767e+01
1.15247e-01,7.58766e+01
1.18755e-01,7.10857e+01
1.22371e-01,6.65856e+01
1.26096e-01,6.23592e+01
1.29935e-01,5.83901e+01
1.33891e-01,5.46632e+01
1.37967e-01,5.11640e+01
1.42168e-01,4.78790e+01
1.46496e-01,4.47954e+01
1.50956e-01,4.19013e+01
1.55552e-01,3.91854e+01
1.60287e-01,3.66370e+01
1.65167e-01,3.42463e+01
1.70195e-01,3.20036e+01
1.75377e-01,2.99002e+01
1.80716e-01,2.79278e+01
1.86218e-01,2.60786e+01
1.91887e-01,2.43450e+01
1.97729e-01,2.27202e+01
2.03749e-01,2.11977e+01
2.09952e-01,1.97712e+01
2.16344e-01,1.84350e+01
2.22930e-01,1.71837e+01
2.29717e-01,1.60120e+01
2.36711e-01,1.49153e+01
2.43917e-01,1.38888e+01
2.51343e-01,1.29284e+01
2.58995e-01,1.20301e+01
2.66880e-01,1.11900e+01
2.75005e-01,1.04046e+01
2.83377e-01,9.67049e+00
2.92004e-01,8.98457e+00
3.00894e-01,8.34386e+00
3.10055e-01,7.74555e+00
3.19494e-01,7.18703e+00
3.29221e-01,6.66582e+00
3.39244e-01,6.17959e+00
3.49572e-01,5.72617e+00
3.60215e-01,5.30348e+00
3.71181e-01,4.90959e+00
3.82481e-01,4.54268e+00
3.94126e-01,4.20104e+00
4.06125e-01,3.88306e+00
4.18489e-01,3.58723e+00
4.31229e-01,3.31212e+00
4.44358e-01,3.05639e+00
4.57886e-01,2.81879e+00
4.71826e-01,2.59812e+00
4.86191e-01,2.39330e+00
5.00992e-01,2.20326e+00
5.16245e-01,2.02703e+00
5.31961e-01,1.86368e+00
5.48157e-01,1.71236e+00
5.64845e-01,1.57226e+00
5.82041e-01,1.44260e+00
5.99761e-01,1.32268e+00
6.18020e-01,1.21183e+00
6.36836e-01,1.10942e+00
6.56224e-01,1.01486e+00
6.76202e-01,9.27594e-01
6.96788e-01,8.47112e-01
7.18002e-01,7.72930e-01
7.39861e-01,7.04593e-01
7.62385e-01,6.41679e-01
7.85596e-01,5.83793e-01
8.09513e-01,5.30565e-01
8.34158e-01,4.81650e-01
8.59553e-01,4.36725e-01
8.85722e-01,3.95491e-01
9.12687e-01,3.57667e-01
9.40473e-01,3.22992e-01
9.69105e-01,2.91223e-01
9.98609e-01,2.62134e-01
1.02901e+00,2.35516e-01
1.06034e+00,2.11173e-01
1.09262e+00,1.88924e-01
1.12588e+00,1.68600e-01
1.16016e+00,1.50047e-01
1.19548e+00,1.33119e-01
1.23188e+00,1.17683e-01
1.26938e+00,1.03615e-01
1.30803e+00,9.08018e-02
1.34785e+00,7.91373e-02
1.38888e+00,6.85244e-02
1.43117e+00,5.88733e-02
1.47474e+00,5.01015e-02
1.51963e+00,4.21329e-02
1.56590e+00,3.48977e-02
1.61357e+00,2.83315e-02
1.66269e+00,2.23752e-02
1.71331e+00,1.69749e-02
1.76547e+00,1.20808e-02
1.81922e+00,7.64746e-03
1.87461e+00,3.63322e-03
1.93168e+00,0.00000e+00
