m1=2316.775, m2=41.983, gsp=2.485, rhosp=2177.226
fGW[Hz],dPh[rad]
4.52808e-03,4.08751e+04
4.66779e-03,3.84507e+04
4.81181e-03,3.61700e+04
4.96027e-03,3.40245e+04
5.11332e-03,3.20062e+04
5.27109e-03,3.01075e+04
5.43372e-03,2.83213e+04
5.60138e-03,2.66411e+04
5.77420e-03,2.50604e+04
5.95236e-03,2.35735e+04
6.13602e-03,2.21747e+04
6.32534e-03,2.08588e+04
6.52051e-03,1.96209e+04
6.72169e-03,1.84564e+04
6.92909e-03,1.73610e+04
7.14288e-03,1.63305e+04
7.36327e-03,1.53611e+04
7.59046e-03,1.44492e+04
7.82465e-03,1.35913e+04
8.06608e-03,1.27844e+04
8.31495e-03,1.20252e+04
8.57151e-03,1.13111e+04
8.83597e-03,1.06393e+04
9.10860e-03,1.00074e+04
9.38964e-03,9.41292e+03
9.67935e-03,8.85371e+03
9.97800e-03,8.32766e+03
1.02859e-02,7.83281e+03
1.06032e-02,7.36731e+03
1.09304e-02,6.92943e+03
1.12676e-02,6.51751e+03
1.16153e-02,6.13003e+03
1.19737e-02,5.76553e+03
1.23431e-02,5.42266e+03
1.27240e-02,5.10013e+03
1.31165e-02,4.79673e+03
1.35212e-02,4.51133e+03
1.39384e-02,4.24287e+03
1.43685e-02,3.99034e+03
1.48118e-02,3.75279e+03
1.52688e-02,3.52934e+03
1.57399e-02,3.31916e+03
1.62256e-02,3.12145e+03
1.67262e-02,2.93547e+03
1.72423e-02,2.76053e+03
1.77743e-02,2.59598e+03
1.83227e-02,2.44120e+03
1.88880e-02,2.29561e+03
1.94708e-02,2.15867e+03
2.00716e-02,2.02986e+03
2.06909e-02,1.90870e+03
2.13293e-02,1.79473e+03
2.19874e-02,1.68754e+03
2.26658e-02,1.58672e+03
2.33651e-02,1.49188e+03
2.40860e-02,1.40269e+03
2.48292e-02,1.31879e+03
2.55953e-02,1.23988e+03
2.63850e-02,1.16567e+03
2.71991e-02,1.09586e+03
2.80383e-02,1.03021e+03
2.89034e-02,9.68465e+02
2.97952e-02,9.10392e+02
3.07145e-02,8.55774e+02
3.16622e-02,8.04407e+02
3.26391e-02,7.56097e+02
3.36462e-02,7.10664e+02
3.46843e-02,6.67936e+02
3.57545e-02,6.27754e+02
3.68576e-02,5.89965e+02
3.79949e-02,5.54429e+02
3.91672e-02,5.21011e+02
4.03756e-02,4.89585e+02
4.16214e-02,4.60034e+02
4.29056e-02,4.32246e+02
4.42294e-02,4.06116e+02
4.55941e-02,3.81546e+02
4.70009e-02,3.58444e+02
4.84510e-02,3.36721e+02
4.99460e-02,3.16297e+02
5.14870e-02,2.97094e+02
5.30756e-02,2.79039e+02
5.47132e-02,2.62065e+02
5.64014e-02,2.46107e+02
5.81416e-02,2.31104e+02
5.99355e-02,2.17001e+02
6.17848e-02,2.03742e+02
6.36911e-02,1.91280e+02
6.56563e-02,1.79565e+02
6.76820e-02,1.68553e+02
6.97703e-02,1.58203e+02
7.19230e-02,1.48475e+02
7.41422e-02,1.39333e+02
7.64298e-02,1.30741e+02
7.87880e-02,1.22666e+02
8.12189e-02,1.15078e+02
8.37249e-02,1.07948e+02
8.63082e-02,1.01249e+02
8.89711e-02,9.49544e+01
9.17163e-02,8.90406e+01
9.45461e-02,8.34849e+01
9.74633e-02,7.82658e+01
1.00470e-01,7.33633e+01
1.03570e-01,6.87586e+01
1.06766e-01,6.44337e+01
1.10060e-01,6.03721e+01
1.13456e-01,5.65580e+01
1.16957e-01,5.29765e+01
1.20565e-01,4.96139e+01
1.24285e-01,4.64569e+01
1.28120e-01,4.34933e+01
1.32073e-01,4.07115e+01
1.36148e-01,3.81006e+01
1.40349e-01,3.56503e+01
1.44679e-01,3.33511e+01
1.49143e-01,3.11938e+01
1.53745e-01,2.91700e+01
1.58489e-01,2.72715e+01
1.63379e-01,2.54910e+01
1.68420e-01,2.38212e+01
1.73616e-01,2.22555e+01
1.78973e-01,2.07876e+01
1.84495e-01,1.94116e+01
1.90187e-01,1.81220e+01
1.96055e-01,1.69135e+01
2.02105e-01,1.57812e+01
2.08340e-01,1.47205e+01
2.14769e-01,1.37271e+01
2.21395e-01,1.27969e+01
2.28226e-01,1.19260e+01
2.35268e-01,1.11108e+01
2.42527e-01,1.03479e+01
2.50010e-01,9.63416e+00
2.57724e-01,8.96650e+00
2.65676e-01,8.34211e+00
2.73873e-01,7.75834e+00
2.82323e-01,7.21269e+00
2.91034e-01,6.70280e+00
3.00014e-01,6.22647e+00
3.09270e-01,5.78161e+00
3.18813e-01,5.36627e+00
3.28650e-01,4.97861e+00
3.38790e-01,4.61690e+00
3.49243e-01,4.27951e+00
3.60019e-01,3.96492e+00
3.71127e-01,3.67169e+00
3.82578e-01,3.39847e+00
3.94382e-01,3.14398e+00
4.06550e-01,2.90704e+00
4.19094e-01,2.68652e+00
4.32025e-01,2.48137e+00
4.45355e-01,2.29061e+00
4.59096e-01,2.11328e+00
4.73261e-01,1.94853e+00
4.87863e-01,1.79554e+00
5.02916e-01,1.65352e+00
5.18433e-01,1.52176e+00
5.34429e-01,1.39957e+00
5.50918e-01,1.28632e+00
5.67916e-01,1.18140e+00
5.85439e-01,1.08426e+00
6.03503e-01,9.94357e-01
6.22123e-01,9.11209e-01
6.41318e-01,8.34347e-01
6.61106e-01,7.63336e-01
6.81504e-01,6.97767e-01
7.02531e-01,6.37259e-01
7.24207e-01,5.81454e-01
7.46552e-01,5.30016e-01
7.69587e-01,4.82633e-01
7.93332e-01,4.39011e-01
8.17809e-01,3.98877e-01
8.43042e-01,3.61973e-01
8.69054e-01,3.28061e-01
8.95868e-01,2.96918e-01
9.23509e-01,2.68336e-01
9.52004e-01,2.42120e-01
9.81377e-01,2.18089e-01
1.01166e+00,1.96076e-01
1.04287e+00,1.75923e-01
1.07505e+00,1.57484e-01
1.10822e+00,1.40625e-01
1.14241e+00,1.25219e-01
1.17766e+00,1.11150e-01
1.21400e+00,9.83101e-02
1.25145e+00,8.65981e-02
1.29006e+00,7.59217e-02
1.32987e+00,6.61950e-02
1.37090e+00,5.73388e-02
1.41320e+00,4.92797e-02
1.45680e+00,4.19502e-02
1.50175e+00,3.52880e-02
1.54809e+00,2.92355e-02
1.59585e+00,2.37400e-02
1.64509e+00,1.87528e-02
1.69585e+00,1.42292e-02
1.74817e+00,1.01282e-02
1.80211e+00,6.41225e-03
1.85772e+00,3.04671e-03
1.91503e+00,0.00000e+00
