m1=19879.221, m2=18.756, gsp=2.422, rhosp=965.091
fGW[Hz],dPh[rad]
3.57138e-03,1.46094e+05
3.64621e-03,1.39609e+05
3.72261e-03,1.33401e+05
3.80061e-03,1.27460e+05
3.88024e-03,1.21774e+05
3.96155e-03,1.16333e+05
4.04455e-03,1.11127e+05
4.12930e-03,1.06145e+05
4.21582e-03,1.01377e+05
4.30415e-03,9.68162e+04
4.39433e-03,9.24522e+04
4.48641e-03,8.82772e+04
4.58041e-03,8.42831e+04
4.67638e-03,8.04623e+04
4.77437e-03,7.68076e+04
4.87440e-03,7.33118e+04
4.97654e-03,6.99683e+04
5.08081e-03,6.67706e+04
5.18727e-03,6.37125e+04
5.29595e-03,6.07881e+04
5.40692e-03,5.79918e+04
5.52021e-03,5.53181e+04
5.63587e-03,5.27619e+04
5.75396e-03,5.03181e+04
5.87452e-03,4.79819e+04
5.99761e-03,4.57488e+04
6.12328e-03,4.36145e+04
6.25158e-03,4.15746e+04
6.38257e-03,3.96251e+04
6.51630e-03,3.77623e+04
6.65283e-03,3.59824e+04
6.79223e-03,3.42818e+04
6.93455e-03,3.26573e+04
7.07984e-03,3.11054e+04
7.22819e-03,2.96231e+04
7.37964e-03,2.82075e+04
7.53426e-03,2.68556e+04
7.69213e-03,2.55647e+04
7.85330e-03,2.43322e+04
8.01785e-03,2.31556e+04
8.18584e-03,2.20325e+04
8.35736e-03,2.09605e+04
8.53247e-03,1.99375e+04
8.71125e-03,1.89613e+04
8.89378e-03,1.80299e+04
9.08013e-03,1.71413e+04
9.27038e-03,1.62937e+04
9.46462e-03,1.54854e+04
9.66293e-03,1.47145e+04
9.86540e-03,1.39794e+04
1.00721e-02,1.32787e+04
1.02831e-02,1.26107e+04
1.04986e-02,1.19741e+04
1.07186e-02,1.13674e+04
1.09432e-02,1.07894e+04
1.11725e-02,1.02388e+04
1.14065e-02,9.71427e+03
1.16455e-02,9.21478e+03
1.18896e-02,8.73918e+03
1.21387e-02,8.28640e+03
1.23930e-02,7.85543e+03
1.26527e-02,7.44529e+03
1.29178e-02,7.05503e+03
1.31885e-02,6.68377e+03
1.34648e-02,6.33065e+03
1.37469e-02,5.99485e+03
1.40350e-02,5.67558e+03
1.43290e-02,5.37208e+03
1.46293e-02,5.08364e+03
1.49358e-02,4.80957e+03
1.52487e-02,4.54920e+03
1.55682e-02,4.30191e+03
1.58944e-02,4.06709e+03
1.62275e-02,3.84416e+03
1.65675e-02,3.63256e+03
1.69146e-02,3.43177e+03
1.72690e-02,3.24127e+03
1.76309e-02,3.06059e+03
1.80003e-02,2.88926e+03
1.83774e-02,2.72683e+03
1.87625e-02,2.57288e+03
1.91556e-02,2.42700e+03
1.95570e-02,2.28881e+03
1.99668e-02,2.15793e+03
2.03851e-02,2.03401e+03
2.08122e-02,1.91671e+03
2.12483e-02,1.80570e+03
2.16935e-02,1.70068e+03
2.21481e-02,1.60135e+03
2.26121e-02,1.50742e+03
2.30859e-02,1.41863e+03
2.35696e-02,1.33472e+03
2.40635e-02,1.25545e+03
2.45677e-02,1.18057e+03
2.50825e-02,1.10986e+03
2.56080e-02,1.04312e+03
2.61446e-02,9.80127e+02
2.66924e-02,9.20700e+02
2.72516e-02,8.64650e+02
2.78226e-02,8.11799e+02
2.84056e-02,7.61981e+02
2.90008e-02,7.15033e+02
2.96084e-02,6.70805e+02
3.02288e-02,6.29150e+02
3.08622e-02,5.89930e+02
3.15088e-02,5.53013e+02
3.21690e-02,5.18275e+02
3.28431e-02,4.85595e+02
3.35312e-02,4.54862e+02
3.42338e-02,4.25968e+02
3.49511e-02,3.98810e+02
3.56834e-02,3.73291e+02
3.64311e-02,3.49319e+02
3.71944e-02,3.26807e+02
3.79738e-02,3.05672e+02
3.87694e-02,2.85835e+02
3.95817e-02,2.67222e+02
4.04111e-02,2.49762e+02
4.12578e-02,2.33389e+02
4.21223e-02,2.18038e+02
4.30049e-02,2.03649e+02
4.39059e-02,1.90167e+02
4.48259e-02,1.77537e+02
4.57651e-02,1.65709e+02
4.67240e-02,1.54634e+02
4.77030e-02,1.44268e+02
4.87025e-02,1.34567e+02
4.97230e-02,1.25490e+02
5.07648e-02,1.17001e+02
5.18285e-02,1.09063e+02
5.29145e-02,1.01641e+02
5.40232e-02,9.47040e+01
5.51551e-02,8.82219e+01
5.63108e-02,8.21661e+01
5.74906e-02,7.65098e+01
5.86952e-02,7.12278e+01
5.99250e-02,6.62966e+01
6.11806e-02,6.16937e+01
6.24626e-02,5.73982e+01
6.37713e-02,5.33905e+01
6.51075e-02,4.96520e+01
6.64717e-02,4.61653e+01
6.78645e-02,4.29141e+01
6.92864e-02,3.98831e+01
7.07382e-02,3.70579e+01
7.22203e-02,3.44251e+01
7.37336e-02,3.19719e+01
7.52785e-02,2.96865e+01
7.68558e-02,2.75578e+01
7.84661e-02,2.55754e+01
8.01102e-02,2.37296e+01
8.17887e-02,2.20112e+01
8.35025e-02,2.04117e+01
8.52521e-02,1.89231e+01
8.70383e-02,1.75379e+01
8.88620e-02,1.62491e+01
9.07239e-02,1.50501e+01
9.26249e-02,1.39350e+01
9.45656e-02,1.28979e+01
9.65470e-02,1.19335e+01
9.85700e-02,1.10369e+01
1.00635e-01,1.02034e+01
1.02744e-01,9.42855e+00
1.04897e-01,8.70845e+00
1.07095e-01,8.03925e+00
1.09338e-01,7.41744e+00
1.11629e-01,6.83972e+00
1.13968e-01,6.30302e+00
1.16356e-01,5.80448e+00
1.18794e-01,5.34144e+00
1.21283e-01,4.91142e+00
1.23825e-01,4.51209e+00
1.26419e-01,4.14130e+00
1.29068e-01,3.79704e+00
1.31772e-01,3.47745e+00
1.34533e-01,3.18078e+00
1.37352e-01,2.90541e+00
1.40230e-01,2.64983e+00
1.43168e-01,2.41264e+00
1.46168e-01,2.19254e+00
1.49231e-01,1.98830e+00
1.52357e-01,1.79879e+00
1.55550e-01,1.62298e+00
1.58809e-01,1.45987e+00
1.62137e-01,1.30856e+00
1.65534e-01,1.16821e+00
1.69002e-01,1.03803e+00
1.72543e-01,9.17289e-01
1.76158e-01,8.05311e-01
1.79850e-01,7.01467e-01
1.83618e-01,6.05169e-01
1.87465e-01,5.15875e-01
1.91393e-01,4.33080e-01
1.95403e-01,3.56313e-01
1.99498e-01,2.85141e-01
2.03678e-01,2.19158e-01
2.07945e-01,1.57989e-01
2.12302e-01,1.01285e-01
2.16751e-01,4.87219e-02
2.21292e-01,0.00000e+00
