m1=4000.589, m2=3.493, gsp=2.309, rhosp=167.306
fGW[Hz],dPh[rad]
1.00147e-02,2.83568e+04
1.02540e-02,2.69233e+04
1.04989e-02,2.55610e+04
1.07498e-02,2.42664e+04
1.10066e-02,2.30362e+04
1.12696e-02,2.18671e+04
1.15388e-02,2.07562e+04
1.18145e-02,1.97006e+04
1.20968e-02,1.86975e+04
1.23858e-02,1.77445e+04
1.26818e-02,1.68390e+04
1.29847e-02,1.59787e+04
1.32950e-02,1.51613e+04
1.36126e-02,1.43848e+04
1.39379e-02,1.36470e+04
1.42709e-02,1.29462e+04
1.46118e-02,1.22805e+04
1.49609e-02,1.16481e+04
1.53184e-02,1.10475e+04
1.56844e-02,1.04770e+04
1.60591e-02,9.93509e+03
1.64428e-02,9.42045e+03
1.68356e-02,8.93171e+03
1.72379e-02,8.46758e+03
1.76497e-02,8.02684e+03
1.80714e-02,7.60833e+03
1.85032e-02,7.21095e+03
1.89453e-02,6.83366e+03
1.93979e-02,6.47547e+03
1.98614e-02,6.13541e+03
2.03359e-02,5.81260e+03
2.08218e-02,5.50618e+03
2.13193e-02,5.21534e+03
2.18286e-02,4.93930e+03
2.23501e-02,4.67732e+03
2.28841e-02,4.42871e+03
2.34309e-02,4.19280e+03
2.39907e-02,3.96897e+03
2.45639e-02,3.75660e+03
2.51508e-02,3.55512e+03
2.57517e-02,3.36400e+03
2.63670e-02,3.18272e+03
2.69969e-02,3.01078e+03
2.76419e-02,2.84772e+03
2.83024e-02,2.69309e+03
2.89786e-02,2.54648e+03
2.96709e-02,2.40748e+03
3.03798e-02,2.27570e+03
3.11057e-02,2.15079e+03
3.18488e-02,2.03240e+03
3.26098e-02,1.92021e+03
3.33889e-02,1.81389e+03
3.41866e-02,1.71316e+03
3.50034e-02,1.61774e+03
3.58397e-02,1.52734e+03
3.66960e-02,1.44173e+03
3.75728e-02,1.36066e+03
3.84705e-02,1.28390e+03
3.93896e-02,1.21122e+03
4.03307e-02,1.14243e+03
4.12943e-02,1.07732e+03
4.22809e-02,1.01571e+03
4.32911e-02,9.57412e+02
4.43254e-02,9.02264e+02
4.53844e-02,8.50104e+02
4.64688e-02,8.00776e+02
4.75790e-02,7.54136e+02
4.87158e-02,7.10046e+02
4.98797e-02,6.68373e+02
5.10714e-02,6.28992e+02
5.22916e-02,5.91785e+02
5.35410e-02,5.56638e+02
5.48202e-02,5.23445e+02
5.61300e-02,4.92103e+02
5.74710e-02,4.62515e+02
5.88442e-02,4.34590e+02
6.02501e-02,4.08240e+02
6.16896e-02,3.83381e+02
6.31635e-02,3.59936e+02
6.46726e-02,3.37829e+02
6.62177e-02,3.16988e+02
6.77998e-02,2.97346e+02
6.94197e-02,2.78840e+02
7.10783e-02,2.61407e+02
7.27765e-02,2.44990e+02
7.45153e-02,2.29535e+02
7.62956e-02,2.14988e+02
7.81185e-02,2.01301e+02
7.99849e-02,1.88425e+02
8.18959e-02,1.76318e+02
8.38526e-02,1.64936e+02
8.58560e-02,1.54238e+02
8.79073e-02,1.44188e+02
9.00076e-02,1.34749e+02
9.21581e-02,1.25886e+02
9.43599e-02,1.17567e+02
9.66144e-02,1.09762e+02
9.89227e-02,1.02440e+02
1.01286e-01,9.55751e+01
1.03706e-01,8.91399e+01
1.06184e-01,8.31099e+01
1.08721e-01,7.74615e+01
1.11318e-01,7.21725e+01
1.13978e-01,6.72217e+01
1.16701e-01,6.25892e+01
1.19490e-01,5.82561e+01
1.22344e-01,5.42045e+01
1.25267e-01,5.04175e+01
1.28260e-01,4.68792e+01
1.31325e-01,4.35743e+01
1.34462e-01,4.04888e+01
1.37675e-01,3.76090e+01
1.40964e-01,3.49223e+01
1.44332e-01,3.24167e+01
1.47781e-01,3.00808e+01
1.51312e-01,2.79039e+01
1.54927e-01,2.58761e+01
1.58628e-01,2.39877e+01
1.62418e-01,2.22299e+01
1.66299e-01,2.05942e+01
1.70272e-01,1.90728e+01
1.74340e-01,1.76581e+01
1.78505e-01,1.63432e+01
1.82770e-01,1.51215e+01
1.87137e-01,1.39868e+01
1.91608e-01,1.29332e+01
1.96186e-01,1.19553e+01
2.00873e-01,1.10481e+01
2.05673e-01,1.02066e+01
2.10587e-01,9.42644e+00
2.15618e-01,8.70336e+00
2.20770e-01,8.03342e+00
2.26044e-01,7.41292e+00
2.31445e-01,6.83840e+00
2.36975e-01,6.30663e+00
2.42637e-01,5.81459e+00
2.48434e-01,5.35946e+00
2.54369e-01,4.93860e+00
2.60447e-01,4.54954e+00
2.66669e-01,4.19001e+00
2.73041e-01,3.85785e+00
2.79564e-01,3.55107e+00
2.86244e-01,3.26782e+00
2.93083e-01,3.00636e+00
3.00085e-01,2.76508e+00
3.07255e-01,2.54249e+00
3.14596e-01,2.33720e+00
3.22112e-01,2.14791e+00
3.29808e-01,1.97341e+00
3.37688e-01,1.81259e+00
3.45756e-01,1.66442e+00
3.54017e-01,1.52793e+00
3.62475e-01,1.40223e+00
3.71135e-01,1.28650e+00
3.80002e-01,1.17996e+00
3.89082e-01,1.08192e+00
3.98378e-01,9.91698e-01
4.07896e-01,9.08703e-01
4.17641e-01,8.32368e-01
4.27619e-01,7.62171e-01
4.37836e-01,6.97631e-01
4.48297e-01,6.38304e-01
4.59008e-01,5.83777e-01
4.69975e-01,5.33672e-01
4.81203e-01,4.87638e-01
4.92700e-01,4.45350e-01
5.04472e-01,4.06510e-01
5.16525e-01,3.70842e-01
5.28866e-01,3.38093e-01
5.41502e-01,3.08028e-01
5.54439e-01,2.80430e-01
5.67686e-01,2.55101e-01
5.81249e-01,2.31857e-01
5.95136e-01,2.10529e-01
6.09356e-01,1.90962e-01
6.23914e-01,1.73013e-01
6.38821e-01,1.56549e-01
6.54084e-01,1.41450e-01
6.69711e-01,1.27604e-01
6.85712e-01,1.14908e-01
7.02095e-01,1.03268e-01
7.18870e-01,9.25967e-02
7.36045e-01,8.28151e-02
7.53631e-01,7.38496e-02
7.71637e-01,6.56328e-02
7.90073e-01,5.81028e-02
8.08949e-01,5.12028e-02
8.28277e-01,4.48807e-02
8.48066e-01,3.90884e-02
8.68328e-01,3.37820e-02
8.89075e-01,2.89210e-02
9.10317e-01,2.44684e-02
9.32066e-01,2.03901e-02
9.54335e-01,1.66549e-02
9.77136e-01,1.32342e-02
1.00048e+00,1.01017e-02
1.02439e+00,7.23317e-03
1.04886e+00,4.60664e-03
1.07392e+00,2.20178e-03
1.09958e+00,0.00000e+00
