m1=67481.189, m2=16.658, gsp=2.178, rhosp=45.733
fGW[Hz],dPh[rad]
2.75057e-03,1.57693e+03
2.79467e-03,1.50644e+03
2.83948e-03,1.43890e+03
2.88500e-03,1.37419e+03
2.93125e-03,1.31220e+03
2.97825e-03,1.25282e+03
3.02600e-03,1.19596e+03
3.07451e-03,1.14151e+03
3.12380e-03,1.08938e+03
3.17389e-03,1.03948e+03
3.22477e-03,9.91720e+02
3.27647e-03,9.46010e+02
3.32900e-03,9.02273e+02
3.38237e-03,8.60429e+02
3.43660e-03,8.20401e+02
3.49170e-03,7.82118e+02
3.54768e-03,7.45508e+02
3.60456e-03,7.10504e+02
3.66235e-03,6.77040e+02
3.72106e-03,6.45054e+02
3.78072e-03,6.14485e+02
3.84134e-03,5.85275e+02
3.90292e-03,5.57368e+02
3.96550e-03,5.30710e+02
4.02907e-03,5.05250e+02
4.09367e-03,4.80937e+02
4.15930e-03,4.57724e+02
4.22598e-03,4.35564e+02
4.29374e-03,4.14413e+02
4.36257e-03,3.94228e+02
4.43252e-03,3.74969e+02
4.50358e-03,3.56597e+02
4.57579e-03,3.39072e+02
4.64915e-03,3.22360e+02
4.72368e-03,3.06424e+02
4.79942e-03,2.91232e+02
4.87636e-03,2.76751e+02
4.95454e-03,2.62950e+02
5.03398e-03,2.49799e+02
5.11468e-03,2.37271e+02
5.19668e-03,2.25337e+02
5.28000e-03,2.13971e+02
5.36465e-03,2.03149e+02
5.45066e-03,1.92845e+02
5.53805e-03,1.83037e+02
5.62683e-03,1.73702e+02
5.71705e-03,1.64819e+02
5.80871e-03,1.56367e+02
5.90183e-03,1.48328e+02
5.99645e-03,1.40682e+02
6.09259e-03,1.33411e+02
6.19027e-03,1.26498e+02
6.28952e-03,1.19926e+02
6.39035e-03,1.13679e+02
6.49281e-03,1.07744e+02
6.59690e-03,1.02104e+02
6.70267e-03,9.67457e+01
6.81013e-03,9.16565e+01
6.91931e-03,8.68234e+01
7.03024e-03,8.22341e+01
7.14295e-03,7.78772e+01
7.25747e-03,7.37415e+01
7.37383e-03,6.98164e+01
7.49205e-03,6.60918e+01
7.61216e-03,6.25579e+01
7.73421e-03,5.92056e+01
7.85820e-03,5.60259e+01
7.98419e-03,5.30105e+01
8.11220e-03,5.01513e+01
8.24226e-03,4.74406e+01
8.37440e-03,4.48710e+01
8.50866e-03,4.24357e+01
8.64508e-03,4.01278e+01
8.78368e-03,3.79412e+01
8.92450e-03,3.58696e+01
9.06758e-03,3.39073e+01
9.21296e-03,3.20488e+01
9.36067e-03,3.02889e+01
9.51074e-03,2.86225e+01
9.66322e-03,2.70449e+01
9.81815e-03,2.55516e+01
9.97555e-03,2.41382e+01
1.01355e-02,2.28007e+01
1.02980e-02,2.15351e+01
1.04631e-02,2.03377e+01
1.06308e-02,1.92050e+01
1.08013e-02,1.81336e+01
1.09744e-02,1.71204e+01
1.11504e-02,1.61622e+01
1.13292e-02,1.52562e+01
1.15108e-02,1.43997e+01
1.16953e-02,1.35900e+01
1.18828e-02,1.28247e+01
1.20734e-02,1.21014e+01
1.22669e-02,1.14179e+01
1.24636e-02,1.07721e+01
1.26634e-02,1.01620e+01
1.28664e-02,9.58555e+00
1.30727e-02,9.04108e+00
1.32823e-02,8.52682e+00
1.34953e-02,8.04116e+00
1.37116e-02,7.58255e+00
1.39314e-02,7.14952e+00
1.41548e-02,6.74068e+00
1.43817e-02,6.35472e+00
1.46123e-02,5.99039e+00
1.48466e-02,5.64652e+00
1.50846e-02,5.32197e+00
1.53265e-02,5.01569e+00
1.55722e-02,4.72668e+00
1.58218e-02,4.45398e+00
1.60755e-02,4.19670e+00
1.63332e-02,3.95398e+00
1.65951e-02,3.72502e+00
1.68611e-02,3.50906e+00
1.71315e-02,3.30536e+00
1.74061e-02,3.11326e+00
1.76852e-02,2.93209e+00
1.79687e-02,2.76126e+00
1.82568e-02,2.60018e+00
1.85495e-02,2.44831e+00
1.88469e-02,2.30513e+00
1.91491e-02,2.17015e+00
1.94561e-02,2.04291e+00
1.97680e-02,1.92298e+00
2.00849e-02,1.80993e+00
2.04070e-02,1.70339e+00
2.07341e-02,1.60298e+00
2.10665e-02,1.50836e+00
2.14043e-02,1.41920e+00
2.17475e-02,1.33518e+00
2.20961e-02,1.25602e+00
2.24504e-02,1.18144e+00
2.28103e-02,1.11117e+00
2.31760e-02,1.04498e+00
2.35476e-02,9.82622e-01
2.39251e-02,9.23883e-01
2.43087e-02,8.68555e-01
2.46984e-02,8.16441e-01
2.50944e-02,7.67359e-01
2.54967e-02,7.21133e-01
2.59055e-02,6.77598e-01
2.63208e-02,6.36601e-01
2.67428e-02,5.97995e-01
2.71716e-02,5.61641e-01
2.76072e-02,5.27410e-01
2.80498e-02,4.95180e-01
2.84995e-02,4.64833e-01
2.89564e-02,4.36262e-01
2.94207e-02,4.09362e-01
2.98923e-02,3.84039e-01
3.03716e-02,3.60199e-01
3.08585e-02,3.37756e-01
3.13533e-02,3.16631e-01
3.18559e-02,2.96745e-01
3.23667e-02,2.78026e-01
3.28856e-02,2.60407e-01
3.34128e-02,2.43824e-01
3.39485e-02,2.28216e-01
3.44928e-02,2.13526e-01
3.50458e-02,1.99701e-01
3.56077e-02,1.86690e-01
3.61785e-02,1.74445e-01
3.67586e-02,1.62922e-01
3.73479e-02,1.52078e-01
3.79467e-02,1.41873e-01
3.85551e-02,1.32271e-01
3.91732e-02,1.23235e-01
3.98012e-02,1.14733e-01
4.04393e-02,1.06733e-01
4.10877e-02,9.92056e-02
4.17464e-02,9.21231e-02
4.24157e-02,8.54594e-02
4.30957e-02,7.91897e-02
4.37867e-02,7.32910e-02
4.44887e-02,6.77413e-02
4.52019e-02,6.25201e-02
4.59266e-02,5.76081e-02
4.66630e-02,5.29870e-02
4.74111e-02,4.86397e-02
4.81712e-02,4.45500e-02
4.89435e-02,4.07027e-02
4.97282e-02,3.70835e-02
5.05254e-02,3.36790e-02
5.13355e-02,3.04764e-02
5.21585e-02,2.74639e-02
5.29948e-02,2.46301e-02
5.38444e-02,2.19646e-02
5.47077e-02,1.94573e-02
5.55848e-02,1.70989e-02
5.64759e-02,1.48806e-02
5.73814e-02,1.27941e-02
5.83013e-02,1.08316e-02
5.92360e-02,8.98567e-03
6.01857e-02,7.24952e-03
6.11507e-02,5.61659e-03
6.21311e-02,4.08076e-03
6.31272e-02,2.63628e-03
6.41393e-02,1.27772e-03
6.51676e-02,0.00000e+00
