m1=21148.488, m2=7.095, gsp=2.084, rhosp=18.720
fGW[Hz],dPh[rad]
5.06287e-03,2.94669e+02
5.15828e-03,2.80640e+02
5.25549e-03,2.67245e+02
5.35454e-03,2.54458e+02
5.45545e-03,2.42251e+02
5.55826e-03,2.30600e+02
5.66300e-03,2.19479e+02
5.76973e-03,2.08867e+02
5.87846e-03,1.98741e+02
5.98924e-03,1.89079e+02
6.10211e-03,1.79862e+02
6.21711e-03,1.71069e+02
6.33427e-03,1.62683e+02
6.45365e-03,1.54685e+02
6.57527e-03,1.47058e+02
6.69918e-03,1.39786e+02
6.82543e-03,1.32854e+02
6.95406e-03,1.26245e+02
7.08511e-03,1.19947e+02
7.21864e-03,1.13944e+02
7.35467e-03,1.08225e+02
7.49328e-03,1.02775e+02
7.63449e-03,9.75843e+01
7.77837e-03,9.26400e+01
7.92495e-03,8.79314e+01
8.07430e-03,8.34478e+01
8.22647e-03,7.91791e+01
8.38150e-03,7.51156e+01
8.53945e-03,7.12481e+01
8.70038e-03,6.75676e+01
8.86435e-03,6.40657e+01
9.03140e-03,6.07342e+01
9.20160e-03,5.75654e+01
9.37501e-03,5.45518e+01
9.55169e-03,5.16863e+01
9.73169e-03,4.89620e+01
9.91509e-03,4.63725e+01
1.01019e-02,4.39115e+01
1.02923e-02,4.15731e+01
1.04863e-02,3.93515e+01
1.06839e-02,3.72413e+01
1.08852e-02,3.52373e+01
1.10904e-02,3.33345e+01
1.12994e-02,3.15281e+01
1.15123e-02,2.98136e+01
1.17293e-02,2.81866e+01
1.19503e-02,2.66430e+01
1.21755e-02,2.51787e+01
1.24050e-02,2.37900e+01
1.26388e-02,2.24733e+01
1.28770e-02,2.12250e+01
1.31196e-02,2.00419e+01
1.33669e-02,1.89208e+01
1.36188e-02,1.78586e+01
1.38754e-02,1.68525e+01
1.41369e-02,1.58998e+01
1.44033e-02,1.49977e+01
1.46748e-02,1.41439e+01
1.49513e-02,1.33358e+01
1.52331e-02,1.25712e+01
1.55202e-02,1.18480e+01
1.58127e-02,1.11639e+01
1.61107e-02,1.05172e+01
1.64143e-02,9.90581e+00
1.67236e-02,9.32799e+00
1.70388e-02,8.78203e+00
1.73599e-02,8.26627e+00
1.76870e-02,7.77917e+00
1.80203e-02,7.31923e+00
1.83600e-02,6.88505e+00
1.87060e-02,6.47527e+00
1.90585e-02,6.08862e+00
1.94176e-02,5.72387e+00
1.97836e-02,5.37986e+00
2.01564e-02,5.05549e+00
2.05363e-02,4.74971e+00
2.09233e-02,4.46152e+00
2.13176e-02,4.18997e+00
2.17193e-02,3.93416e+00
2.21286e-02,3.69323e+00
2.25457e-02,3.46638e+00
2.29706e-02,3.25282e+00
2.34034e-02,3.05182e+00
2.38445e-02,2.86269e+00
2.42939e-02,2.68477e+00
2.47517e-02,2.51743e+00
2.52181e-02,2.36008e+00
2.56934e-02,2.21215e+00
2.61776e-02,2.07311e+00
2.66709e-02,1.94246e+00
2.71736e-02,1.81971e+00
2.76856e-02,1.70441e+00
2.82074e-02,1.59614e+00
2.87390e-02,1.49449e+00
2.92806e-02,1.39907e+00
2.98324e-02,1.30951e+00
3.03946e-02,1.22549e+00
3.09674e-02,1.14666e+00
3.15510e-02,1.07273e+00
3.21456e-02,1.00340e+00
3.27514e-02,9.38408e-01
3.33686e-02,8.77483e-01
3.39974e-02,8.20386e-01
3.46381e-02,7.66887e-01
3.52909e-02,7.16767e-01
3.59560e-02,6.69823e-01
3.66336e-02,6.25862e-01
3.73240e-02,5.84700e-01
3.80274e-02,5.46167e-01
3.87440e-02,5.10102e-01
3.94742e-02,4.76351e-01
4.02181e-02,4.44772e-01
4.09760e-02,4.15231e-01
4.17482e-02,3.87599e-01
4.25350e-02,3.61758e-01
4.33366e-02,3.37596e-01
4.41533e-02,3.15007e-01
4.49854e-02,2.93892e-01
4.58331e-02,2.74157e-01
4.66969e-02,2.55716e-01
4.75769e-02,2.38485e-01
4.84735e-02,2.22388e-01
4.93870e-02,2.07353e-01
5.03177e-02,1.93310e-01
5.12660e-02,1.80197e-01
5.22321e-02,1.67953e-01
5.32165e-02,1.56523e-01
5.42194e-02,1.45853e-01
5.52412e-02,1.35894e-01
5.62822e-02,1.26600e-01
5.73429e-02,1.17928e-01
5.84235e-02,1.09836e-01
5.95246e-02,1.02288e-01
6.06463e-02,9.52467e-02
6.17892e-02,8.86792e-02
6.29537e-02,8.25544e-02
6.41401e-02,7.68429e-02
6.53488e-02,7.15175e-02
6.65804e-02,6.65524e-02
6.78351e-02,6.19238e-02
6.91135e-02,5.76093e-02
7.04160e-02,5.35879e-02
7.17430e-02,4.98400e-02
7.30950e-02,4.63474e-02
7.44725e-02,4.30930e-02
7.58760e-02,4.00607e-02
7.73059e-02,3.72356e-02
7.87628e-02,3.46038e-02
8.02471e-02,3.21522e-02
8.17594e-02,2.98687e-02
8.33002e-02,2.77418e-02
8.48700e-02,2.57611e-02
8.64695e-02,2.39166e-02
8.80990e-02,2.21989e-02
8.97593e-02,2.05996e-02
9.14508e-02,1.91106e-02
9.31743e-02,1.77243e-02
9.49302e-02,1.64337e-02
9.67192e-02,1.52323e-02
9.85419e-02,1.41140e-02
1.00399e-01,1.30731e-02
1.02291e-01,1.21042e-02
1.04219e-01,1.12026e-02
1.06183e-01,1.03635e-02
1.08184e-01,9.58262e-03
1.10223e-01,8.85599e-03
1.12300e-01,8.17986e-03
1.14416e-01,7.55075e-03
1.16572e-01,6.96542e-03
1.18769e-01,6.42084e-03
1.21008e-01,5.91421e-03
1.23288e-01,5.44289e-03
1.25611e-01,5.00444e-03
1.27979e-01,4.59658e-03
1.30390e-01,4.21720e-03
1.32848e-01,3.86432e-03
1.35351e-01,3.53610e-03
1.37902e-01,3.23083e-03
1.40501e-01,2.94691e-03
1.43149e-01,2.68286e-03
1.45846e-01,2.43729e-03
1.48595e-01,2.20893e-03
1.51395e-01,1.99656e-03
1.54248e-01,1.79908e-03
1.57155e-01,1.61545e-03
1.60117e-01,1.44470e-03
1.63135e-01,1.28593e-03
1.66209e-01,1.13830e-03
1.69341e-01,1.00104e-03
1.72532e-01,8.73424e-04
1.75784e-01,7.54773e-04
1.79097e-01,6.44462e-04
1.82472e-01,5.41906e-04
1.85911e-01,4.46563e-04
1.89414e-01,3.57927e-04
1.92984e-01,2.75528e-04
1.96621e-01,1.98928e-04
2.00326e-01,1.27722e-04
2.04101e-01,6.15297e-05
2.07948e-01,0.00000e+00
