m1=14734.965, m2=3.791, gsp=2.043, rhosp=1267.610
fGW[Hz],dPh[rad]
7.00960e-03,7.19085e+02
7.14299e-03,6.83819e+02
7.27892e-03,6.50194e+02
7.41743e-03,6.18137e+02
7.55858e-03,5.87579e+02
7.70242e-03,5.58452e+02
7.84900e-03,5.30692e+02
7.99836e-03,5.04239e+02
8.15056e-03,4.79033e+02
8.30567e-03,4.55019e+02
8.46372e-03,4.32143e+02
8.62478e-03,4.10353e+02
8.78891e-03,3.89602e+02
8.95616e-03,3.69841e+02
9.12659e-03,3.51026e+02
9.30027e-03,3.33113e+02
9.47725e-03,3.16063e+02
9.65759e-03,2.99836e+02
9.84137e-03,2.84393e+02
1.00287e-02,2.69700e+02
1.02195e-02,2.55722e+02
1.04140e-02,2.42426e+02
1.06121e-02,2.29780e+02
1.08141e-02,2.17755e+02
1.10199e-02,2.06323e+02
1.12296e-02,1.95454e+02
1.14433e-02,1.85124e+02
1.16610e-02,1.75308e+02
1.18829e-02,1.65981e+02
1.21091e-02,1.57120e+02
1.23395e-02,1.48704e+02
1.25743e-02,1.40711e+02
1.28136e-02,1.33122e+02
1.30574e-02,1.25918e+02
1.33059e-02,1.19080e+02
1.35591e-02,1.12590e+02
1.38171e-02,1.06433e+02
1.40801e-02,1.00593e+02
1.43480e-02,9.50534e+01
1.46211e-02,8.98006e+01
1.48993e-02,8.48206e+01
1.51828e-02,8.01002e+01
1.54717e-02,7.56267e+01
1.57662e-02,7.13881e+01
1.60662e-02,6.73729e+01
1.63719e-02,6.35701e+01
1.66835e-02,5.99693e+01
1.70009e-02,5.65603e+01
1.73245e-02,5.33338e+01
1.76541e-02,5.02805e+01
1.79901e-02,4.73919e+01
1.83324e-02,4.46596e+01
1.86813e-02,4.20758e+01
1.90368e-02,3.96329e+01
1.93991e-02,3.73238e+01
1.97682e-02,3.51416e+01
2.01444e-02,3.30799e+01
2.05277e-02,3.11324e+01
2.09184e-02,2.92932e+01
2.13164e-02,2.75568e+01
2.17221e-02,2.59176e+01
2.21354e-02,2.43708e+01
2.25567e-02,2.29113e+01
2.29859e-02,2.15347e+01
2.34233e-02,2.02364e+01
2.38691e-02,1.90124e+01
2.43233e-02,1.78586e+01
2.47862e-02,1.67713e+01
2.52578e-02,1.57469e+01
2.57385e-02,1.47819e+01
2.62283e-02,1.38732e+01
2.67274e-02,1.30177e+01
2.72360e-02,1.22124e+01
2.77543e-02,1.14546e+01
2.82824e-02,1.07417e+01
2.88206e-02,1.00711e+01
2.93691e-02,9.44045e+00
2.99280e-02,8.84756e+00
3.04975e-02,8.29027e+00
3.10778e-02,7.76657e+00
3.16692e-02,7.27455e+00
3.22719e-02,6.81240e+00
3.28860e-02,6.37840e+00
3.35118e-02,5.97092e+00
3.41495e-02,5.58845e+00
3.47994e-02,5.22951e+00
3.54616e-02,4.89274e+00
3.61364e-02,4.57684e+00
3.68241e-02,4.28057e+00
3.75248e-02,4.00278e+00
3.82389e-02,3.74238e+00
3.89666e-02,3.49831e+00
3.97081e-02,3.26961e+00
4.04637e-02,3.05536e+00
4.12338e-02,2.85468e+00
4.20184e-02,2.66674e+00
4.28180e-02,2.49079e+00
4.36328e-02,2.32607e+00
4.44631e-02,2.17192e+00
4.53093e-02,2.02767e+00
4.61715e-02,1.89271e+00
4.70501e-02,1.76648e+00
4.79454e-02,1.64842e+00
4.88578e-02,1.53804e+00
4.97876e-02,1.43484e+00
5.07350e-02,1.33838e+00
5.17005e-02,1.24823e+00
5.26843e-02,1.16400e+00
5.36869e-02,1.08531e+00
5.47085e-02,1.01181e+00
5.57496e-02,9.43158e-01
5.68105e-02,8.79055e-01
5.78916e-02,8.19207e-01
5.89932e-02,7.63339e-01
6.01158e-02,7.11194e-01
6.12598e-02,6.62532e-01
6.24256e-02,6.17126e-01
6.36135e-02,5.74764e-01
6.48241e-02,5.35249e-01
6.60576e-02,4.98393e-01
6.73147e-02,4.64022e-01
6.85957e-02,4.31973e-01
6.99010e-02,4.02093e-01
7.12312e-02,3.74239e-01
7.25867e-02,3.48276e-01
7.39680e-02,3.24079e-01
7.53756e-02,3.01530e-01
7.68099e-02,2.80520e-01
7.82716e-02,2.60945e-01
7.97611e-02,2.42710e-01
8.12789e-02,2.25725e-01
8.28256e-02,2.09905e-01
8.44018e-02,1.95173e-01
8.60079e-02,1.81455e-01
8.76446e-02,1.68682e-01
8.93124e-02,1.56790e-01
9.10120e-02,1.45720e-01
9.27439e-02,1.35416e-01
9.45088e-02,1.25825e-01
9.63073e-02,1.16899e-01
9.81400e-02,1.08593e-01
1.00008e-01,1.00864e-01
1.01911e-01,9.36722e-02
1.03850e-01,8.69816e-02
1.05826e-01,8.07573e-02
1.07840e-01,7.49672e-02
1.09892e-01,6.95816e-02
1.11983e-01,6.45724e-02
1.14114e-01,5.99138e-02
1.16286e-01,5.55813e-02
1.18499e-01,5.15526e-02
1.20754e-01,4.78064e-02
1.23052e-01,4.43232e-02
1.25393e-01,4.10848e-02
1.27779e-01,3.80741e-02
1.30211e-01,3.52753e-02
1.32689e-01,3.26735e-02
1.35214e-01,3.02551e-02
1.37787e-01,2.80072e-02
1.40409e-01,2.59180e-02
1.43081e-01,2.39762e-02
1.45804e-01,2.21717e-02
1.48578e-01,2.04947e-02
1.51406e-01,1.89364e-02
1.54287e-01,1.74884e-02
1.57223e-01,1.61429e-02
1.60215e-01,1.48927e-02
1.63264e-01,1.37312e-02
1.66371e-01,1.26521e-02
1.69537e-01,1.16495e-02
1.72763e-01,1.07182e-02
1.76050e-01,9.85299e-03
1.79400e-01,9.04928e-03
1.82814e-01,8.30272e-03
1.86293e-01,7.60926e-03
1.89838e-01,6.96514e-03
1.93451e-01,6.36688e-03
1.97132e-01,5.81123e-03
2.00884e-01,5.29517e-03
2.04706e-01,4.81588e-03
2.08602e-01,4.37077e-03
2.12571e-01,3.95741e-03
2.16617e-01,3.57353e-03
2.20739e-01,3.21706e-03
2.24939e-01,2.88603e-03
2.29220e-01,2.57864e-03
2.33582e-01,2.29321e-03
2.38027e-01,2.02818e-03
2.42556e-01,1.78210e-03
2.47172e-01,1.55360e-03
2.51876e-01,1.34145e-03
2.56669e-01,1.14447e-03
2.61553e-01,9.61591e-04
2.66530e-01,7.91798e-04
2.71602e-01,6.34160e-04
2.76771e-01,4.87810e-04
2.82038e-01,3.51941e-04
2.87405e-01,2.25805e-04
2.92874e-01,1.08707e-04
2.98447e-01,0.00000e+00
