m1=35365.845, m2=56.905, gsp=2.274, rhosp=38.465
fGW[Hz],dPh[rad]
2.03971e-03,2.45357e+03
2.08229e-03,2.34214e+03
2.12575e-03,2.23565e+03
2.17012e-03,2.13388e+03
2.21542e-03,2.03664e+03
2.26166e-03,1.94372e+03
2.30887e-03,1.85493e+03
2.35706e-03,1.77008e+03
2.40626e-03,1.68902e+03
2.45648e-03,1.61157e+03
2.50776e-03,1.53757e+03
2.56010e-03,1.46688e+03
2.61354e-03,1.39934e+03
2.66809e-03,1.33482e+03
2.72378e-03,1.27318e+03
2.78063e-03,1.21431e+03
2.83867e-03,1.15807e+03
2.89793e-03,1.10436e+03
2.95841e-03,1.05305e+03
3.02016e-03,1.00405e+03
3.08320e-03,9.57260e+02
3.14756e-03,9.12571e+02
3.21326e-03,8.69896e+02
3.28033e-03,8.29146e+02
3.34880e-03,7.90237e+02
3.41869e-03,7.53086e+02
3.49005e-03,7.17617e+02
3.56290e-03,6.83755e+02
3.63727e-03,6.51429e+02
3.71319e-03,6.20571e+02
3.79069e-03,5.91116e+02
3.86981e-03,5.63003e+02
3.95059e-03,5.36172e+02
4.03305e-03,5.10566e+02
4.11723e-03,4.86130e+02
4.20317e-03,4.62814e+02
4.29090e-03,4.40566e+02
4.38046e-03,4.19340e+02
4.47190e-03,3.99091e+02
4.56524e-03,3.79774e+02
4.66053e-03,3.61349e+02
4.75780e-03,3.43775e+02
4.85711e-03,3.27014e+02
4.95849e-03,3.11031e+02
5.06199e-03,2.95791e+02
5.16765e-03,2.81260e+02
5.27551e-03,2.67407e+02
5.38563e-03,2.54200e+02
5.49804e-03,2.41612e+02
5.61280e-03,2.29615e+02
5.72996e-03,2.18181e+02
5.84956e-03,2.07286e+02
5.97165e-03,1.96906e+02
6.09630e-03,1.87016e+02
6.22355e-03,1.77596e+02
6.35345e-03,1.68623e+02
6.48606e-03,1.60077e+02
6.62145e-03,1.51940e+02
6.75965e-03,1.44192e+02
6.90075e-03,1.36816e+02
7.04478e-03,1.29795e+02
7.19183e-03,1.23113e+02
7.34194e-03,1.16753e+02
7.49519e-03,1.10703e+02
7.65164e-03,1.04946e+02
7.81135e-03,9.94705e+01
7.97439e-03,9.42626e+01
8.14084e-03,8.93103e+01
8.31076e-03,8.46017e+01
8.48423e-03,8.01255e+01
8.66132e-03,7.58709e+01
8.84211e-03,7.18277e+01
9.02667e-03,6.79860e+01
9.21508e-03,6.43363e+01
9.40742e-03,6.08697e+01
9.60378e-03,5.75776e+01
9.80424e-03,5.44518e+01
1.00089e-02,5.14844e+01
1.02178e-02,4.86680e+01
1.04311e-02,4.59954e+01
1.06488e-02,4.34597e+01
1.08711e-02,4.10544e+01
1.10980e-02,3.87733e+01
1.13296e-02,3.66104e+01
1.15661e-02,3.45601e+01
1.18075e-02,3.26168e+01
1.20540e-02,3.07754e+01
1.23056e-02,2.90310e+01
1.25624e-02,2.73788e+01
1.28246e-02,2.58143e+01
1.30923e-02,2.43331e+01
1.33656e-02,2.29313e+01
1.36446e-02,2.16048e+01
1.39294e-02,2.03499e+01
1.42201e-02,1.91630e+01
1.45169e-02,1.80408e+01
1.48200e-02,1.69799e+01
1.51293e-02,1.59773e+01
1.54451e-02,1.50300e+01
1.57675e-02,1.41352e+01
1.60966e-02,1.32902e+01
1.64325e-02,1.24925e+01
1.67755e-02,1.17396e+01
1.71257e-02,1.10291e+01
1.74832e-02,1.03589e+01
1.78481e-02,9.72690e+00
1.82206e-02,9.13103e+00
1.86009e-02,8.56939e+00
1.89892e-02,8.04017e+00
1.93855e-02,7.54164e+00
1.97902e-02,7.07215e+00
2.02033e-02,6.63014e+00
2.06250e-02,6.21410e+00
2.10555e-02,5.82264e+00
2.14949e-02,5.45440e+00
2.19436e-02,5.10810e+00
2.24016e-02,4.78254e+00
2.28692e-02,4.47655e+00
2.33466e-02,4.18904e+00
2.38339e-02,3.91898e+00
2.43313e-02,3.66537e+00
2.48392e-02,3.42729e+00
2.53577e-02,3.20384e+00
2.58870e-02,2.99419e+00
2.64273e-02,2.79754e+00
2.69789e-02,2.61313e+00
2.75420e-02,2.44026e+00
2.81169e-02,2.27824e+00
2.87038e-02,2.12644e+00
2.93029e-02,1.98425e+00
2.99146e-02,1.85111e+00
3.05390e-02,1.72646e+00
3.11764e-02,1.60980e+00
3.18271e-02,1.50064e+00
3.24914e-02,1.39854e+00
3.31696e-02,1.30305e+00
3.38620e-02,1.21378e+00
3.45688e-02,1.13034e+00
3.52903e-02,1.05237e+00
3.60269e-02,9.79527e-01
3.67789e-02,9.11496e-01
3.75466e-02,8.47972e-01
3.83303e-02,7.88671e-01
3.91304e-02,7.33326e-01
3.99471e-02,6.81685e-01
4.07809e-02,6.33511e-01
4.16321e-02,5.88582e-01
4.25011e-02,5.46689e-01
4.33882e-02,5.07635e-01
4.42939e-02,4.71236e-01
4.52184e-02,4.37319e-01
4.61622e-02,4.05721e-01
4.71258e-02,3.76290e-01
4.81094e-02,3.48882e-01
4.91136e-02,3.23365e-01
5.01388e-02,2.99611e-01
5.11853e-02,2.77503e-01
5.22537e-02,2.56932e-01
5.33444e-02,2.37794e-01
5.44578e-02,2.19991e-01
5.55945e-02,2.03435e-01
5.67549e-02,1.88041e-01
5.79395e-02,1.73729e-01
5.91489e-02,1.60425e-01
6.03835e-02,1.48061e-01
6.16439e-02,1.36572e-01
6.29306e-02,1.25897e-01
6.42441e-02,1.15981e-01
6.55850e-02,1.06771e-01
6.69540e-02,9.82174e-02
6.83515e-02,9.02752e-02
6.97782e-02,8.29016e-02
7.12347e-02,7.60566e-02
7.27215e-02,6.97034e-02
7.42394e-02,6.38072e-02
7.57890e-02,5.83359e-02
7.73710e-02,5.32596e-02
7.89859e-02,4.85501e-02
8.06346e-02,4.41816e-02
8.23176e-02,4.01298e-02
8.40358e-02,3.63721e-02
8.57899e-02,3.28876e-02
8.75806e-02,2.96567e-02
8.94086e-02,2.66613e-02
9.12748e-02,2.38845e-02
9.31800e-02,2.13106e-02
9.51249e-02,1.89249e-02
9.71105e-02,1.67140e-02
9.91374e-02,1.46652e-02
1.01207e-01,1.27667e-02
1.03319e-01,1.10077e-02
1.05476e-01,9.37802e-03
1.07677e-01,7.86834e-03
1.09925e-01,6.46989e-03
1.12219e-01,5.17459e-03
1.14562e-01,3.97490e-03
1.16953e-01,2.86385e-03
1.19394e-01,1.83495e-03
1.21886e-01,8.82193e-04
1.24430e-01,0.00000e+00
