m1=96130.676, m2=65.017, gsp=2.264, rhosp=21.296
fGW[Hz],dPh[rad]
1.51093e-03,2.62757e+03
1.53705e-03,2.51729e+03
1.56362e-03,2.41138e+03
1.59065e-03,2.30967e+03
1.61815e-03,2.21201e+03
1.64612e-03,2.11824e+03
1.67458e-03,2.02821e+03
1.70352e-03,1.94178e+03
1.73297e-03,1.85883e+03
1.76293e-03,1.77920e+03
1.79340e-03,1.70278e+03
1.82440e-03,1.62945e+03
1.85594e-03,1.55908e+03
1.88802e-03,1.49156e+03
1.92066e-03,1.42679e+03
1.95386e-03,1.36466e+03
1.98764e-03,1.30506e+03
2.02200e-03,1.24790e+03
2.05695e-03,1.19309e+03
2.09251e-03,1.14053e+03
2.12868e-03,1.09014e+03
2.16548e-03,1.04183e+03
2.20291e-03,9.95530e+02
2.24099e-03,9.51150e+02
2.27973e-03,9.08620e+02
2.31914e-03,8.67867e+02
2.35922e-03,8.28822e+02
2.40001e-03,7.91418e+02
2.44149e-03,7.55590e+02
2.48370e-03,7.21276e+02
2.52663e-03,6.88418e+02
2.57031e-03,6.56956e+02
2.61474e-03,6.26836e+02
2.65994e-03,5.98004e+02
2.70592e-03,5.70410e+02
2.75270e-03,5.44003e+02
2.80028e-03,5.18737e+02
2.84869e-03,4.94565e+02
2.89793e-03,4.71443e+02
2.94802e-03,4.49329e+02
2.99899e-03,4.28183e+02
3.05083e-03,4.07964e+02
3.10356e-03,3.88636e+02
3.15721e-03,3.70162e+02
3.21179e-03,3.52507e+02
3.26731e-03,3.35637e+02
3.32379e-03,3.19520e+02
3.38125e-03,3.04125e+02
3.43970e-03,2.89423e+02
3.49916e-03,2.75383e+02
3.55964e-03,2.61980e+02
3.62118e-03,2.49185e+02
3.68377e-03,2.36974e+02
3.74745e-03,2.25321e+02
3.81223e-03,2.14204e+02
3.87813e-03,2.03600e+02
3.94517e-03,1.93486e+02
4.01337e-03,1.83842e+02
4.08274e-03,1.74647e+02
4.15332e-03,1.65883e+02
4.22512e-03,1.57531e+02
4.29815e-03,1.49572e+02
4.37245e-03,1.41990e+02
4.44804e-03,1.34768e+02
4.52493e-03,1.27891e+02
4.60315e-03,1.21343e+02
4.68272e-03,1.15109e+02
4.76366e-03,1.09176e+02
4.84601e-03,1.03531e+02
4.92978e-03,9.81593e+01
5.01500e-03,9.30501e+01
5.10169e-03,8.81911e+01
5.18988e-03,8.35709e+01
5.27959e-03,7.91787e+01
5.37086e-03,7.50041e+01
5.46370e-03,7.10371e+01
5.55815e-03,6.72680e+01
5.65423e-03,6.36877e+01
5.75197e-03,6.02875e+01
5.85140e-03,5.70588e+01
5.95255e-03,5.39937e+01
6.05545e-03,5.10844e+01
6.16012e-03,4.83236e+01
6.26661e-03,4.57042e+01
6.37493e-03,4.32194e+01
6.48513e-03,4.08628e+01
6.59724e-03,3.86282e+01
6.71128e-03,3.65098e+01
6.82729e-03,3.45017e+01
6.94531e-03,3.25988e+01
7.06537e-03,3.07958e+01
7.18751e-03,2.90877e+01
7.31175e-03,2.74700e+01
7.43815e-03,2.59381e+01
7.56672e-03,2.44877e+01
7.69753e-03,2.31148e+01
7.83059e-03,2.18154e+01
7.96595e-03,2.05859e+01
8.10365e-03,1.94227e+01
8.24373e-03,1.83224e+01
8.38624e-03,1.72819e+01
8.53121e-03,1.62980e+01
8.67868e-03,1.53678e+01
8.82870e-03,1.44886e+01
8.98132e-03,1.36576e+01
9.13657e-03,1.28725e+01
9.29451e-03,1.21308e+01
9.45518e-03,1.14301e+01
9.61862e-03,1.07684e+01
9.78489e-03,1.01436e+01
9.95404e-03,9.55371e+00
1.01261e-02,8.99688e+00
1.03012e-02,8.47134e+00
1.04792e-02,7.97541e+00
1.06604e-02,7.50749e+00
1.08446e-02,7.06608e+00
1.10321e-02,6.64972e+00
1.12228e-02,6.25707e+00
1.14168e-02,5.88682e+00
1.16142e-02,5.53774e+00
1.18149e-02,5.20868e+00
1.20192e-02,4.89853e+00
1.22269e-02,4.60623e+00
1.24383e-02,4.33081e+00
1.26533e-02,4.07132e+00
1.28720e-02,3.82688e+00
1.30946e-02,3.59663e+00
1.33209e-02,3.37979e+00
1.35512e-02,3.17560e+00
1.37854e-02,2.98334e+00
1.40237e-02,2.80234e+00
1.42662e-02,2.63196e+00
1.45128e-02,2.47160e+00
1.47636e-02,2.32068e+00
1.50188e-02,2.17867e+00
1.52785e-02,2.04505e+00
1.55426e-02,1.91934e+00
1.58112e-02,1.80109e+00
1.60846e-02,1.68986e+00
1.63626e-02,1.58525e+00
1.66455e-02,1.48687e+00
1.69332e-02,1.39437e+00
1.72259e-02,1.30739e+00
1.75237e-02,1.22562e+00
1.78266e-02,1.14876e+00
1.81348e-02,1.07651e+00
1.84482e-02,1.00860e+00
1.87671e-02,9.44787e-01
1.90916e-02,8.84817e-01
1.94216e-02,8.28467e-01
1.97573e-02,7.75523e-01
2.00988e-02,7.25782e-01
2.04463e-02,6.79056e-01
2.07997e-02,6.35164e-01
2.11593e-02,5.93938e-01
2.15250e-02,5.55218e-01
2.18971e-02,5.18855e-01
2.22757e-02,4.84708e-01
2.26607e-02,4.52644e-01
2.30524e-02,4.22537e-01
2.34509e-02,3.94271e-01
2.38563e-02,3.67734e-01
2.42687e-02,3.42822e-01
2.46882e-02,3.19437e-01
2.51150e-02,2.97487e-01
2.55491e-02,2.76884e-01
2.59908e-02,2.57548e-01
2.64401e-02,2.39401e-01
2.68971e-02,2.22371e-01
2.73621e-02,2.06391e-01
2.78351e-02,1.91395e-01
2.83162e-02,1.77325e-01
2.88057e-02,1.64124e-01
2.93037e-02,1.51739e-01
2.98102e-02,1.40119e-01
3.03255e-02,1.29219e-01
3.08497e-02,1.18993e-01
3.13830e-02,1.09402e-01
3.19255e-02,1.00404e-01
3.24774e-02,9.19653e-02
3.30388e-02,8.40502e-02
3.36099e-02,7.66267e-02
3.41909e-02,6.96646e-02
3.47820e-02,6.31354e-02
3.53832e-02,5.70124e-02
3.59949e-02,5.12706e-02
3.66171e-02,4.58864e-02
3.72500e-02,4.08377e-02
3.78940e-02,3.61038e-02
3.85490e-02,3.16651e-02
3.92154e-02,2.75035e-02
3.98933e-02,2.36016e-02
4.05829e-02,1.99435e-02
4.12844e-02,1.65139e-02
4.19981e-02,1.32987e-02
4.27241e-02,1.02846e-02
4.34626e-02,7.45900e-03
4.42139e-02,4.81028e-03
4.49782e-02,2.32739e-03
4.57557e-02,0.00000e+00
