m1=16815.887, m2=50.246, gsp=2.159, rhosp=8068.563
fGW[Hz],dPh[rad]
2.57412e-03,9.17818e+02
2.63461e-03,8.70836e+02
2.69652e-03,8.26238e+02
2.75989e-03,7.83903e+02
2.82474e-03,7.43718e+02
2.89113e-03,7.05574e+02
2.95907e-03,6.69366e+02
3.02860e-03,6.34999e+02
3.09977e-03,6.02377e+02
3.17262e-03,5.71414e+02
3.24717e-03,5.42025e+02
3.32348e-03,5.14131e+02
3.40158e-03,4.87656e+02
3.48152e-03,4.62528e+02
3.56333e-03,4.38680e+02
3.64707e-03,4.16045e+02
3.73278e-03,3.94564e+02
3.82050e-03,3.74177e+02
3.91028e-03,3.54830e+02
4.00217e-03,3.36469e+02
4.09622e-03,3.19044e+02
4.19248e-03,3.02509e+02
4.29100e-03,2.86818e+02
4.39184e-03,2.71929e+02
4.49504e-03,2.57800e+02
4.60068e-03,2.44394e+02
4.70879e-03,2.31673e+02
4.81945e-03,2.19603e+02
4.93270e-03,2.08151e+02
5.04862e-03,1.97285e+02
5.16726e-03,1.86976e+02
5.28869e-03,1.77196e+02
5.41297e-03,1.67917e+02
5.54018e-03,1.59115e+02
5.67037e-03,1.50765e+02
5.80362e-03,1.42844e+02
5.94001e-03,1.35330e+02
6.07959e-03,1.28203e+02
6.22246e-03,1.21443e+02
6.36869e-03,1.15031e+02
6.51835e-03,1.08950e+02
6.67153e-03,1.03183e+02
6.82831e-03,9.77135e+01
6.98878e-03,9.25267e+01
7.15301e-03,8.76081e+01
7.32110e-03,8.29442e+01
7.49315e-03,7.85219e+01
7.66924e-03,7.43290e+01
7.84946e-03,7.03536e+01
8.03392e-03,6.65848e+01
8.22272e-03,6.30120e+01
8.41595e-03,5.96252e+01
8.61372e-03,5.64149e+01
8.81614e-03,5.33720e+01
9.02332e-03,5.04880e+01
9.23536e-03,4.77549e+01
9.45239e-03,4.51647e+01
9.67452e-03,4.27103e+01
9.90187e-03,4.03847e+01
1.01346e-02,3.81813e+01
1.03727e-02,3.60937e+01
1.06165e-02,3.41162e+01
1.08660e-02,3.22429e+01
1.11213e-02,3.04686e+01
1.13827e-02,2.87881e+01
1.16501e-02,2.71967e+01
1.19239e-02,2.56898e+01
1.22041e-02,2.42629e+01
1.24909e-02,2.29119e+01
1.27845e-02,2.16331e+01
1.30849e-02,2.04225e+01
1.33924e-02,1.92767e+01
1.37071e-02,1.81923e+01
1.40292e-02,1.71662e+01
1.43589e-02,1.61953e+01
1.46963e-02,1.52768e+01
1.50417e-02,1.44078e+01
1.53952e-02,1.35860e+01
1.57569e-02,1.28087e+01
1.61272e-02,1.20737e+01
1.65062e-02,1.13788e+01
1.68941e-02,1.07218e+01
1.72911e-02,1.01008e+01
1.76975e-02,9.51390e+00
1.81133e-02,8.95930e+00
1.85390e-02,8.43530e+00
1.89747e-02,7.94030e+00
1.94206e-02,7.47275e+00
1.98769e-02,7.03120e+00
2.03440e-02,6.61429e+00
2.08221e-02,6.22070e+00
2.13114e-02,5.84920e+00
2.18122e-02,5.49860e+00
2.23248e-02,5.16780e+00
2.28495e-02,4.85573e+00
2.33864e-02,4.56139e+00
2.39360e-02,4.28383e+00
2.44985e-02,4.02214e+00
2.50742e-02,3.77547e+00
2.56634e-02,3.54301e+00
2.62665e-02,3.32398e+00
2.68838e-02,3.11766e+00
2.75155e-02,2.92335e+00
2.81621e-02,2.74040e+00
2.88239e-02,2.56818e+00
2.95013e-02,2.40610e+00
3.01946e-02,2.25361e+00
3.09041e-02,2.11017e+00
3.16304e-02,1.97528e+00
3.23737e-02,1.84846e+00
3.31344e-02,1.72927e+00
3.39131e-02,1.61727e+00
3.47100e-02,1.51206e+00
3.55257e-02,1.41326e+00
3.63606e-02,1.32050e+00
3.72150e-02,1.23345e+00
3.80896e-02,1.15176e+00
3.89847e-02,1.07514e+00
3.99008e-02,1.00329e+00
4.08385e-02,9.35941e-01
4.17982e-02,8.72825e-01
4.27804e-02,8.13696e-01
4.37857e-02,7.58320e-01
4.48147e-02,7.06477e-01
4.58678e-02,6.57957e-01
4.69457e-02,6.12561e-01
4.80489e-02,5.70104e-01
4.91781e-02,5.30409e-01
5.03337e-02,4.93308e-01
5.15166e-02,4.58644e-01
5.27272e-02,4.26268e-01
5.39663e-02,3.96041e-01
5.52345e-02,3.67828e-01
5.65324e-02,3.41506e-01
5.78609e-02,3.16956e-01
5.92207e-02,2.94068e-01
6.06123e-02,2.72736e-01
6.20367e-02,2.52862e-01
6.34946e-02,2.34353e-01
6.49867e-02,2.17121e-01
6.65138e-02,2.01084e-01
6.80769e-02,1.86165e-01
6.96767e-02,1.72290e-01
7.13141e-02,1.59391e-01
7.29899e-02,1.47405e-01
7.47052e-02,1.36269e-01
7.64607e-02,1.25928e-01
7.82575e-02,1.16329e-01
8.00966e-02,1.07420e-01
8.19788e-02,9.91560e-02
8.39053e-02,9.14923e-02
8.58771e-02,8.43879e-02
8.78951e-02,7.78042e-02
8.99607e-02,7.17051e-02
9.20747e-02,6.60569e-02
9.42384e-02,6.08279e-02
9.64530e-02,5.59886e-02
9.87196e-02,5.15115e-02
1.01040e-01,4.73707e-02
1.03414e-01,4.35423e-02
1.05844e-01,4.00037e-02
1.08331e-01,3.67340e-02
1.10877e-01,3.37137e-02
1.13483e-01,3.09246e-02
1.16150e-01,2.83499e-02
1.18879e-01,2.59736e-02
1.21673e-01,2.37811e-02
1.24532e-01,2.17587e-02
1.27458e-01,1.98939e-02
1.30454e-01,1.81747e-02
1.33519e-01,1.65902e-02
1.36657e-01,1.51303e-02
1.39868e-01,1.37854e-02
1.43155e-01,1.25469e-02
1.46519e-01,1.14065e-02
1.49963e-01,1.03568e-02
1.53487e-01,9.39074e-03
1.57094e-01,8.50191e-03
1.60785e-01,7.68429e-03
1.64564e-01,6.93233e-03
1.68431e-01,6.24092e-03
1.72389e-01,5.60531e-03
1.76440e-01,5.02110e-03
1.80586e-01,4.48426e-03
1.84830e-01,3.99102e-03
1.89174e-01,3.53794e-03
1.93619e-01,3.12182e-03
1.98169e-01,2.73971e-03
2.02826e-01,2.38889e-03
2.07592e-01,2.06685e-03
2.12471e-01,1.77128e-03
2.17464e-01,1.50004e-03
2.22574e-01,1.25117e-03
2.27804e-01,1.02286e-03
2.33158e-01,8.13444e-04
2.38637e-01,6.21378e-04
2.44245e-01,4.45251e-04
2.49985e-01,2.83762e-04
2.55859e-01,1.35712e-04
2.61872e-01,0.00000e+00
