m1=159686.114, m2=43.948, gsp=2.142, rhosp=2724.803
fGW[Hz],dPh[rad]
1.54137e-03,1.57476e+03
1.56386e-03,1.50728e+03
1.58668e-03,1.44252e+03
1.60984e-03,1.38036e+03
1.63333e-03,1.32071e+03
1.65716e-03,1.26348e+03
1.68135e-03,1.20858e+03
1.70588e-03,1.15591e+03
1.73078e-03,1.10540e+03
1.75603e-03,1.05697e+03
1.78166e-03,1.01053e+03
1.80766e-03,9.66000e+02
1.83403e-03,9.23319e+02
1.86080e-03,8.82410e+02
1.88795e-03,8.43207e+02
1.91550e-03,8.05643e+02
1.94345e-03,7.69654e+02
1.97181e-03,7.35178e+02
2.00059e-03,7.02158e+02
2.02978e-03,6.70535e+02
2.05940e-03,6.40255e+02
2.08945e-03,6.11265e+02
2.11994e-03,5.83513e+02
2.15088e-03,5.56951e+02
2.18227e-03,5.31531e+02
2.21411e-03,5.07207e+02
2.24642e-03,4.83935e+02
2.27920e-03,4.61673e+02
2.31246e-03,4.40381e+02
2.34621e-03,4.20018e+02
2.38044e-03,4.00547e+02
2.41518e-03,3.81931e+02
2.45042e-03,3.64136e+02
2.48618e-03,3.47127e+02
2.52246e-03,3.30872e+02
2.55927e-03,3.15340e+02
2.59662e-03,3.00501e+02
2.63451e-03,2.86325e+02
2.67295e-03,2.72786e+02
2.71196e-03,2.59856e+02
2.75153e-03,2.47510e+02
2.79169e-03,2.35722e+02
2.83242e-03,2.24470e+02
2.87376e-03,2.13729e+02
2.91569e-03,2.03480e+02
2.95824e-03,1.93699e+02
3.00141e-03,1.84368e+02
3.04521e-03,1.75467e+02
3.08964e-03,1.66976e+02
3.13473e-03,1.58879e+02
3.18047e-03,1.51157e+02
3.22688e-03,1.43795e+02
3.27397e-03,1.36777e+02
3.32175e-03,1.30088e+02
3.37022e-03,1.23712e+02
3.41940e-03,1.17636e+02
3.46930e-03,1.11847e+02
3.51993e-03,1.06332e+02
3.57129e-03,1.01079e+02
3.62341e-03,9.60749e+01
3.67628e-03,9.13096e+01
3.72993e-03,8.67719e+01
3.78436e-03,8.24516e+01
3.83958e-03,7.83388e+01
3.89561e-03,7.44239e+01
3.95246e-03,7.06978e+01
4.01013e-03,6.71520e+01
4.06865e-03,6.37780e+01
4.12802e-03,6.05678e+01
4.18826e-03,5.75140e+01
4.24938e-03,5.46092e+01
4.31139e-03,5.18465e+01
4.37430e-03,4.92191e+01
4.43814e-03,4.67208e+01
4.50290e-03,4.43455e+01
4.56861e-03,4.20873e+01
4.63528e-03,3.99407e+01
4.70292e-03,3.79004e+01
4.77154e-03,3.59613e+01
4.84117e-03,3.41187e+01
4.91182e-03,3.23678e+01
4.98349e-03,3.07044e+01
5.05622e-03,2.91241e+01
5.13000e-03,2.76230e+01
5.20486e-03,2.61972e+01
5.28081e-03,2.48431e+01
5.35787e-03,2.35572e+01
5.43606e-03,2.23362e+01
5.51539e-03,2.11769e+01
5.59587e-03,2.00763e+01
5.67753e-03,1.90315e+01
5.76038e-03,1.80398e+01
5.84444e-03,1.70985e+01
5.92972e-03,1.62052e+01
6.01625e-03,1.53575e+01
6.10404e-03,1.45531e+01
6.19312e-03,1.37899e+01
6.28349e-03,1.30658e+01
6.37518e-03,1.23789e+01
6.46821e-03,1.17273e+01
6.56260e-03,1.11093e+01
6.65837e-03,1.05231e+01
6.75553e-03,9.96719e+00
6.85411e-03,9.44001e+00
6.95413e-03,8.94012e+00
7.05561e-03,8.46614e+00
7.15857e-03,8.01676e+00
7.26303e-03,7.59073e+00
7.36902e-03,7.18685e+00
7.47655e-03,6.80402e+00
7.58565e-03,6.44114e+00
7.69635e-03,6.09721e+00
7.80866e-03,5.77125e+00
7.92261e-03,5.46235e+00
8.03822e-03,5.16962e+00
8.15552e-03,4.89224e+00
8.27453e-03,4.62942e+00
8.39527e-03,4.38041e+00
8.51778e-03,4.14450e+00
8.64208e-03,3.92100e+00
8.76819e-03,3.70928e+00
8.89614e-03,3.50872e+00
9.02596e-03,3.31876e+00
9.15767e-03,3.13883e+00
9.29130e-03,2.96842e+00
9.42689e-03,2.80702e+00
9.56445e-03,2.65418e+00
9.70402e-03,2.50944e+00
9.84563e-03,2.37238e+00
9.98930e-03,2.24260e+00
1.01351e-02,2.11971e+00
1.02830e-02,2.00337e+00
1.04330e-02,1.89321e+00
1.05853e-02,1.78893e+00
1.07397e-02,1.69020e+00
1.08965e-02,1.59674e+00
1.10555e-02,1.50826e+00
1.12168e-02,1.42452e+00
1.13805e-02,1.34524e+00
1.15465e-02,1.27021e+00
1.17150e-02,1.19920e+00
1.18860e-02,1.13198e+00
1.20594e-02,1.06837e+00
1.22354e-02,1.00817e+00
1.24140e-02,9.51202e-01
1.25951e-02,8.97289e-01
1.27789e-02,8.46272e-01
1.29654e-02,7.97996e-01
1.31546e-02,7.52316e-01
1.33465e-02,7.09093e-01
1.35413e-02,6.68196e-01
1.37389e-02,6.29501e-01
1.39394e-02,5.92891e-01
1.41428e-02,5.58254e-01
1.43492e-02,5.25485e-01
1.45586e-02,4.94484e-01
1.47710e-02,4.65156e-01
1.49866e-02,4.37412e-01
1.52053e-02,4.11166e-01
1.54271e-02,3.86339e-01
1.56523e-02,3.62854e-01
1.58807e-02,3.40639e-01
1.61124e-02,3.19626e-01
1.63475e-02,2.99750e-01
1.65861e-02,2.80951e-01
1.68281e-02,2.63170e-01
1.70737e-02,2.46352e-01
1.73228e-02,2.30446e-01
1.75756e-02,2.15403e-01
1.78321e-02,2.01175e-01
1.80923e-02,1.87720e-01
1.83563e-02,1.74994e-01
1.86242e-02,1.62960e-01
1.88960e-02,1.51579e-01
1.91717e-02,1.40817e-01
1.94515e-02,1.30639e-01
1.97353e-02,1.21015e-01
2.00233e-02,1.11913e-01
2.03155e-02,1.03307e-01
2.06120e-02,9.51693e-02
2.09127e-02,8.74741e-02
2.12179e-02,8.01977e-02
2.15275e-02,7.33175e-02
2.18417e-02,6.68120e-02
2.21604e-02,6.06607e-02
2.24838e-02,5.48446e-02
2.28119e-02,4.93455e-02
2.31448e-02,4.41461e-02
2.34825e-02,3.92301e-02
2.38252e-02,3.45821e-02
2.41729e-02,3.01877e-02
2.45256e-02,2.60330e-02
2.48835e-02,2.21049e-02
2.52466e-02,1.83913e-02
2.56150e-02,1.48803e-02
2.59888e-02,1.15609e-02
2.63681e-02,8.42286e-03
2.67528e-02,5.45614e-03
2.71432e-02,2.65146e-03
2.75393e-02,0.00000e+00
