m1=4329.090, m2=44.122, gsp=2.214, rhosp=11.637
fGW[Hz],dPh[rad]
3.79765e-03,1.62552e+02
3.90591e-03,1.52824e+02
4.01727e-03,1.43678e+02
4.13180e-03,1.35078e+02
4.24960e-03,1.26992e+02
4.37075e-03,1.19390e+02
4.49536e-03,1.12242e+02
4.62352e-03,1.05521e+02
4.75533e-03,9.92025e+01
4.89090e-03,9.32614e+01
5.03034e-03,8.76755e+01
5.17375e-03,8.24235e+01
5.32125e-03,7.74856e+01
5.47296e-03,7.28429e+01
5.62899e-03,6.84779e+01
5.78947e-03,6.43739e+01
5.95453e-03,6.05153e+01
6.12429e-03,5.68874e+01
6.29889e-03,5.34766e+01
6.47846e-03,5.02697e+01
6.66316e-03,4.72547e+01
6.85313e-03,4.44200e+01
7.04850e-03,4.17549e+01
7.24945e-03,3.92493e+01
7.45613e-03,3.68936e+01
7.66870e-03,3.46788e+01
7.88733e-03,3.25966e+01
8.11220e-03,3.06390e+01
8.34347e-03,2.87985e+01
8.58134e-03,2.70683e+01
8.82599e-03,2.54415e+01
9.07761e-03,2.39122e+01
9.33641e-03,2.24745e+01
9.60259e-03,2.11228e+01
9.87635e-03,1.98521e+01
1.01579e-02,1.86575e+01
1.04475e-02,1.75345e+01
1.07454e-02,1.64787e+01
1.10517e-02,1.54862e+01
1.13668e-02,1.45531e+01
1.16909e-02,1.36760e+01
1.20242e-02,1.28515e+01
1.23670e-02,1.20764e+01
1.27195e-02,1.13477e+01
1.30822e-02,1.06628e+01
1.34551e-02,1.00189e+01
1.38387e-02,9.41371e+00
1.42333e-02,8.84479e+00
1.46390e-02,8.31002e+00
1.50564e-02,7.80734e+00
1.54856e-02,7.33484e+00
1.59271e-02,6.89071e+00
1.63812e-02,6.47327e+00
1.68482e-02,6.08089e+00
1.73286e-02,5.71210e+00
1.78226e-02,5.36548e+00
1.83307e-02,5.03969e+00
1.88533e-02,4.73350e+00
1.93908e-02,4.44573e+00
1.99436e-02,4.17527e+00
2.05122e-02,3.92109e+00
2.10970e-02,3.68222e+00
2.16985e-02,3.45774e+00
2.23171e-02,3.24678e+00
2.29533e-02,3.04854e+00
2.36077e-02,2.86225e+00
2.42808e-02,2.68719e+00
2.49730e-02,2.52271e+00
2.56850e-02,2.36815e+00
2.64172e-02,2.22293e+00
2.71704e-02,2.08648e+00
2.79450e-02,1.95828e+00
2.87417e-02,1.83784e+00
2.95611e-02,1.72468e+00
3.04038e-02,1.61838e+00
3.12706e-02,1.51851e+00
3.21622e-02,1.42470e+00
3.30791e-02,1.33658e+00
3.40221e-02,1.25381e+00
3.49921e-02,1.17607e+00
3.59897e-02,1.10305e+00
3.70158e-02,1.03447e+00
3.80711e-02,9.70062e-01
3.91564e-02,9.09579e-01
4.02728e-02,8.52782e-01
4.14209e-02,7.99451e-01
4.26018e-02,7.49375e-01
4.38164e-02,7.02360e-01
4.50656e-02,6.58220e-01
4.63504e-02,6.16783e-01
4.76718e-02,5.77886e-01
4.90309e-02,5.41374e-01
5.04287e-02,5.07105e-01
5.18664e-02,4.74943e-01
5.33451e-02,4.44760e-01
5.48659e-02,4.16437e-01
5.64301e-02,3.89862e-01
5.80389e-02,3.64929e-01
5.96936e-02,3.41538e-01
6.13954e-02,3.19596e-01
6.31458e-02,2.99015e-01
6.49460e-02,2.79713e-01
6.67976e-02,2.61611e-01
6.87020e-02,2.44638e-01
7.06606e-02,2.28725e-01
7.26751e-02,2.13806e-01
7.47471e-02,1.99822e-01
7.68781e-02,1.86716e-01
7.90698e-02,1.74433e-01
8.13241e-02,1.62925e-01
8.36426e-02,1.52142e-01
8.60272e-02,1.42042e-01
8.84798e-02,1.32582e-01
9.10023e-02,1.23724e-01
9.35967e-02,1.15429e-01
9.62651e-02,1.07664e-01
9.90096e-02,1.00396e-01
1.01832e-01,9.35939e-02
1.04735e-01,8.72296e-02
1.07721e-01,8.12758e-02
1.10792e-01,7.57071e-02
1.13951e-01,7.04996e-02
1.17200e-01,6.56310e-02
1.20541e-01,6.10802e-02
1.23978e-01,5.68273e-02
1.27512e-01,5.28537e-02
1.31148e-01,4.91421e-02
1.34886e-01,4.56759e-02
1.38732e-01,4.24398e-02
1.42687e-01,3.94192e-02
1.46755e-01,3.66006e-02
1.50939e-01,3.39712e-02
1.55242e-01,3.15190e-02
1.59668e-01,2.92327e-02
1.64220e-01,2.71017e-02
1.68902e-01,2.51161e-02
1.73717e-01,2.32666e-02
1.78670e-01,2.15444e-02
1.83764e-01,1.99413e-02
1.89003e-01,1.84495e-02
1.94391e-01,1.70619e-02
1.99933e-01,1.57716e-02
2.05633e-01,1.45722e-02
2.11496e-01,1.34578e-02
2.17525e-01,1.24228e-02
2.23727e-01,1.14618e-02
2.30105e-01,1.05700e-02
2.36665e-01,9.74267e-03
2.43412e-01,8.97554e-03
2.50352e-01,8.26451e-03
2.57489e-01,7.60578e-03
2.64830e-01,6.99577e-03
2.72380e-01,6.43114e-03
2.80146e-01,5.90875e-03
2.88133e-01,5.42567e-03
2.96347e-01,4.97917e-03
3.04796e-01,4.56667e-03
3.13485e-01,4.18576e-03
3.22423e-01,3.83421e-03
3.31615e-01,3.50992e-03
3.41069e-01,3.21091e-03
3.50793e-01,2.93538e-03
3.60794e-01,2.68159e-03
3.71080e-01,2.44796e-03
3.81659e-01,2.23300e-03
3.92540e-01,2.03532e-03
4.03731e-01,1.85362e-03
4.15241e-01,1.68671e-03
4.27079e-01,1.53346e-03
4.39255e-01,1.39283e-03
4.51778e-01,1.26385e-03
4.64658e-01,1.14561e-03
4.77905e-01,1.03727e-03
4.91530e-01,9.38071e-04
5.05543e-01,8.47274e-04
5.19956e-01,7.64215e-04
5.34780e-01,6.88274e-04
5.50026e-01,6.18876e-04
5.65707e-01,5.55490e-04
5.81835e-01,4.97624e-04
5.98423e-01,4.44823e-04
6.15484e-01,3.96669e-04
6.33031e-01,3.52772e-04
6.51078e-01,3.12777e-04
6.69640e-01,2.76352e-04
6.88731e-01,2.43196e-04
7.08367e-01,2.13028e-04
7.28562e-01,1.85591e-04
7.49333e-01,1.60650e-04
7.70696e-01,1.37986e-04
7.92668e-01,1.17400e-04
8.15266e-01,9.87108e-05
8.38509e-01,8.17491e-05
8.62415e-01,6.63617e-05
8.87002e-01,5.24077e-05
9.12290e-01,3.97585e-05
9.38299e-01,2.82962e-05
9.65049e-01,1.79131e-05
9.92562e-01,8.51102e-06
1.02086e+00,0.00000e+00
