m1=170639.362, m2=8.075, gsp=2.386, rhosp=219.016
fGW[Hz],dPh[rad]
2.86168e-03,5.32337e+04
2.89346e-03,5.11653e+04
2.92559e-03,4.91758e+04
2.95808e-03,4.72624e+04
2.99093e-03,4.54222e+04
3.02415e-03,4.36525e+04
3.05773e-03,4.19506e+04
3.09169e-03,4.03139e+04
3.12602e-03,3.87401e+04
3.16074e-03,3.72268e+04
3.19584e-03,3.57717e+04
3.23133e-03,3.43726e+04
3.26721e-03,3.30274e+04
3.30350e-03,3.17341e+04
3.34018e-03,3.04907e+04
3.37728e-03,2.92953e+04
3.41478e-03,2.81461e+04
3.45270e-03,2.70414e+04
3.49105e-03,2.59794e+04
3.52981e-03,2.49586e+04
3.56901e-03,2.39774e+04
3.60865e-03,2.30342e+04
3.64872e-03,2.21276e+04
3.68924e-03,2.12563e+04
3.73021e-03,2.04188e+04
3.77164e-03,1.96140e+04
3.81352e-03,1.88404e+04
3.85587e-03,1.80970e+04
3.89869e-03,1.73826e+04
3.94199e-03,1.66961e+04
3.98576e-03,1.60363e+04
4.03003e-03,1.54023e+04
4.07478e-03,1.47931e+04
4.12003e-03,1.42077e+04
4.16578e-03,1.36453e+04
4.21205e-03,1.31048e+04
4.25882e-03,1.25855e+04
4.30612e-03,1.20866e+04
4.35394e-03,1.16073e+04
4.40229e-03,1.11467e+04
4.45118e-03,1.07042e+04
4.50061e-03,1.02792e+04
4.55059e-03,9.87078e+03
4.60112e-03,9.47847e+03
4.65222e-03,9.10159e+03
4.70388e-03,8.73954e+03
4.75612e-03,8.39175e+03
4.80894e-03,8.05767e+03
4.86234e-03,7.73676e+03
4.91634e-03,7.42850e+03
4.97094e-03,7.13240e+03
5.02614e-03,6.84800e+03
5.08195e-03,6.57482e+03
5.13839e-03,6.31244e+03
5.19545e-03,6.06043e+03
5.25315e-03,5.81838e+03
5.31149e-03,5.58591e+03
5.37047e-03,5.36264e+03
5.43011e-03,5.14821e+03
5.49041e-03,4.94227e+03
5.55139e-03,4.74450e+03
5.61304e-03,4.55456e+03
5.67537e-03,4.37215e+03
5.73839e-03,4.19698e+03
5.80212e-03,4.02876e+03
5.86655e-03,3.86721e+03
5.93170e-03,3.71209e+03
5.99758e-03,3.56312e+03
6.06418e-03,3.42007e+03
6.13152e-03,3.28271e+03
6.19962e-03,3.15081e+03
6.26846e-03,3.02416e+03
6.33808e-03,2.90255e+03
6.40846e-03,2.78577e+03
6.47963e-03,2.67365e+03
6.55159e-03,2.56599e+03
6.62434e-03,2.46262e+03
6.69791e-03,2.36337e+03
6.77229e-03,2.26807e+03
6.84750e-03,2.17658e+03
6.92354e-03,2.08873e+03
7.00043e-03,2.00439e+03
7.07817e-03,1.92341e+03
7.15677e-03,1.84567e+03
7.23625e-03,1.77102e+03
7.31661e-03,1.69936e+03
7.39786e-03,1.63057e+03
7.48001e-03,1.56452e+03
7.56308e-03,1.50111e+03
7.64707e-03,1.44023e+03
7.73199e-03,1.38179e+03
7.81786e-03,1.32568e+03
7.90468e-03,1.27182e+03
7.99246e-03,1.22012e+03
8.08122e-03,1.17048e+03
8.17096e-03,1.12283e+03
8.26170e-03,1.07709e+03
8.35345e-03,1.03318e+03
8.44621e-03,9.91027e+02
8.54001e-03,9.50564e+02
8.63485e-03,9.11721e+02
8.73074e-03,8.74435e+02
8.82770e-03,8.38644e+02
8.92573e-03,8.04287e+02
9.02485e-03,7.71308e+02
9.12507e-03,7.39651e+02
9.22641e-03,7.09264e+02
9.32887e-03,6.80096e+02
9.43247e-03,6.52098e+02
9.53722e-03,6.25224e+02
9.64313e-03,5.99429e+02
9.75022e-03,5.74668e+02
9.85850e-03,5.50902e+02
9.96798e-03,5.28091e+02
1.00787e-02,5.06195e+02
1.01906e-02,4.85179e+02
1.03038e-02,4.65007e+02
1.04182e-02,4.45646e+02
1.05339e-02,4.27062e+02
1.06509e-02,4.09226e+02
1.07691e-02,3.92106e+02
1.08887e-02,3.75674e+02
1.10097e-02,3.59904e+02
1.11319e-02,3.44767e+02
1.12555e-02,3.30239e+02
1.13805e-02,3.16295e+02
1.15069e-02,3.02913e+02
1.16347e-02,2.90068e+02
1.17639e-02,2.77741e+02
1.18946e-02,2.65909e+02
1.20267e-02,2.54554e+02
1.21602e-02,2.43656e+02
1.22953e-02,2.33196e+02
1.24318e-02,2.23158e+02
1.25698e-02,2.13523e+02
1.27094e-02,2.04277e+02
1.28506e-02,1.95403e+02
1.29933e-02,1.86886e+02
1.31376e-02,1.78712e+02
1.32835e-02,1.70868e+02
1.34310e-02,1.63339e+02
1.35801e-02,1.56114e+02
1.37310e-02,1.49180e+02
1.38834e-02,1.42526e+02
1.40376e-02,1.36139e+02
1.41935e-02,1.30010e+02
1.43511e-02,1.24128e+02
1.45105e-02,1.18484e+02
1.46716e-02,1.13066e+02
1.48346e-02,1.07867e+02
1.49993e-02,1.02878e+02
1.51659e-02,9.80901e+01
1.53343e-02,9.34951e+01
1.55046e-02,8.90854e+01
1.56768e-02,8.48536e+01
1.58509e-02,8.07925e+01
1.60269e-02,7.68952e+01
1.62049e-02,7.31551e+01
1.63848e-02,6.95658e+01
1.65668e-02,6.61215e+01
1.67508e-02,6.28160e+01
1.69368e-02,5.96440e+01
1.71249e-02,5.66000e+01
1.73150e-02,5.36788e+01
1.75073e-02,5.08755e+01
1.77018e-02,4.81853e+01
1.78983e-02,4.56038e+01
1.80971e-02,4.31264e+01
1.82981e-02,4.07491e+01
1.85013e-02,3.84677e+01
1.87067e-02,3.62784e+01
1.89145e-02,3.41775e+01
1.91245e-02,3.21615e+01
1.93369e-02,3.02269e+01
1.95516e-02,2.83703e+01
1.97688e-02,2.65888e+01
1.99883e-02,2.48792e+01
2.02103e-02,2.32387e+01
2.04347e-02,2.16644e+01
2.06616e-02,2.01537e+01
2.08911e-02,1.87040e+01
2.11231e-02,1.73129e+01
2.13577e-02,1.59779e+01
2.15949e-02,1.46969e+01
2.18347e-02,1.34677e+01
2.20771e-02,1.22881e+01
2.23223e-02,1.11562e+01
2.25702e-02,1.00700e+01
2.28209e-02,9.02773e+00
2.30743e-02,8.02755e+00
2.33305e-02,7.06779e+00
2.35896e-02,6.14681e+00
2.38516e-02,5.26306e+00
2.41165e-02,4.41502e+00
2.43843e-02,3.60125e+00
2.46551e-02,2.82038e+00
2.49289e-02,2.07106e+00
2.52057e-02,1.35204e+00
2.54856e-02,6.62073e-01
2.57686e-02,0.00000e+00
