m1=107361.353, m2=6.108, gsp=2.164, rhosp=2890.677
fGW[Hz],dPh[rad]
3.56774e-03,3.57519e+03
3.61177e-03,3.41978e+03
3.65634e-03,3.27094e+03
3.70145e-03,3.12842e+03
3.74713e-03,2.99196e+03
3.79337e-03,2.86129e+03
3.84018e-03,2.73620e+03
3.88756e-03,2.61644e+03
3.93554e-03,2.50179e+03
3.98410e-03,2.39206e+03
4.03326e-03,2.28702e+03
4.08303e-03,2.18649e+03
4.13341e-03,2.09029e+03
4.18442e-03,1.99822e+03
4.23605e-03,1.91012e+03
4.28833e-03,1.82582e+03
4.34124e-03,1.74516e+03
4.39481e-03,1.66800e+03
4.44904e-03,1.59417e+03
4.50394e-03,1.52355e+03
4.55952e-03,1.45599e+03
4.61578e-03,1.39137e+03
4.67274e-03,1.32957e+03
4.73040e-03,1.27046e+03
4.78877e-03,1.21392e+03
4.84787e-03,1.15986e+03
4.90769e-03,1.10816e+03
4.96825e-03,1.05873e+03
5.02956e-03,1.01146e+03
5.09162e-03,9.66270e+02
5.15445e-03,9.23063e+02
5.21805e-03,8.81755e+02
5.28244e-03,8.42266e+02
5.34763e-03,8.04517e+02
5.41361e-03,7.68434e+02
5.48042e-03,7.33943e+02
5.54804e-03,7.00977e+02
5.61651e-03,6.69470e+02
5.68581e-03,6.39357e+02
5.75597e-03,6.10580e+02
5.82700e-03,5.83079e+02
5.89890e-03,5.56799e+02
5.97169e-03,5.31688e+02
6.04538e-03,5.07693e+02
6.11998e-03,4.84766e+02
6.19550e-03,4.62862e+02
6.27195e-03,4.41934e+02
6.34935e-03,4.21940e+02
6.42770e-03,4.02839e+02
6.50701e-03,3.84592e+02
6.58731e-03,3.67161e+02
6.66859e-03,3.50510e+02
6.75088e-03,3.34606e+02
6.83419e-03,3.19415e+02
6.91852e-03,3.04905e+02
7.00389e-03,2.91047e+02
7.09032e-03,2.77812e+02
7.17781e-03,2.65171e+02
7.26638e-03,2.53100e+02
7.35605e-03,2.41571e+02
7.44682e-03,2.30563e+02
7.53871e-03,2.20050e+02
7.63174e-03,2.10012e+02
7.72591e-03,2.00427e+02
7.82125e-03,1.91275e+02
7.91776e-03,1.82536e+02
8.01546e-03,1.74192e+02
8.11437e-03,1.66226e+02
8.21450e-03,1.58621e+02
8.31586e-03,1.51360e+02
8.41848e-03,1.44428e+02
8.52236e-03,1.37811e+02
8.62753e-03,1.31493e+02
8.73399e-03,1.25463e+02
8.84176e-03,1.19706e+02
8.95087e-03,1.14211e+02
9.06132e-03,1.08965e+02
9.17313e-03,1.03958e+02
9.28633e-03,9.91794e+01
9.40092e-03,9.46179e+01
9.51692e-03,9.02642e+01
9.63436e-03,8.61088e+01
9.75325e-03,8.21428e+01
9.87360e-03,7.83577e+01
9.99544e-03,7.47453e+01
1.01188e-02,7.12977e+01
1.02436e-02,6.80075e+01
1.03700e-02,6.48676e+01
1.04980e-02,6.18712e+01
1.06276e-02,5.90118e+01
1.07587e-02,5.62831e+01
1.08915e-02,5.36792e+01
1.10258e-02,5.11945e+01
1.11619e-02,4.88235e+01
1.12996e-02,4.65611e+01
1.14391e-02,4.44024e+01
1.15802e-02,4.23425e+01
1.17231e-02,4.03771e+01
1.18678e-02,3.85018e+01
1.20142e-02,3.67126e+01
1.21625e-02,3.50054e+01
1.23126e-02,3.33765e+01
1.24645e-02,3.18225e+01
1.26183e-02,3.03398e+01
1.27740e-02,2.89252e+01
1.29316e-02,2.75757e+01
1.30912e-02,2.62881e+01
1.32528e-02,2.50598e+01
1.34163e-02,2.38879e+01
1.35819e-02,2.27700e+01
1.37494e-02,2.17034e+01
1.39191e-02,2.06860e+01
1.40909e-02,1.97154e+01
1.42647e-02,1.87895e+01
1.44408e-02,1.79062e+01
1.46190e-02,1.70636e+01
1.47994e-02,1.62599e+01
1.49820e-02,1.54932e+01
1.51669e-02,1.47618e+01
1.53540e-02,1.40641e+01
1.55435e-02,1.33987e+01
1.57353e-02,1.27639e+01
1.59294e-02,1.21584e+01
1.61260e-02,1.15808e+01
1.63250e-02,1.10299e+01
1.65265e-02,1.05045e+01
1.67304e-02,1.00032e+01
1.69368e-02,9.52519e+00
1.71458e-02,9.06920e+00
1.73574e-02,8.63428e+00
1.75716e-02,8.21946e+00
1.77884e-02,7.82380e+00
1.80079e-02,7.44643e+00
1.82301e-02,7.08651e+00
1.84551e-02,6.74323e+00
1.86828e-02,6.41582e+00
1.89134e-02,6.10355e+00
1.91467e-02,5.80572e+00
1.93830e-02,5.52168e+00
1.96222e-02,5.25077e+00
1.98643e-02,4.99241e+00
2.01095e-02,4.74600e+00
2.03576e-02,4.51099e+00
2.06088e-02,4.28687e+00
2.08631e-02,4.07312e+00
2.11206e-02,3.86927e+00
2.13812e-02,3.67486e+00
2.16450e-02,3.48945e+00
2.19121e-02,3.31263e+00
2.21825e-02,3.14401e+00
2.24562e-02,2.98320e+00
2.27333e-02,2.82983e+00
2.30139e-02,2.68358e+00
2.32978e-02,2.54411e+00
2.35853e-02,2.41110e+00
2.38764e-02,2.28425e+00
2.41710e-02,2.16329e+00
2.44693e-02,2.04794e+00
2.47712e-02,1.93793e+00
2.50769e-02,1.83303e+00
2.53863e-02,1.73299e+00
2.56996e-02,1.63760e+00
2.60167e-02,1.54663e+00
2.63377e-02,1.45988e+00
2.66627e-02,1.37715e+00
2.69918e-02,1.29826e+00
2.73248e-02,1.22304e+00
2.76620e-02,1.15130e+00
2.80034e-02,1.08290e+00
2.83489e-02,1.01767e+00
2.86987e-02,9.55465e-01
2.90529e-02,8.96150e-01
2.94114e-02,8.39590e-01
2.97743e-02,7.85655e-01
3.01417e-02,7.34226e-01
3.05136e-02,6.85184e-01
3.08902e-02,6.38420e-01
3.12713e-02,5.93828e-01
3.16572e-02,5.51307e-01
3.20479e-02,5.10761e-01
3.24433e-02,4.72099e-01
3.28437e-02,4.35233e-01
3.32490e-02,4.00079e-01
3.36592e-02,3.66559e-01
3.40746e-02,3.34597e-01
3.44951e-02,3.04119e-01
3.49207e-02,2.75058e-01
3.53516e-02,2.47348e-01
3.57879e-02,2.20925e-01
3.62295e-02,1.95730e-01
3.66765e-02,1.71707e-01
3.71291e-02,1.48800e-01
3.75873e-02,1.26958e-01
3.80511e-02,1.06131e-01
3.85206e-02,8.62723e-02
3.89960e-02,6.73370e-02
3.94772e-02,4.92821e-02
3.99643e-02,3.20667e-02
4.04575e-02,1.56517e-02
4.09567e-02,0.00000e+00
