m1=2692.906, m2=31.129, gsp=2.226, rhosp=165.112
fGW[Hz],dPh[rad]
4.87464e-03,4.09627e+02
5.01930e-03,3.84263e+02
5.16826e-03,3.60468e+02
5.32164e-03,3.38146e+02
5.47957e-03,3.17204e+02
5.64218e-03,2.97558e+02
5.80963e-03,2.79128e+02
5.98204e-03,2.61838e+02
6.15957e-03,2.45618e+02
6.34236e-03,2.30401e+02
6.53058e-03,2.16126e+02
6.72439e-03,2.02734e+02
6.92395e-03,1.90171e+02
7.12943e-03,1.78386e+02
7.34101e-03,1.67329e+02
7.55887e-03,1.56957e+02
7.78319e-03,1.47227e+02
8.01417e-03,1.38100e+02
8.25201e-03,1.29537e+02
8.49690e-03,1.21504e+02
8.74907e-03,1.13968e+02
9.00871e-03,1.06899e+02
9.27606e-03,1.00268e+02
9.55135e-03,9.40467e+01
9.83480e-03,8.82109e+01
1.01267e-02,8.27364e+01
1.04272e-02,7.76009e+01
1.07366e-02,7.27834e+01
1.10553e-02,6.82643e+01
1.13834e-02,6.40250e+01
1.17212e-02,6.00483e+01
1.20690e-02,5.63179e+01
1.24272e-02,5.28185e+01
1.27960e-02,4.95360e+01
1.31757e-02,4.64568e+01
1.35668e-02,4.35684e+01
1.39694e-02,4.08589e+01
1.43840e-02,3.83174e+01
1.48108e-02,3.59334e+01
1.52504e-02,3.36971e+01
1.57029e-02,3.15995e+01
1.61690e-02,2.96319e+01
1.66488e-02,2.77863e+01
1.71429e-02,2.60552e+01
1.76516e-02,2.44314e+01
1.81755e-02,2.29083e+01
1.87149e-02,2.14797e+01
1.92703e-02,2.01398e+01
1.98422e-02,1.88829e+01
2.04310e-02,1.77041e+01
2.10373e-02,1.65985e+01
2.16617e-02,1.55615e+01
2.23045e-02,1.45888e+01
2.29664e-02,1.36766e+01
2.36480e-02,1.28210e+01
2.43498e-02,1.20186e+01
2.50724e-02,1.12661e+01
2.58165e-02,1.05603e+01
2.65827e-02,9.89839e+00
2.73716e-02,9.27764e+00
2.81839e-02,8.69550e+00
2.90203e-02,8.14957e+00
2.98815e-02,7.63762e+00
3.07683e-02,7.15753e+00
3.16814e-02,6.70732e+00
3.26216e-02,6.28516e+00
3.35897e-02,5.88930e+00
3.45866e-02,5.51810e+00
3.56130e-02,5.17005e+00
3.66699e-02,4.84369e+00
3.77581e-02,4.53770e+00
3.88786e-02,4.25081e+00
4.00324e-02,3.98182e+00
4.12205e-02,3.72963e+00
4.24438e-02,3.49321e+00
4.37034e-02,3.27156e+00
4.50004e-02,3.06377e+00
4.63358e-02,2.86898e+00
4.77109e-02,2.68639e+00
4.91268e-02,2.51523e+00
5.05848e-02,2.35480e+00
5.20860e-02,2.20443e+00
5.36317e-02,2.06350e+00
5.52234e-02,1.93141e+00
5.68622e-02,1.80762e+00
5.85497e-02,1.69161e+00
6.02873e-02,1.58290e+00
6.20764e-02,1.48103e+00
6.39187e-02,1.38558e+00
6.58156e-02,1.29615e+00
6.77688e-02,1.21236e+00
6.97799e-02,1.13386e+00
7.18508e-02,1.06032e+00
7.39831e-02,9.91440e-01
7.61787e-02,9.26918e-01
7.84394e-02,8.66486e-01
8.07673e-02,8.09888e-01
8.31642e-02,7.56886e-01
8.56322e-02,7.07254e-01
8.81735e-02,6.60783e-01
9.07903e-02,6.17273e-01
9.34846e-02,5.76540e-01
9.62590e-02,5.38411e-01
9.91156e-02,5.02721e-01
1.02057e-01,4.69319e-01
1.05086e-01,4.38060e-01
1.08204e-01,4.08810e-01
1.11416e-01,3.81443e-01
1.14722e-01,3.55840e-01
1.18127e-01,3.31891e-01
1.21632e-01,3.09492e-01
1.25242e-01,2.88544e-01
1.28959e-01,2.68957e-01
1.32786e-01,2.50644e-01
1.36727e-01,2.33526e-01
1.40784e-01,2.17525e-01
1.44962e-01,2.02573e-01
1.49264e-01,1.88601e-01
1.53694e-01,1.75549e-01
1.58255e-01,1.63357e-01
1.62952e-01,1.51972e-01
1.67787e-01,1.41340e-01
1.72767e-01,1.31416e-01
1.77894e-01,1.22152e-01
1.83173e-01,1.13508e-01
1.88609e-01,1.05443e-01
1.94207e-01,9.79197e-02
1.99970e-01,9.09042e-02
2.05905e-01,8.43633e-02
2.12015e-01,7.82664e-02
2.18307e-01,7.25848e-02
2.24786e-01,6.72915e-02
2.31457e-01,6.23615e-02
2.38326e-01,5.77709e-02
2.45399e-01,5.34978e-02
2.52681e-01,4.95212e-02
2.60180e-01,4.58217e-02
2.67901e-01,4.23812e-02
2.75852e-01,3.91824e-02
2.84038e-01,3.62095e-02
2.92468e-01,3.34475e-02
3.01147e-01,3.08822e-02
3.10084e-01,2.85005e-02
3.19287e-01,2.62902e-02
3.28762e-01,2.42396e-02
3.38519e-01,2.23380e-02
3.48565e-01,2.05753e-02
3.58909e-01,1.89420e-02
3.69561e-01,1.74292e-02
3.80528e-01,1.60287e-02
3.91821e-01,1.47327e-02
4.03449e-01,1.35339e-02
4.15422e-01,1.24257e-02
4.27751e-01,1.14015e-02
4.40445e-01,1.04556e-02
4.53516e-01,9.58225e-03
4.66975e-01,8.77643e-03
4.80833e-01,8.03325e-03
4.95103e-01,7.34819e-03
5.09796e-01,6.71705e-03
5.24925e-01,6.13588e-03
5.40503e-01,5.60101e-03
5.56544e-01,5.10904e-03
5.73060e-01,4.65675e-03
5.90067e-01,4.24119e-03
6.07578e-01,3.85959e-03
6.25609e-01,3.50936e-03
6.44175e-01,3.18810e-03
6.63293e-01,2.89360e-03
6.82977e-01,2.62377e-03
7.03246e-01,2.37670e-03
7.24116e-01,2.15058e-03
7.45605e-01,1.94377e-03
7.67733e-01,1.75472e-03
7.90517e-01,1.58200e-03
8.13977e-01,1.42430e-03
8.38133e-01,1.28039e-03
8.63006e-01,1.14914e-03
8.88617e-01,1.02950e-03
9.14989e-01,9.20504e-04
9.42143e-01,8.21264e-04
9.70103e-01,7.30955e-04
9.98892e-01,6.48816e-04
1.02854e+00,5.74149e-04
1.05906e+00,5.06310e-04
1.09049e+00,4.44707e-04
1.12285e+00,3.88794e-04
1.15617e+00,3.38072e-04
1.19049e+00,2.92082e-04
1.22582e+00,2.50402e-04
1.26219e+00,2.12647e-04
1.29965e+00,1.78463e-04
1.33822e+00,1.47526e-04
1.37794e+00,1.19541e-04
1.41883e+00,9.42366e-05
1.46094e+00,7.13660e-05
1.50429e+00,5.07037e-05
1.54894e+00,3.20442e-05
1.59490e+00,1.51998e-05
1.64223e+00,0.00000e+00
