m1=7840.400, m2=99.228, gsp=2.229, rhosp=155.869
fGW[Hz],dPh[rad]
2.41641e-03,2.73050e+02
2.48355e-03,2.57178e+02
2.55255e-03,2.42228e+02
2.62346e-03,2.28145e+02
2.69635e-03,2.14880e+02
2.77126e-03,2.02385e+02
2.84826e-03,1.90616e+02
2.92739e-03,1.79530e+02
3.00872e-03,1.69087e+02
3.09231e-03,1.59251e+02
3.17823e-03,1.49986e+02
3.26653e-03,1.41259e+02
3.35728e-03,1.33039e+02
3.45056e-03,1.25296e+02
3.54643e-03,1.18002e+02
3.64496e-03,1.11133e+02
3.74622e-03,1.04662e+02
3.85030e-03,9.85674e+01
3.95728e-03,9.28267e+01
4.06722e-03,8.74195e+01
4.18022e-03,8.23264e+01
4.29636e-03,7.75292e+01
4.41573e-03,7.30108e+01
4.53841e-03,6.87549e+01
4.66450e-03,6.47463e+01
4.79409e-03,6.09707e+01
4.92729e-03,5.74146e+01
5.06418e-03,5.40651e+01
5.20488e-03,5.09104e+01
5.34949e-03,4.79390e+01
5.49811e-03,4.51404e+01
5.65086e-03,4.25046e+01
5.80786e-03,4.00220e+01
5.96922e-03,3.76838e+01
6.13507e-03,3.54816e+01
6.30552e-03,3.34076e+01
6.48070e-03,3.14541e+01
6.66075e-03,2.96144e+01
6.84581e-03,2.78817e+01
7.03601e-03,2.62499e+01
7.23149e-03,2.47130e+01
7.43240e-03,2.32656e+01
7.63889e-03,2.19025e+01
7.85113e-03,2.06188e+01
8.06925e-03,1.94098e+01
8.29344e-03,1.82713e+01
8.52386e-03,1.71991e+01
8.76068e-03,1.61894e+01
9.00407e-03,1.52385e+01
9.25423e-03,1.43431e+01
9.51134e-03,1.34999e+01
9.77560e-03,1.27059e+01
1.00472e-02,1.19582e+01
1.03263e-02,1.12541e+01
1.06132e-02,1.05911e+01
1.09081e-02,9.96679e+00
1.12112e-02,9.37895e+00
1.15226e-02,8.82545e+00
1.18428e-02,8.30429e+00
1.21718e-02,7.81358e+00
1.25100e-02,7.35156e+00
1.28575e-02,6.91656e+00
1.32147e-02,6.50700e+00
1.35819e-02,6.12141e+00
1.39592e-02,5.75839e+00
1.43471e-02,5.41663e+00
1.47457e-02,5.09489e+00
1.51554e-02,4.79200e+00
1.55764e-02,4.50687e+00
1.60092e-02,4.23847e+00
1.64540e-02,3.98581e+00
1.69111e-02,3.74799e+00
1.73809e-02,3.52414e+00
1.78638e-02,3.31344e+00
1.83601e-02,3.11512e+00
1.88702e-02,2.92848e+00
1.93945e-02,2.75282e+00
1.99333e-02,2.58750e+00
2.04872e-02,2.43193e+00
2.10563e-02,2.28553e+00
2.16414e-02,2.14777e+00
2.22426e-02,2.01814e+00
2.28606e-02,1.89617e+00
2.34957e-02,1.78141e+00
2.41485e-02,1.67345e+00
2.48194e-02,1.57187e+00
2.55090e-02,1.47632e+00
2.62177e-02,1.38643e+00
2.69461e-02,1.30188e+00
2.76947e-02,1.22236e+00
2.84642e-02,1.14756e+00
2.92550e-02,1.07722e+00
3.00678e-02,1.01107e+00
3.09032e-02,9.48863e-01
3.17617e-02,8.90374e-01
3.26442e-02,8.35382e-01
3.35511e-02,7.83682e-01
3.44833e-02,7.35080e-01
3.54413e-02,6.89395e-01
3.64260e-02,6.46454e-01
3.74380e-02,6.06098e-01
3.84782e-02,5.68173e-01
3.95472e-02,5.32536e-01
4.06459e-02,4.99052e-01
4.17752e-02,4.67596e-01
4.29358e-02,4.38046e-01
4.41287e-02,4.10290e-01
4.53547e-02,3.84222e-01
4.66148e-02,3.59743e-01
4.79099e-02,3.36758e-01
4.92410e-02,3.15179e-01
5.06091e-02,2.94923e-01
5.20152e-02,2.75910e-01
5.34603e-02,2.58067e-01
5.49456e-02,2.41325e-01
5.64721e-02,2.25617e-01
5.80411e-02,2.10882e-01
5.96536e-02,1.97063e-01
6.13110e-02,1.84104e-01
6.30144e-02,1.71953e-01
6.47651e-02,1.60563e-01
6.65645e-02,1.49888e-01
6.84139e-02,1.39884e-01
7.03146e-02,1.30511e-01
7.22681e-02,1.21732e-01
7.42760e-02,1.13510e-01
7.63396e-02,1.05811e-01
7.84605e-02,9.86048e-02
8.06404e-02,9.18601e-02
8.28808e-02,8.55492e-02
8.51835e-02,7.96456e-02
8.75501e-02,7.41244e-02
8.99825e-02,6.89622e-02
9.24825e-02,6.41369e-02
9.50520e-02,5.96278e-02
9.76928e-02,5.54152e-02
1.00407e-01,5.14809e-02
1.03197e-01,4.78075e-02
1.06064e-01,4.43788e-02
1.09010e-01,4.11794e-02
1.12039e-01,3.81950e-02
1.15152e-01,3.54121e-02
1.18351e-01,3.28179e-02
1.21639e-01,3.04005e-02
1.25019e-01,2.81486e-02
1.28492e-01,2.60517e-02
1.32062e-01,2.40997e-02
1.35731e-01,2.22834e-02
1.39502e-01,2.05941e-02
1.43378e-01,1.90233e-02
1.47361e-01,1.75635e-02
1.51456e-01,1.62073e-02
1.55663e-01,1.49479e-02
1.59988e-01,1.37789e-02
1.64433e-01,1.26942e-02
1.69002e-01,1.16883e-02
1.73697e-01,1.07558e-02
1.78523e-01,9.89182e-03
1.83483e-01,9.09160e-03
1.88580e-01,8.35081e-03
1.93820e-01,7.66537e-03
1.99205e-01,7.03144e-03
2.04739e-01,6.44543e-03
2.10427e-01,5.90398e-03
2.16274e-01,5.40394e-03
2.22282e-01,4.94239e-03
2.28458e-01,4.51656e-03
2.34805e-01,4.12389e-03
2.41329e-01,3.76198e-03
2.48034e-01,3.42858e-03
2.54925e-01,3.12161e-03
2.62007e-01,2.83911e-03
2.69287e-01,2.57925e-03
2.76768e-01,2.34036e-03
2.84458e-01,2.12084e-03
2.92361e-01,1.91922e-03
3.00484e-01,1.73414e-03
3.08832e-01,1.56433e-03
3.17412e-01,1.40860e-03
3.26231e-01,1.26586e-03
3.35294e-01,1.13508e-03
3.44610e-01,1.01533e-03
3.54184e-01,9.05714e-04
3.64025e-01,8.05434e-04
3.74138e-01,7.13736e-04
3.84533e-01,6.29923e-04
3.95216e-01,5.53352e-04
4.06197e-01,4.83429e-04
4.17482e-01,4.19605e-04
4.29081e-01,3.61373e-04
4.41002e-01,3.08266e-04
4.53254e-01,2.59853e-04
4.65847e-01,2.15737e-04
4.78790e-01,1.75554e-04
4.92092e-01,1.38967e-04
5.05764e-01,1.05667e-04
5.19815e-01,7.53706e-05
5.34257e-01,4.78167e-05
5.49101e-01,2.27664e-05
5.64356e-01,0.00000e+00
