m1=243270.303, m2=5.033, gsp=2.350, rhosp=81.633
fGW[Hz],dPh[rad]
3.12674e-03,1.36889e+04
3.15443e-03,1.32463e+04
3.18237e-03,1.28180e+04
3.21055e-03,1.24035e+04
3.23898e-03,1.20023e+04
3.26767e-03,1.16139e+04
3.29660e-03,1.12381e+04
3.32580e-03,1.08743e+04
3.35525e-03,1.05223e+04
3.38496e-03,1.01815e+04
3.41494e-03,9.85177e+03
3.44518e-03,9.53262e+03
3.47569e-03,9.22374e+03
3.50647e-03,8.92481e+03
3.53752e-03,8.63550e+03
3.56885e-03,8.35552e+03
3.60045e-03,8.08455e+03
3.63234e-03,7.82232e+03
3.66451e-03,7.56854e+03
3.69696e-03,7.32294e+03
3.72970e-03,7.08526e+03
3.76273e-03,6.85524e+03
3.79605e-03,6.63265e+03
3.82967e-03,6.41723e+03
3.86358e-03,6.20877e+03
3.89779e-03,6.00703e+03
3.93231e-03,5.81181e+03
3.96714e-03,5.62289e+03
4.00227e-03,5.44006e+03
4.03771e-03,5.26315e+03
4.07347e-03,5.09194e+03
4.10954e-03,4.92627e+03
4.14593e-03,4.76595e+03
4.18265e-03,4.61081e+03
4.21969e-03,4.46069e+03
4.25706e-03,4.31541e+03
4.29476e-03,4.17484e+03
4.33279e-03,4.03881e+03
4.37116e-03,3.90717e+03
4.40987e-03,3.77980e+03
4.44892e-03,3.65655e+03
4.48832e-03,3.53728e+03
4.52807e-03,3.42187e+03
4.56817e-03,3.31020e+03
4.60862e-03,3.20214e+03
4.64944e-03,3.09758e+03
4.69061e-03,2.99641e+03
4.73215e-03,2.89851e+03
4.77405e-03,2.80378e+03
4.81633e-03,2.71212e+03
4.85898e-03,2.62343e+03
4.90201e-03,2.53761e+03
4.94543e-03,2.45457e+03
4.98922e-03,2.37422e+03
5.03340e-03,2.29648e+03
5.07798e-03,2.22125e+03
5.12295e-03,2.14847e+03
5.16831e-03,2.07804e+03
5.21408e-03,2.00990e+03
5.26026e-03,1.94396e+03
5.30684e-03,1.88017e+03
5.35384e-03,1.81844e+03
5.40125e-03,1.75871e+03
5.44908e-03,1.70093e+03
5.49734e-03,1.64501e+03
5.54602e-03,1.59091e+03
5.59513e-03,1.53857e+03
5.64468e-03,1.48792e+03
5.69467e-03,1.43892e+03
5.74510e-03,1.39151e+03
5.79598e-03,1.34564e+03
5.84731e-03,1.30126e+03
5.89909e-03,1.25831e+03
5.95133e-03,1.21677e+03
6.00403e-03,1.17657e+03
6.05720e-03,1.13767e+03
6.11084e-03,1.10004e+03
6.16496e-03,1.06363e+03
6.21955e-03,1.02841e+03
6.27463e-03,9.94327e+02
6.33020e-03,9.61352e+02
6.38626e-03,9.29449e+02
6.44281e-03,8.98583e+02
6.49987e-03,8.68720e+02
6.55743e-03,8.39827e+02
6.61550e-03,8.11873e+02
6.67409e-03,7.84827e+02
6.73319e-03,7.58661e+02
6.79282e-03,7.33345e+02
6.85297e-03,7.08852e+02
6.91366e-03,6.85155e+02
6.97489e-03,6.62229e+02
7.03665e-03,6.40049e+02
7.09897e-03,6.18589e+02
7.16184e-03,5.97828e+02
7.22526e-03,5.77741e+02
7.28924e-03,5.58308e+02
7.35379e-03,5.39507e+02
7.41892e-03,5.21317e+02
7.48462e-03,5.03720e+02
7.55090e-03,4.86694e+02
7.61777e-03,4.70223e+02
7.68523e-03,4.54287e+02
7.75329e-03,4.38870e+02
7.82195e-03,4.23955e+02
7.89122e-03,4.09525e+02
7.96110e-03,3.95564e+02
8.03160e-03,3.82058e+02
8.10273e-03,3.68991e+02
8.17448e-03,3.56350e+02
8.24687e-03,3.44120e+02
8.31991e-03,3.32289e+02
8.39358e-03,3.20842e+02
8.46792e-03,3.09768e+02
8.54291e-03,2.99055e+02
8.61856e-03,2.88690e+02
8.69488e-03,2.78663e+02
8.77188e-03,2.68962e+02
8.84956e-03,2.59577e+02
8.92793e-03,2.50498e+02
9.00700e-03,2.41714e+02
9.08676e-03,2.33217e+02
9.16723e-03,2.24996e+02
9.24841e-03,2.17043e+02
9.33031e-03,2.09349e+02
9.41294e-03,2.01906e+02
9.49630e-03,1.94705e+02
9.58040e-03,1.87738e+02
9.66524e-03,1.80999e+02
9.75083e-03,1.74479e+02
9.83718e-03,1.68171e+02
9.92430e-03,1.62069e+02
1.00122e-02,1.56166e+02
1.01008e-02,1.50455e+02
1.01903e-02,1.44931e+02
1.02805e-02,1.39586e+02
1.03716e-02,1.34415e+02
1.04634e-02,1.29413e+02
1.05561e-02,1.24574e+02
1.06496e-02,1.19893e+02
1.07439e-02,1.15364e+02
1.08390e-02,1.10983e+02
1.09350e-02,1.06744e+02
1.10319e-02,1.02644e+02
1.11295e-02,9.86772e+01
1.12281e-02,9.48399e+01
1.13275e-02,9.11276e+01
1.14279e-02,8.75363e+01
1.15291e-02,8.40621e+01
1.16312e-02,8.07012e+01
1.17342e-02,7.74498e+01
1.18381e-02,7.43044e+01
1.19429e-02,7.12616e+01
1.20487e-02,6.83179e+01
1.21554e-02,6.54703e+01
1.22630e-02,6.27154e+01
1.23716e-02,6.00504e+01
1.24812e-02,5.74723e+01
1.25917e-02,5.49783e+01
1.27032e-02,5.25656e+01
1.28157e-02,5.02315e+01
1.29292e-02,4.79736e+01
1.30437e-02,4.57893e+01
1.31592e-02,4.36763e+01
1.32757e-02,4.16321e+01
1.33933e-02,3.96546e+01
1.35119e-02,3.77416e+01
1.36316e-02,3.58910e+01
1.37523e-02,3.41007e+01
1.38741e-02,3.23689e+01
1.39969e-02,3.06935e+01
1.41209e-02,2.90728e+01
1.42459e-02,2.75049e+01
1.43721e-02,2.59882e+01
1.44994e-02,2.45209e+01
1.46278e-02,2.31015e+01
1.47573e-02,2.17285e+01
1.48880e-02,2.04002e+01
1.50199e-02,1.91152e+01
1.51529e-02,1.78721e+01
1.52871e-02,1.66696e+01
1.54224e-02,1.55064e+01
1.55590e-02,1.43810e+01
1.56968e-02,1.32924e+01
1.58358e-02,1.22393e+01
1.59760e-02,1.12206e+01
1.61175e-02,1.02351e+01
1.62603e-02,9.28176e+00
1.64042e-02,8.35952e+00
1.65495e-02,7.46737e+00
1.66961e-02,6.60433e+00
1.68439e-02,5.76945e+00
1.69931e-02,4.96181e+00
1.71436e-02,4.18053e+00
1.72954e-02,3.42473e+00
1.74486e-02,2.69360e+00
1.76031e-02,1.98633e+00
1.77590e-02,1.30214e+00
1.79162e-02,6.40269e-01
1.80749e-02,0.00000e+00
