m1=8897.800, m2=5.036, gsp=2.124, rhosp=3146.437
fGW[Hz],dPh[rad]
7.14881e-03,2.48792e+03
7.30262e-03,2.36420e+03
7.45974e-03,2.24645e+03
7.62024e-03,2.13439e+03
7.78420e-03,2.02775e+03
7.95168e-03,1.92628e+03
8.12276e-03,1.82972e+03
8.29753e-03,1.73785e+03
8.47606e-03,1.65044e+03
8.65843e-03,1.56728e+03
8.84472e-03,1.48817e+03
9.03502e-03,1.41291e+03
9.22942e-03,1.34133e+03
9.42799e-03,1.27324e+03
9.63084e-03,1.20849e+03
9.83806e-03,1.14690e+03
1.00497e-02,1.08833e+03
1.02660e-02,1.03264e+03
1.04868e-02,9.79692e+02
1.07125e-02,9.29349e+02
1.09430e-02,8.81488e+02
1.11784e-02,8.35991e+02
1.14189e-02,7.92744e+02
1.16646e-02,7.51640e+02
1.19156e-02,7.12576e+02
1.21719e-02,6.75454e+02
1.24338e-02,6.40180e+02
1.27014e-02,6.06666e+02
1.29746e-02,5.74826e+02
1.32538e-02,5.44581e+02
1.35390e-02,5.15852e+02
1.38303e-02,4.88567e+02
1.41278e-02,4.62656e+02
1.44318e-02,4.38052e+02
1.47423e-02,4.14692e+02
1.50595e-02,3.92515e+02
1.53835e-02,3.71465e+02
1.57145e-02,3.51485e+02
1.60526e-02,3.32525e+02
1.63980e-02,3.14534e+02
1.67508e-02,2.97465e+02
1.71112e-02,2.81273e+02
1.74794e-02,2.65914e+02
1.78555e-02,2.51349e+02
1.82396e-02,2.37537e+02
1.86321e-02,2.24442e+02
1.90330e-02,2.12028e+02
1.94425e-02,2.00262e+02
1.98608e-02,1.89112e+02
2.02881e-02,1.78547e+02
2.07246e-02,1.68538e+02
2.11705e-02,1.59057e+02
2.16260e-02,1.50078e+02
2.20913e-02,1.41576e+02
2.25666e-02,1.33527e+02
2.30522e-02,1.25908e+02
2.35482e-02,1.18698e+02
2.40548e-02,1.11876e+02
2.45724e-02,1.05422e+02
2.51011e-02,9.93170e+01
2.56411e-02,9.35442e+01
2.61928e-02,8.80863e+01
2.67564e-02,8.29272e+01
2.73321e-02,7.80515e+01
2.79201e-02,7.34447e+01
2.85209e-02,6.90929e+01
2.91345e-02,6.49829e+01
2.97614e-02,6.11021e+01
3.04017e-02,5.74386e+01
3.10558e-02,5.39811e+01
3.17240e-02,5.07187e+01
3.24066e-02,4.76412e+01
3.31038e-02,4.47387e+01
3.38161e-02,4.20021e+01
3.45436e-02,3.94225e+01
3.52869e-02,3.69916e+01
3.60461e-02,3.47012e+01
3.68217e-02,3.25440e+01
3.76139e-02,3.05126e+01
3.84232e-02,2.86003e+01
3.92499e-02,2.68005e+01
4.00944e-02,2.51072e+01
4.09570e-02,2.35144e+01
4.18383e-02,2.20166e+01
4.27384e-02,2.06085e+01
4.36580e-02,1.92852e+01
4.45973e-02,1.80419e+01
4.55569e-02,1.68741e+01
4.65371e-02,1.57775e+01
4.75383e-02,1.47481e+01
4.85612e-02,1.37820e+01
4.96060e-02,1.28757e+01
5.06733e-02,1.20257e+01
5.17636e-02,1.12287e+01
5.28773e-02,1.04817e+01
5.40150e-02,9.78167e+00
5.51772e-02,9.12592e+00
5.63644e-02,8.51183e+00
5.75771e-02,7.93692e+00
5.88159e-02,7.39885e+00
6.00814e-02,6.89542e+00
6.13740e-02,6.42453e+00
6.26946e-02,5.98423e+00
6.40435e-02,5.57264e+00
6.54214e-02,5.18801e+00
6.68290e-02,4.82868e+00
6.82669e-02,4.49308e+00
6.97357e-02,4.17975e+00
7.12361e-02,3.88729e+00
7.27688e-02,3.61439e+00
7.43345e-02,3.35982e+00
7.59338e-02,3.12242e+00
7.75676e-02,2.90109e+00
7.92365e-02,2.69480e+00
8.09414e-02,2.50259e+00
8.26829e-02,2.32354e+00
8.44619e-02,2.15681e+00
8.62791e-02,2.00158e+00
8.81355e-02,1.85710e+00
9.00318e-02,1.72266e+00
9.19689e-02,1.59761e+00
9.39477e-02,1.48131e+00
9.59690e-02,1.37318e+00
9.80339e-02,1.27267e+00
1.00143e-01,1.17927e+00
1.02298e-01,1.09249e+00
1.04499e-01,1.01190e+00
1.06747e-01,9.37054e-01
1.09044e-01,8.67573e-01
1.11390e-01,8.03084e-01
1.13787e-01,7.43242e-01
1.16235e-01,6.87724e-01
1.18736e-01,6.36230e-01
1.21290e-01,5.88478e-01
1.23900e-01,5.44206e-01
1.26566e-01,5.03168e-01
1.29289e-01,4.65137e-01
1.32071e-01,4.29899e-01
1.34912e-01,3.97256e-01
1.37815e-01,3.67022e-01
1.40780e-01,3.39024e-01
1.43809e-01,3.13103e-01
1.46904e-01,2.89108e-01
1.50064e-01,2.66900e-01
1.53293e-01,2.46350e-01
1.56591e-01,2.27337e-01
1.59960e-01,2.09749e-01
1.63402e-01,1.93482e-01
1.66918e-01,1.78439e-01
1.70509e-01,1.64530e-01
1.74178e-01,1.51671e-01
1.77925e-01,1.39786e-01
1.81754e-01,1.28801e-01
1.85664e-01,1.18650e-01
1.89659e-01,1.09271e-01
1.93739e-01,1.00607e-01
1.97908e-01,9.26030e-02
2.02166e-01,8.52108e-02
2.06516e-01,7.83842e-02
2.10959e-01,7.20807e-02
2.15498e-01,6.62608e-02
2.20135e-01,6.08880e-02
2.24871e-01,5.59285e-02
2.29709e-01,5.13511e-02
2.34652e-01,4.71266e-02
2.39700e-01,4.32283e-02
2.44858e-01,3.96314e-02
2.50126e-01,3.63128e-02
2.55508e-01,3.32513e-02
2.61005e-01,3.04272e-02
2.66621e-01,2.78224e-02
2.72357e-01,2.54200e-02
2.78217e-01,2.32044e-02
2.84203e-01,2.11613e-02
2.90318e-01,1.92775e-02
2.96565e-01,1.75405e-02
3.02945e-01,1.59392e-02
3.09464e-01,1.44629e-02
3.16122e-01,1.31021e-02
3.22923e-01,1.18477e-02
3.29871e-01,1.06916e-02
3.36969e-01,9.62600e-03
3.44219e-01,8.64400e-03
3.51625e-01,7.73906e-03
3.59191e-01,6.90516e-03
3.66919e-01,6.13679e-03
3.74813e-01,5.42881e-03
3.82878e-01,4.77653e-03
3.91116e-01,4.17558e-03
3.99531e-01,3.62196e-03
4.08127e-01,3.11196e-03
4.16908e-01,2.64216e-03
4.25878e-01,2.20942e-03
4.35041e-01,1.81082e-03
4.44402e-01,1.44369e-03
4.53963e-01,1.10555e-03
4.63730e-01,7.94139e-04
4.73708e-01,5.07341e-04
4.83900e-01,2.43223e-04
4.94312e-01,0.00000e+00
