m1=4036.172, m2=78.185, gsp=2.246, rhosp=1698.047
fGW[Hz],dPh[rad]
3.12204e-03,5.09825e+02
3.21542e-03,4.78225e+02
3.31158e-03,4.48582e+02
3.41063e-03,4.20775e+02
3.51263e-03,3.94691e+02
3.61769e-03,3.70223e+02
3.72589e-03,3.47271e+02
3.83733e-03,3.25740e+02
3.95209e-03,3.05544e+02
4.07029e-03,2.86598e+02
4.19203e-03,2.68827e+02
4.31741e-03,2.52156e+02
4.44653e-03,2.36518e+02
4.57952e-03,2.21849e+02
4.71649e-03,2.08089e+02
4.85755e-03,1.95182e+02
5.00283e-03,1.83074e+02
5.15246e-03,1.71717e+02
5.30656e-03,1.61063e+02
5.46527e-03,1.51069e+02
5.62873e-03,1.41695e+02
5.79707e-03,1.32902e+02
5.97045e-03,1.24654e+02
6.14902e-03,1.16916e+02
6.33293e-03,1.09659e+02
6.52234e-03,1.02851e+02
6.71741e-03,9.64652e+01
6.91831e-03,9.04751e+01
7.12523e-03,8.48564e+01
7.33833e-03,7.95860e+01
7.55781e-03,7.46423e+01
7.78385e-03,7.00051e+01
8.01666e-03,6.56554e+01
8.25642e-03,6.15753e+01
8.50336e-03,5.77483e+01
8.75768e-03,5.41586e+01
9.01961e-03,5.07914e+01
9.28937e-03,4.76331e+01
9.56720e-03,4.46707e+01
9.85334e-03,4.18920e+01
1.01480e-02,3.92857e+01
1.04515e-02,3.68410e+01
1.07641e-02,3.45480e+01
1.10861e-02,3.23973e+01
1.14176e-02,3.03800e+01
1.17591e-02,2.84879e+01
1.21108e-02,2.67132e+01
1.24730e-02,2.50487e+01
1.28461e-02,2.34875e+01
1.32303e-02,2.20232e+01
1.36260e-02,2.06498e+01
1.40335e-02,1.93617e+01
1.44532e-02,1.81536e+01
1.48855e-02,1.70205e+01
1.53307e-02,1.59578e+01
1.57892e-02,1.49611e+01
1.62615e-02,1.40263e+01
1.67478e-02,1.31496e+01
1.72487e-02,1.23274e+01
1.77646e-02,1.15564e+01
1.82959e-02,1.08332e+01
1.88431e-02,1.01550e+01
1.94067e-02,9.51902e+00
1.99871e-02,8.92258e+00
2.05849e-02,8.36325e+00
2.12005e-02,7.83873e+00
2.18346e-02,7.34685e+00
2.24876e-02,6.88559e+00
2.31602e-02,6.45306e+00
2.38529e-02,6.04747e+00
2.45663e-02,5.66715e+00
2.53010e-02,5.31053e+00
2.60577e-02,4.97613e+00
2.68371e-02,4.66259e+00
2.76397e-02,4.36861e+00
2.84664e-02,4.09297e+00
2.93178e-02,3.83453e+00
3.01946e-02,3.59222e+00
3.10977e-02,3.36505e+00
3.20278e-02,3.15207e+00
3.29857e-02,2.95241e+00
3.39722e-02,2.76523e+00
3.49883e-02,2.58975e+00
3.60347e-02,2.42526e+00
3.71125e-02,2.27107e+00
3.82224e-02,2.12654e+00
3.93656e-02,1.99106e+00
4.05430e-02,1.86408e+00
4.17555e-02,1.74506e+00
4.30044e-02,1.63352e+00
4.42906e-02,1.52898e+00
4.56152e-02,1.43101e+00
4.69795e-02,1.33920e+00
4.83846e-02,1.25317e+00
4.98317e-02,1.17256e+00
5.13221e-02,1.09702e+00
5.28570e-02,1.02625e+00
5.44379e-02,9.59946e-01
5.60660e-02,8.97829e-01
5.77429e-02,8.39639e-01
5.94699e-02,7.85130e-01
6.12485e-02,7.34073e-01
6.30804e-02,6.86252e-01
6.49670e-02,6.41466e-01
6.69101e-02,5.99523e-01
6.89112e-02,5.60248e-01
7.09723e-02,5.23472e-01
7.30949e-02,4.89040e-01
7.52811e-02,4.56804e-01
7.75326e-02,4.26628e-01
7.98515e-02,3.98381e-01
8.22397e-02,3.71944e-01
8.46994e-02,3.47202e-01
8.72326e-02,3.24049e-01
8.98416e-02,3.02386e-01
9.25286e-02,2.82118e-01
9.52960e-02,2.63158e-01
9.81461e-02,2.45423e-01
1.01081e-01,2.28837e-01
1.04105e-01,2.13327e-01
1.07218e-01,1.98824e-01
1.10425e-01,1.85266e-01
1.13728e-01,1.72593e-01
1.17129e-01,1.60748e-01
1.20632e-01,1.49680e-01
1.24240e-01,1.39338e-01
1.27956e-01,1.29677e-01
1.31783e-01,1.20654e-01
1.35724e-01,1.12227e-01
1.39784e-01,1.04359e-01
1.43964e-01,9.70150e-02
1.48270e-01,9.01602e-02
1.52704e-01,8.37639e-02
1.57272e-01,7.77966e-02
1.61975e-01,7.22308e-02
1.66820e-01,6.70405e-02
1.71809e-01,6.22018e-02
1.76948e-01,5.76917e-02
1.82240e-01,5.34891e-02
1.87690e-01,4.95740e-02
1.93304e-01,4.59278e-02
1.99085e-01,4.25329e-02
2.05040e-01,3.93729e-02
2.11172e-01,3.64324e-02
2.17488e-01,3.36971e-02
2.23992e-01,3.11533e-02
2.30692e-01,2.87886e-02
2.37591e-01,2.65909e-02
2.44697e-01,2.45493e-02
2.52016e-01,2.26533e-02
2.59553e-01,2.08932e-02
2.67316e-01,1.92598e-02
2.75311e-01,1.77447e-02
2.83545e-01,1.63398e-02
2.92025e-01,1.50376e-02
3.00759e-01,1.38312e-02
3.09755e-01,1.27139e-02
3.19019e-01,1.16797e-02
3.28560e-01,1.07227e-02
3.38387e-01,9.83773e-03
3.48508e-01,9.01964e-03
3.58931e-01,8.26375e-03
3.69666e-01,7.56569e-03
3.80722e-01,6.92135e-03
3.92109e-01,6.32690e-03
4.03836e-01,5.77876e-03
4.15914e-01,5.27358e-03
4.28354e-01,4.80825e-03
4.41165e-01,4.37985e-03
4.54359e-01,3.98567e-03
4.67949e-01,3.62318e-03
4.81944e-01,3.29000e-03
4.96358e-01,2.98395e-03
5.11204e-01,2.70298e-03
5.26493e-01,2.44517e-03
5.42239e-01,2.20876e-03
5.58457e-01,1.99209e-03
5.75159e-01,1.79364e-03
5.92361e-01,1.61196e-03
6.10078e-01,1.44575e-03
6.28324e-01,1.29378e-03
6.47117e-01,1.15490e-03
6.66471e-01,1.02807e-03
6.86404e-01,9.12297e-04
7.06933e-01,8.06687e-04
7.28076e-01,7.10402e-04
7.49852e-01,6.22668e-04
7.72279e-01,5.42770e-04
7.95376e-01,4.70050e-04
8.19165e-01,4.03900e-04
8.43665e-01,3.43758e-04
8.68897e-01,2.89110e-04
8.94885e-01,2.39479e-04
9.21649e-01,1.94428e-04
9.49214e-01,1.53558e-04
9.77604e-01,1.16497e-04
1.00684e+00,8.29084e-05
1.03696e+00,5.24817e-05
1.06797e+00,2.49323e-05
1.09991e+00,0.00000e+00
