m1=223691.305, m2=67.484, gsp=2.258, rhosp=9382.958
fGW[Hz],dPh[rad]
1.20633e-03,1.10148e+04
1.22336e-03,1.05618e+04
1.24064e-03,1.01262e+04
1.25816e-03,9.70747e+03
1.27593e-03,9.30493e+03
1.29396e-03,8.91802e+03
1.31223e-03,8.54617e+03
1.33077e-03,8.18885e+03
1.34956e-03,7.84553e+03
1.36862e-03,7.51570e+03
1.38795e-03,7.19888e+03
1.40756e-03,6.89459e+03
1.42744e-03,6.60237e+03
1.44760e-03,6.32178e+03
1.46804e-03,6.05239e+03
1.48878e-03,5.79379e+03
1.50980e-03,5.54559e+03
1.53113e-03,5.30738e+03
1.55275e-03,5.07880e+03
1.57469e-03,4.85949e+03
1.59693e-03,4.64910e+03
1.61948e-03,4.44730e+03
1.64235e-03,4.25376e+03
1.66555e-03,4.06816e+03
1.68907e-03,3.89020e+03
1.71293e-03,3.71960e+03
1.73712e-03,3.55606e+03
1.76166e-03,3.39933e+03
1.78654e-03,3.24912e+03
1.81177e-03,3.10520e+03
1.83736e-03,2.96731e+03
1.86331e-03,2.83523e+03
1.88963e-03,2.70871e+03
1.91632e-03,2.58755e+03
1.94339e-03,2.47154e+03
1.97083e-03,2.36046e+03
1.99867e-03,2.25413e+03
2.02690e-03,2.15234e+03
2.05553e-03,2.05493e+03
2.08456e-03,1.96172e+03
2.11400e-03,1.87253e+03
2.14386e-03,1.78720e+03
2.17414e-03,1.70558e+03
2.20485e-03,1.62752e+03
2.23599e-03,1.55286e+03
2.26757e-03,1.48148e+03
2.29959e-03,1.41323e+03
2.33207e-03,1.34798e+03
2.36501e-03,1.28562e+03
2.39841e-03,1.22602e+03
2.43229e-03,1.16906e+03
2.46664e-03,1.11464e+03
2.50148e-03,1.06265e+03
2.53681e-03,1.01299e+03
2.57264e-03,9.65549e+02
2.60898e-03,9.20245e+02
2.64583e-03,8.76983e+02
2.68320e-03,8.35676e+02
2.72109e-03,7.96240e+02
2.75953e-03,7.58596e+02
2.79850e-03,7.22665e+02
2.83803e-03,6.88374e+02
2.87811e-03,6.55651e+02
2.91876e-03,6.24429e+02
2.95999e-03,5.94641e+02
3.00179e-03,5.66224e+02
3.04419e-03,5.39120e+02
3.08718e-03,5.13269e+02
3.13079e-03,4.88617e+02
3.17501e-03,4.65110e+02
3.21985e-03,4.42697e+02
3.26533e-03,4.21330e+02
3.31145e-03,4.00963e+02
3.35822e-03,3.81549e+02
3.40565e-03,3.63046e+02
3.45375e-03,3.45414e+02
3.50253e-03,3.28613e+02
3.55200e-03,3.12605e+02
3.60217e-03,2.97355e+02
3.65304e-03,2.82827e+02
3.70464e-03,2.68989e+02
3.75696e-03,2.55809e+02
3.81003e-03,2.43258e+02
3.86384e-03,2.31306e+02
3.91841e-03,2.19925e+02
3.97375e-03,2.09089e+02
4.02988e-03,1.98774e+02
4.08680e-03,1.88954e+02
4.14452e-03,1.79607e+02
4.20305e-03,1.70711e+02
4.26242e-03,1.62245e+02
4.32262e-03,1.54188e+02
4.38367e-03,1.46521e+02
4.44559e-03,1.39226e+02
4.50838e-03,1.32286e+02
4.57205e-03,1.25684e+02
4.63663e-03,1.19403e+02
4.70211e-03,1.13429e+02
4.76853e-03,1.07747e+02
4.83588e-03,1.02343e+02
4.90418e-03,9.72035e+01
4.97344e-03,9.23163e+01
5.04369e-03,8.76693e+01
5.11492e-03,8.32508e+01
5.18717e-03,7.90500e+01
5.26043e-03,7.50563e+01
5.33473e-03,7.12599e+01
5.41008e-03,6.76510e+01
5.48649e-03,6.42208e+01
5.56398e-03,6.09605e+01
5.64256e-03,5.78619e+01
5.72226e-03,5.49172e+01
5.80308e-03,5.21189e+01
5.88504e-03,4.94598e+01
5.96816e-03,4.69331e+01
6.05245e-03,4.45324e+01
6.13794e-03,4.22516e+01
6.22463e-03,4.00847e+01
6.31255e-03,3.80262e+01
6.40170e-03,3.60707e+01
6.49212e-03,3.42131e+01
6.58381e-03,3.24487e+01
6.67680e-03,3.07729e+01
6.77111e-03,2.91813e+01
6.86674e-03,2.76697e+01
6.96373e-03,2.62341e+01
7.06208e-03,2.48708e+01
7.16182e-03,2.35763e+01
7.26298e-03,2.23470e+01
7.36556e-03,2.11798e+01
7.46959e-03,2.00716e+01
7.57509e-03,1.90194e+01
7.68208e-03,1.80204e+01
7.79058e-03,1.70720e+01
7.90061e-03,1.61716e+01
8.01220e-03,1.53169e+01
8.12536e-03,1.45056e+01
8.24013e-03,1.37354e+01
8.35651e-03,1.30044e+01
8.47454e-03,1.23105e+01
8.59423e-03,1.16519e+01
8.71561e-03,1.10268e+01
8.83871e-03,1.04336e+01
8.96355e-03,9.87054e+00
9.09015e-03,9.33621e+00
9.21854e-03,8.82914e+00
9.34874e-03,8.34795e+00
9.48078e-03,7.89133e+00
9.61469e-03,7.45804e+00
9.75048e-03,7.04689e+00
9.88820e-03,6.65677e+00
1.00279e-02,6.28661e+00
1.01695e-02,5.93540e+00
1.03131e-02,5.60217e+00
1.04588e-02,5.28602e+00
1.06065e-02,4.98607e+00
1.07563e-02,4.70151e+00
1.09082e-02,4.43154e+00
1.10623e-02,4.17543e+00
1.12185e-02,3.93247e+00
1.13770e-02,3.70199e+00
1.15377e-02,3.48335e+00
1.17006e-02,3.27595e+00
1.18659e-02,3.07922e+00
1.20335e-02,2.89261e+00
1.22034e-02,2.71560e+00
1.23758e-02,2.54770e+00
1.25506e-02,2.38845e+00
1.27279e-02,2.23741e+00
1.29076e-02,2.09414e+00
1.30899e-02,1.95827e+00
1.32748e-02,1.82940e+00
1.34623e-02,1.70717e+00
1.36524e-02,1.59126e+00
1.38453e-02,1.48132e+00
1.40408e-02,1.37706e+00
1.42391e-02,1.27819e+00
1.44402e-02,1.18442e+00
1.46442e-02,1.09550e+00
1.48510e-02,1.01117e+00
1.50608e-02,9.31206e-01
1.52735e-02,8.55374e-01
1.54892e-02,7.83464e-01
1.57080e-02,7.15274e-01
1.59299e-02,6.50613e-01
1.61548e-02,5.89299e-01
1.63830e-02,5.31159e-01
1.66144e-02,4.76029e-01
1.68491e-02,4.23755e-01
1.70870e-02,3.74189e-01
1.73284e-02,3.27191e-01
1.75731e-02,2.82629e-01
1.78213e-02,2.40377e-01
1.80730e-02,2.00315e-01
1.83283e-02,1.62331e-01
1.85872e-02,1.26317e-01
1.88497e-02,9.21705e-02
1.91159e-02,5.97960e-02
1.93859e-02,2.91015e-02
1.96597e-02,0.00000e+00
