m1=804327.947, m2=91.273, gsp=2.055, rhosp=27.270
fGW[Hz],dPh[rad]
7.82223e-04,3.18021e+01
7.89903e-04,3.06603e+01
7.97659e-04,2.95586e+01
8.05490e-04,2.84956e+01
8.13399e-04,2.74700e+01
8.21385e-04,2.64806e+01
8.29450e-04,2.55261e+01
8.37594e-04,2.46052e+01
8.45818e-04,2.37169e+01
8.54123e-04,2.28601e+01
8.62509e-04,2.20335e+01
8.70978e-04,2.12363e+01
8.79529e-04,2.04673e+01
8.88165e-04,1.97257e+01
8.96885e-04,1.90104e+01
9.05691e-04,1.83206e+01
9.14584e-04,1.76553e+01
9.23564e-04,1.70138e+01
9.32632e-04,1.63951e+01
9.41789e-04,1.57985e+01
9.51036e-04,1.52233e+01
9.60374e-04,1.46686e+01
9.69803e-04,1.41338e+01
9.79325e-04,1.36181e+01
9.88941e-04,1.31210e+01
9.98650e-04,1.26416e+01
1.00846e-03,1.21795e+01
1.01836e-03,1.17340e+01
1.02836e-03,1.13046e+01
1.03845e-03,1.08906e+01
1.04865e-03,1.04915e+01
1.05895e-03,1.01068e+01
1.06934e-03,9.73597e+00
1.07984e-03,9.37855e+00
1.09044e-03,9.03404e+00
1.10115e-03,8.70200e+00
1.11196e-03,8.38197e+00
1.12288e-03,8.07354e+00
1.13391e-03,7.77628e+00
1.14504e-03,7.48980e+00
1.15628e-03,7.21372e+00
1.16763e-03,6.94767e+00
1.17910e-03,6.69129e+00
1.19068e-03,6.44422e+00
1.20237e-03,6.20615e+00
1.21417e-03,5.97675e+00
1.22609e-03,5.75571e+00
1.23813e-03,5.54272e+00
1.25029e-03,5.33750e+00
1.26256e-03,5.13978e+00
1.27496e-03,4.94927e+00
1.28748e-03,4.76573e+00
1.30012e-03,4.58890e+00
1.31288e-03,4.41854e+00
1.32578e-03,4.25441e+00
1.33879e-03,4.09630e+00
1.35194e-03,3.94398e+00
1.36521e-03,3.79724e+00
1.37862e-03,3.65589e+00
1.39215e-03,3.51973e+00
1.40582e-03,3.38857e+00
1.41962e-03,3.26222e+00
1.43356e-03,3.14052e+00
1.44764e-03,3.02330e+00
1.46185e-03,2.91039e+00
1.47620e-03,2.80164e+00
1.49070e-03,2.69689e+00
1.50533e-03,2.59600e+00
1.52012e-03,2.49883e+00
1.53504e-03,2.40525e+00
1.55011e-03,2.31512e+00
1.56533e-03,2.22831e+00
1.58070e-03,2.14471e+00
1.59622e-03,2.06420e+00
1.61189e-03,1.98667e+00
1.62772e-03,1.91201e+00
1.64370e-03,1.84010e+00
1.65984e-03,1.77086e+00
1.67614e-03,1.70418e+00
1.69259e-03,1.63997e+00
1.70921e-03,1.57814e+00
1.72600e-03,1.51860e+00
1.74294e-03,1.46127e+00
1.76006e-03,1.40606e+00
1.77734e-03,1.35291e+00
1.79479e-03,1.30173e+00
1.81241e-03,1.25244e+00
1.83020e-03,1.20499e+00
1.84817e-03,1.15930e+00
1.86632e-03,1.11532e+00
1.88465e-03,1.07296e+00
1.90315e-03,1.03218e+00
1.92184e-03,9.92922e-01
1.94071e-03,9.55122e-01
1.95976e-03,9.18730e-01
1.97900e-03,8.83693e-01
1.99843e-03,8.49962e-01
2.01805e-03,8.17488e-01
2.03787e-03,7.86224e-01
2.05788e-03,7.56126e-01
2.07808e-03,7.27150e-01
2.09849e-03,6.99256e-01
2.11909e-03,6.72403e-01
2.13990e-03,6.46552e-01
2.16091e-03,6.21667e-01
2.18212e-03,5.97711e-01
2.20355e-03,5.74650e-01
2.22519e-03,5.52451e-01
2.24703e-03,5.31082e-01
2.26910e-03,5.10511e-01
2.29137e-03,4.90710e-01
2.31387e-03,4.71650e-01
2.33659e-03,4.53303e-01
2.35953e-03,4.35642e-01
2.38270e-03,4.18643e-01
2.40609e-03,4.02280e-01
2.42972e-03,3.86530e-01
2.45358e-03,3.71370e-01
2.47767e-03,3.56778e-01
2.50199e-03,3.42733e-01
2.52656e-03,3.29215e-01
2.55137e-03,3.16203e-01
2.57642e-03,3.03679e-01
2.60171e-03,2.91625e-01
2.62726e-03,2.80023e-01
2.65305e-03,2.68856e-01
2.67910e-03,2.58109e-01
2.70541e-03,2.47765e-01
2.73197e-03,2.37809e-01
2.75879e-03,2.28227e-01
2.78588e-03,2.19005e-01
2.81323e-03,2.10129e-01
2.84086e-03,2.01587e-01
2.86875e-03,1.93366e-01
2.89692e-03,1.85454e-01
2.92536e-03,1.77839e-01
2.95408e-03,1.70510e-01
2.98309e-03,1.63458e-01
3.01238e-03,1.56670e-01
3.04195e-03,1.50138e-01
3.07182e-03,1.43851e-01
3.10198e-03,1.37801e-01
3.13244e-03,1.31979e-01
3.16319e-03,1.26375e-01
3.19425e-03,1.20983e-01
3.22561e-03,1.15794e-01
3.25729e-03,1.10800e-01
3.28927e-03,1.05994e-01
3.32156e-03,1.01369e-01
3.35418e-03,9.69183e-02
3.38711e-03,9.26353e-02
3.42037e-03,8.85138e-02
3.45395e-03,8.45475e-02
3.48786e-03,8.07307e-02
3.52211e-03,7.70578e-02
3.55669e-03,7.35233e-02
3.59161e-03,7.01221e-02
3.62687e-03,6.68491e-02
3.66248e-03,6.36996e-02
3.69844e-03,6.06688e-02
3.73476e-03,5.77524e-02
3.77143e-03,5.49460e-02
3.80846e-03,5.22455e-02
3.84585e-03,4.96469e-02
3.88361e-03,4.71463e-02
3.92174e-03,4.47401e-02
3.96025e-03,4.24247e-02
3.99913e-03,4.01967e-02
4.03840e-03,3.80529e-02
4.07805e-03,3.59900e-02
4.11809e-03,3.40049e-02
4.15852e-03,3.20949e-02
4.19935e-03,3.02569e-02
4.24058e-03,2.84884e-02
4.28222e-03,2.67867e-02
4.32426e-03,2.51493e-02
4.36672e-03,2.35737e-02
4.40960e-03,2.20577e-02
4.45289e-03,2.05989e-02
4.49661e-03,1.91953e-02
4.54076e-03,1.78447e-02
4.58535e-03,1.65452e-02
4.63037e-03,1.52948e-02
4.67583e-03,1.40916e-02
4.72174e-03,1.29340e-02
4.76810e-03,1.18201e-02
4.81492e-03,1.07483e-02
4.86219e-03,9.71707e-03
4.90993e-03,8.72482e-03
4.95814e-03,7.77010e-03
5.00682e-03,6.85149e-03
5.05598e-03,5.96762e-03
5.10562e-03,5.11718e-03
5.15575e-03,4.29892e-03
5.20638e-03,3.51161e-03
5.25749e-03,2.75409e-03
5.30911e-03,2.02523e-03
5.36124e-03,1.32395e-03
5.41388e-03,6.49208e-04
5.46704e-03,0.00000e+00
