m1=43547.084, m2=35.241, gsp=2.295, rhosp=23.421
fGW[Hz],dPh[rad]
2.31725e-03,5.77522e+03
2.36162e-03,5.52328e+03
2.40685e-03,5.28185e+03
2.45294e-03,5.05051e+03
2.49991e-03,4.82886e+03
2.54779e-03,4.61651e+03
2.59658e-03,4.41306e+03
2.64630e-03,4.21817e+03
2.69698e-03,4.03149e+03
2.74863e-03,3.85267e+03
2.80127e-03,3.68141e+03
2.85491e-03,3.51739e+03
2.90958e-03,3.36032e+03
2.96530e-03,3.20991e+03
3.02209e-03,3.06590e+03
3.07996e-03,2.92802e+03
3.13894e-03,2.79601e+03
3.19906e-03,2.66965e+03
3.26032e-03,2.54870e+03
3.32275e-03,2.43293e+03
3.38639e-03,2.32213e+03
3.45124e-03,2.21611e+03
3.51733e-03,2.11466e+03
3.58469e-03,2.01759e+03
3.65333e-03,1.92473e+03
3.72330e-03,1.83589e+03
3.79460e-03,1.75092e+03
3.86726e-03,1.66966e+03
3.94132e-03,1.59194e+03
4.01680e-03,1.51763e+03
4.09372e-03,1.44658e+03
4.17212e-03,1.37865e+03
4.25202e-03,1.31372e+03
4.33344e-03,1.25167e+03
4.41643e-03,1.19236e+03
4.50101e-03,1.13568e+03
4.58720e-03,1.08153e+03
4.67505e-03,1.02981e+03
4.76458e-03,9.80392e+02
4.85582e-03,9.33199e+02
4.94881e-03,8.88131e+02
5.04358e-03,8.45099e+02
5.14017e-03,8.04016e+02
5.23860e-03,7.64799e+02
5.33892e-03,7.27370e+02
5.44116e-03,6.91651e+02
5.54536e-03,6.57570e+02
5.65156e-03,6.25056e+02
5.75979e-03,5.94042e+02
5.87009e-03,5.64464e+02
5.98250e-03,5.36260e+02
6.09707e-03,5.09370e+02
6.21383e-03,4.83736e+02
6.33283e-03,4.59306e+02
6.45410e-03,4.36025e+02
6.57770e-03,4.13844e+02
6.70366e-03,3.92714e+02
6.83204e-03,3.72590e+02
6.96288e-03,3.53427e+02
7.09622e-03,3.35182e+02
7.23211e-03,3.17814e+02
7.37061e-03,3.01285e+02
7.51176e-03,2.85557e+02
7.65561e-03,2.70594e+02
7.80222e-03,2.56362e+02
7.95163e-03,2.42828e+02
8.10391e-03,2.29960e+02
8.25910e-03,2.17728e+02
8.41726e-03,2.06103e+02
8.57845e-03,1.95056e+02
8.74273e-03,1.84562e+02
8.91016e-03,1.74596e+02
9.08079e-03,1.65131e+02
9.25469e-03,1.56146e+02
9.43192e-03,1.47618e+02
9.61254e-03,1.39525e+02
9.79663e-03,1.31846e+02
9.98423e-03,1.24564e+02
1.01754e-02,1.17657e+02
1.03703e-02,1.11109e+02
1.05689e-02,1.04903e+02
1.07713e-02,9.90211e+01
1.09776e-02,9.34487e+01
1.11878e-02,8.81705e+01
1.14020e-02,8.31721e+01
1.16204e-02,7.84399e+01
1.18429e-02,7.39607e+01
1.20697e-02,6.97220e+01
1.23009e-02,6.57119e+01
1.25364e-02,6.19190e+01
1.27765e-02,5.83323e+01
1.30212e-02,5.49415e+01
1.32705e-02,5.17366e+01
1.35247e-02,4.87082e+01
1.37837e-02,4.58472e+01
1.40476e-02,4.31451e+01
1.43166e-02,4.05937e+01
1.45908e-02,3.81851e+01
1.48702e-02,3.59118e+01
1.51550e-02,3.37669e+01
1.54452e-02,3.17434e+01
1.57410e-02,2.98351e+01
1.60424e-02,2.80358e+01
1.63496e-02,2.63396e+01
1.66627e-02,2.47410e+01
1.69818e-02,2.32349e+01
1.73070e-02,2.18160e+01
1.76385e-02,2.04798e+01
1.79763e-02,1.92216e+01
1.83205e-02,1.80373e+01
1.86714e-02,1.69226e+01
1.90289e-02,1.58738e+01
1.93933e-02,1.48872e+01
1.97647e-02,1.39593e+01
2.01432e-02,1.30868e+01
2.05290e-02,1.22665e+01
2.09221e-02,1.14956e+01
2.13228e-02,1.07711e+01
2.17311e-02,1.00905e+01
2.21473e-02,9.45118e+00
2.25714e-02,8.85080e+00
2.30036e-02,8.28710e+00
2.34442e-02,7.75794e+00
2.38931e-02,7.26130e+00
2.43507e-02,6.79527e+00
2.48170e-02,6.35806e+00
2.52922e-02,5.94795e+00
2.57766e-02,5.56335e+00
2.62702e-02,5.20272e+00
2.67733e-02,4.86464e+00
2.72860e-02,4.54776e+00
2.78086e-02,4.25079e+00
2.83411e-02,3.97254e+00
2.88838e-02,3.71186e+00
2.94370e-02,3.46770e+00
3.00007e-02,3.23903e+00
3.05752e-02,3.02492e+00
3.11607e-02,2.82446e+00
3.17575e-02,2.63682e+00
3.23656e-02,2.46120e+00
3.29854e-02,2.29685e+00
3.36171e-02,2.14309e+00
3.42609e-02,1.99923e+00
3.49170e-02,1.86468e+00
3.55857e-02,1.73883e+00
3.62672e-02,1.62115e+00
3.69617e-02,1.51112e+00
3.76695e-02,1.40825e+00
3.83909e-02,1.31209e+00
3.91261e-02,1.22221e+00
3.98754e-02,1.13822e+00
4.06390e-02,1.05974e+00
4.14172e-02,9.86413e-01
4.22104e-02,9.17908e-01
4.30187e-02,8.53918e-01
4.38425e-02,7.94150e-01
4.46821e-02,7.38333e-01
4.55378e-02,6.86210e-01
4.64099e-02,6.37541e-01
4.72986e-02,5.92103e-01
4.82044e-02,5.49685e-01
4.91275e-02,5.10090e-01
5.00683e-02,4.73133e-01
5.10272e-02,4.38642e-01
5.20043e-02,4.06455e-01
5.30002e-02,3.76420e-01
5.40152e-02,3.48397e-01
5.50496e-02,3.22252e-01
5.61038e-02,2.97861e-01
5.71782e-02,2.75109e-01
5.82732e-02,2.53886e-01
5.93891e-02,2.34093e-01
6.05265e-02,2.15632e-01
6.16856e-02,1.98417e-01
6.28669e-02,1.82364e-01
6.40708e-02,1.67396e-01
6.52977e-02,1.53439e-01
6.65482e-02,1.40428e-01
6.78226e-02,1.28297e-01
6.91214e-02,1.16989e-01
7.04451e-02,1.06449e-01
7.17942e-02,9.66236e-02
7.31691e-02,8.74661e-02
7.45703e-02,7.89312e-02
7.59983e-02,7.09770e-02
7.74537e-02,6.35645e-02
7.89370e-02,5.66570e-02
8.04486e-02,5.02204e-02
8.19892e-02,4.42229e-02
8.35593e-02,3.86348e-02
8.51595e-02,3.34283e-02
8.67903e-02,2.85777e-02
8.84524e-02,2.40587e-02
9.01463e-02,1.98489e-02
9.18726e-02,1.59272e-02
9.36320e-02,1.22741e-02
9.54251e-02,8.87133e-03
9.72525e-02,5.70179e-03
9.91149e-02,2.74962e-03
1.01013e-01,0.00000e+00
