m1=6513.427, m2=44.079, gsp=2.086, rhosp=68.340
fGW[Hz],dPh[rad]
3.42876e-03,3.44114e+01
3.52106e-03,3.23854e+01
3.61584e-03,3.04785e+01
3.71318e-03,2.86836e+01
3.81313e-03,2.69941e+01
3.91578e-03,2.54039e+01
4.02118e-03,2.39072e+01
4.12943e-03,2.24984e+01
4.24059e-03,2.11724e+01
4.35474e-03,1.99243e+01
4.47196e-03,1.87496e+01
4.59234e-03,1.76440e+01
4.71596e-03,1.66033e+01
4.84291e-03,1.56238e+01
4.97327e-03,1.47020e+01
5.10715e-03,1.38343e+01
5.24463e-03,1.30176e+01
5.38580e-03,1.22490e+01
5.53078e-03,1.15256e+01
5.67967e-03,1.08448e+01
5.83255e-03,1.02040e+01
5.98956e-03,9.60089e+00
6.15079e-03,9.03328e+00
6.31636e-03,8.49909e+00
6.48639e-03,7.99633e+00
6.66100e-03,7.52317e+00
6.84030e-03,7.07787e+00
7.02443e-03,6.65879e+00
7.21352e-03,6.26439e+00
7.40770e-03,5.89323e+00
7.60711e-03,5.54392e+00
7.81188e-03,5.21520e+00
8.02217e-03,4.90585e+00
8.23811e-03,4.61474e+00
8.45987e-03,4.34078e+00
8.68760e-03,4.08298e+00
8.92146e-03,3.84039e+00
9.16162e-03,3.61210e+00
9.40823e-03,3.39729e+00
9.66149e-03,3.19515e+00
9.92157e-03,3.00494e+00
1.01886e-02,2.82596e+00
1.04629e-02,2.65755e+00
1.07446e-02,2.49909e+00
1.10338e-02,2.34999e+00
1.13308e-02,2.20971e+00
1.16358e-02,2.07772e+00
1.19490e-02,1.95353e+00
1.22707e-02,1.83669e+00
1.26010e-02,1.72676e+00
1.29402e-02,1.62335e+00
1.32885e-02,1.52605e+00
1.36462e-02,1.43452e+00
1.40136e-02,1.34841e+00
1.43908e-02,1.26741e+00
1.47782e-02,1.19121e+00
1.51760e-02,1.11954e+00
1.55845e-02,1.05211e+00
1.60040e-02,9.88694e-01
1.64348e-02,9.29043e-01
1.68773e-02,8.72937e-01
1.73316e-02,8.20168e-01
1.77981e-02,7.70539e-01
1.82772e-02,7.23864e-01
1.87692e-02,6.79970e-01
1.92745e-02,6.38691e-01
1.97933e-02,5.99875e-01
2.03261e-02,5.63374e-01
2.08733e-02,5.29053e-01
2.14351e-02,4.96783e-01
2.20121e-02,4.66442e-01
2.26047e-02,4.37917e-01
2.32132e-02,4.11100e-01
2.38380e-02,3.85889e-01
2.44797e-02,3.62191e-01
2.51387e-02,3.39915e-01
2.58154e-02,3.18978e-01
2.65103e-02,2.99299e-01
2.72239e-02,2.80805e-01
2.79568e-02,2.63425e-01
2.87093e-02,2.47092e-01
2.94822e-02,2.31746e-01
3.02758e-02,2.17327e-01
3.10908e-02,2.03780e-01
3.19277e-02,1.91053e-01
3.27871e-02,1.79098e-01
3.36697e-02,1.67869e-01
3.45761e-02,1.57322e-01
3.55068e-02,1.47417e-01
3.64626e-02,1.38116e-01
3.74441e-02,1.29382e-01
3.84521e-02,1.21182e-01
3.94872e-02,1.13484e-01
4.05501e-02,1.06258e-01
4.16417e-02,9.94748e-02
4.27626e-02,9.31091e-02
4.39137e-02,8.71355e-02
4.50958e-02,8.15305e-02
4.63097e-02,7.62719e-02
4.75563e-02,7.13390e-02
4.88365e-02,6.67121e-02
5.01511e-02,6.23729e-02
5.15011e-02,5.83040e-02
5.28875e-02,5.44890e-02
5.43111e-02,5.09128e-02
5.57731e-02,4.75607e-02
5.72745e-02,4.44194e-02
5.88162e-02,4.14759e-02
6.03995e-02,3.87182e-02
6.20253e-02,3.61352e-02
6.36950e-02,3.37161e-02
6.54096e-02,3.14509e-02
6.71703e-02,2.93303e-02
6.89785e-02,2.73454e-02
7.08353e-02,2.54879e-02
7.27421e-02,2.37500e-02
7.47002e-02,2.21243e-02
7.67110e-02,2.06038e-02
7.87760e-02,1.91822e-02
8.08965e-02,1.78533e-02
8.30742e-02,1.66113e-02
8.53104e-02,1.54508e-02
8.76069e-02,1.43667e-02
8.99651e-02,1.33544e-02
9.23869e-02,1.24092e-02
9.48738e-02,1.15270e-02
9.74277e-02,1.07039e-02
1.00050e-01,9.93594e-03
1.02744e-01,9.21980e-03
1.05509e-01,8.55215e-03
1.08349e-01,7.92989e-03
1.11266e-01,7.35013e-03
1.14261e-01,6.81013e-03
1.17337e-01,6.30734e-03
1.20496e-01,5.83936e-03
1.23739e-01,5.40391e-03
1.27070e-01,4.99889e-03
1.30491e-01,4.62230e-03
1.34003e-01,4.27228e-03
1.37610e-01,3.94707e-03
1.41315e-01,3.64504e-03
1.45119e-01,3.36463e-03
1.49025e-01,3.10441e-03
1.53037e-01,2.86302e-03
1.57156e-01,2.63918e-03
1.61387e-01,2.43171e-03
1.65731e-01,2.23950e-03
1.70192e-01,2.06149e-03
1.74774e-01,1.89671e-03
1.79478e-01,1.74424e-03
1.84310e-01,1.60322e-03
1.89271e-01,1.47285e-03
1.94366e-01,1.35239e-03
1.99598e-01,1.24113e-03
2.04971e-01,1.13841e-03
2.10489e-01,1.04362e-03
2.16155e-01,9.56197e-04
2.21973e-01,8.75598e-04
2.27948e-01,8.01326e-04
2.34085e-01,7.32919e-04
2.40386e-01,6.69941e-04
2.46857e-01,6.11989e-04
2.53502e-01,5.58688e-04
2.60326e-01,5.09688e-04
2.67333e-01,4.64662e-04
2.74530e-01,4.23307e-04
2.81920e-01,3.85342e-04
2.89509e-01,3.50505e-04
2.97302e-01,3.18554e-04
3.05305e-01,2.89262e-04
3.13523e-01,2.62421e-04
3.21963e-01,2.37836e-04
3.30630e-01,2.15328e-04
3.39530e-01,1.94731e-04
3.48669e-01,1.75891e-04
3.58055e-01,1.58665e-04
3.67694e-01,1.42922e-04
3.77591e-01,1.28541e-04
3.87756e-01,1.15408e-04
3.98194e-01,1.03421e-04
4.08912e-01,9.24833e-05
4.19920e-01,8.25078e-05
4.31223e-01,7.34133e-05
4.42831e-01,6.51250e-05
4.54752e-01,5.75743e-05
4.66993e-01,5.06981e-05
4.79564e-01,4.44384e-05
4.92473e-01,3.87419e-05
5.05730e-01,3.35598e-05
5.19344e-01,2.88471e-05
5.33324e-01,2.45628e-05
5.47680e-01,2.06692e-05
5.62423e-01,1.71317e-05
5.77563e-01,1.39188e-05
5.93110e-01,1.10015e-05
6.09076e-01,8.35339e-06
6.25471e-01,5.95033e-06
6.42308e-01,3.77023e-06
6.59598e-01,1.79292e-06
6.77354e-01,0.00000e+00
