m1=91745.606, m2=23.967, gsp=2.451, rhosp=294.751
fGW[Hz],dPh[rad]
2.22240e-03,2.33299e+05
2.25697e-03,2.23520e+05
2.29207e-03,2.14120e+05
2.32772e-03,2.05087e+05
2.36392e-03,1.96407e+05
2.40069e-03,1.88068e+05
2.43802e-03,1.80057e+05
2.47594e-03,1.72363e+05
2.51445e-03,1.64974e+05
2.55356e-03,1.57880e+05
2.59327e-03,1.51068e+05
2.63361e-03,1.44530e+05
2.67457e-03,1.38255e+05
2.71616e-03,1.32233e+05
2.75841e-03,1.26455e+05
2.80131e-03,1.20912e+05
2.84488e-03,1.15596e+05
2.88912e-03,1.10497e+05
2.93406e-03,1.05607e+05
2.97969e-03,1.00920e+05
3.02603e-03,9.64265e+04
3.07310e-03,9.21198e+04
3.12089e-03,8.79927e+04
3.16943e-03,8.40384e+04
3.21873e-03,8.02502e+04
3.26879e-03,7.66217e+04
3.31963e-03,7.31468e+04
3.37126e-03,6.98195e+04
3.42369e-03,6.66339e+04
3.47694e-03,6.35847e+04
3.53101e-03,6.06663e+04
3.58593e-03,5.78737e+04
3.64170e-03,5.52019e+04
3.69834e-03,5.26459e+04
3.75586e-03,5.02013e+04
3.81428e-03,4.78635e+04
3.87360e-03,4.56283e+04
3.93385e-03,4.34914e+04
3.99503e-03,4.14488e+04
4.05716e-03,3.94968e+04
4.12026e-03,3.76316e+04
4.18435e-03,3.58497e+04
4.24942e-03,3.41475e+04
4.31552e-03,3.25218e+04
4.38263e-03,3.09693e+04
4.45080e-03,2.94871e+04
4.52002e-03,2.80722e+04
4.59032e-03,2.67217e+04
4.66171e-03,2.54328e+04
4.73422e-03,2.42031e+04
4.80785e-03,2.30298e+04
4.88262e-03,2.19107e+04
4.95856e-03,2.08434e+04
5.03568e-03,1.98256e+04
5.11400e-03,1.88552e+04
5.19354e-03,1.79301e+04
5.27431e-03,1.70483e+04
5.35634e-03,1.62080e+04
5.43965e-03,1.54073e+04
5.52425e-03,1.46444e+04
5.61017e-03,1.39177e+04
5.69743e-03,1.32255e+04
5.78604e-03,1.25664e+04
5.87603e-03,1.19387e+04
5.96742e-03,1.13412e+04
6.06023e-03,1.07724e+04
6.15448e-03,1.02310e+04
6.25020e-03,9.71572e+03
6.34741e-03,9.22546e+03
6.44613e-03,8.75902e+03
6.54639e-03,8.31531e+03
6.64820e-03,7.89327e+03
6.75160e-03,7.49189e+03
6.85661e-03,7.11022e+03
6.96325e-03,6.74733e+03
7.07155e-03,6.40234e+03
7.18153e-03,6.07440e+03
7.29323e-03,5.76272e+03
7.40666e-03,5.46652e+03
7.52185e-03,5.18506e+03
7.63884e-03,4.91765e+03
7.75765e-03,4.66361e+03
7.87830e-03,4.42230e+03
8.00083e-03,4.19311e+03
8.12527e-03,3.97545e+03
8.25164e-03,3.76877e+03
8.37998e-03,3.57253e+03
8.51031e-03,3.38623e+03
8.64267e-03,3.20937e+03
8.77709e-03,3.04151e+03
8.91360e-03,2.88219e+03
9.05223e-03,2.73101e+03
9.19302e-03,2.58754e+03
9.33600e-03,2.45143e+03
9.48120e-03,2.32229e+03
9.62866e-03,2.19979e+03
9.77841e-03,2.08360e+03
9.93050e-03,1.97339e+03
1.00849e-02,1.86888e+03
1.02418e-02,1.76977e+03
1.04011e-02,1.67579e+03
1.05629e-02,1.58669e+03
1.07271e-02,1.50222e+03
1.08940e-02,1.42214e+03
1.10634e-02,1.34624e+03
1.12355e-02,1.27430e+03
1.14102e-02,1.20611e+03
1.15877e-02,1.14150e+03
1.17679e-02,1.08027e+03
1.19509e-02,1.02225e+03
1.21368e-02,9.67277e+02
1.23256e-02,9.15198e+02
1.25173e-02,8.65862e+02
1.27119e-02,8.19127e+02
1.29096e-02,7.74859e+02
1.31104e-02,7.32931e+02
1.33143e-02,6.93221e+02
1.35214e-02,6.55614e+02
1.37317e-02,6.20002e+02
1.39453e-02,5.86280e+02
1.41622e-02,5.54350e+02
1.43824e-02,5.24118e+02
1.46061e-02,4.95496e+02
1.48333e-02,4.68399e+02
1.50640e-02,4.42748e+02
1.52983e-02,4.18466e+02
1.55362e-02,3.95483e+02
1.57778e-02,3.73728e+02
1.60232e-02,3.53139e+02
1.62724e-02,3.33652e+02
1.65255e-02,3.15211e+02
1.67825e-02,2.97760e+02
1.70436e-02,2.81246e+02
1.73086e-02,2.65619e+02
1.75778e-02,2.50834e+02
1.78512e-02,2.36844e+02
1.81289e-02,2.23608e+02
1.84108e-02,2.11086e+02
1.86972e-02,1.99240e+02
1.89880e-02,1.88033e+02
1.92833e-02,1.77431e+02
1.95832e-02,1.67403e+02
1.98878e-02,1.57917e+02
2.01971e-02,1.48945e+02
2.05112e-02,1.40458e+02
2.08302e-02,1.32432e+02
2.11542e-02,1.24840e+02
2.14832e-02,1.17661e+02
2.18173e-02,1.10871e+02
2.21566e-02,1.04450e+02
2.25012e-02,9.83783e+01
2.28512e-02,9.26364e+01
2.32066e-02,8.72069e+01
2.35675e-02,8.20729e+01
2.39341e-02,7.72185e+01
2.43063e-02,7.26285e+01
2.46844e-02,6.82886e+01
2.50683e-02,6.41854e+01
2.54582e-02,6.03060e+01
2.58541e-02,5.66383e+01
2.62562e-02,5.31709e+01
2.66646e-02,4.98928e+01
2.70793e-02,4.67939e+01
2.75005e-02,4.38643e+01
2.79282e-02,4.10949e+01
2.83625e-02,3.84770e+01
2.88037e-02,3.60023e+01
2.92516e-02,3.36631e+01
2.97066e-02,3.14520e+01
3.01686e-02,2.93620e+01
3.06378e-02,2.73865e+01
3.11143e-02,2.55193e+01
3.15982e-02,2.37544e+01
3.20897e-02,2.20864e+01
3.25888e-02,2.05098e+01
3.30956e-02,1.90198e+01
3.36104e-02,1.76115e+01
3.41331e-02,1.62806e+01
3.46640e-02,1.50228e+01
3.52031e-02,1.38340e+01
3.57506e-02,1.27106e+01
3.63066e-02,1.16489e+01
3.68713e-02,1.06456e+01
3.74448e-02,9.69747e+00
3.80271e-02,8.80147e+00
3.86186e-02,7.95477e+00
3.92192e-02,7.15465e+00
3.98292e-02,6.39857e+00
4.04486e-02,5.68411e+00
4.10777e-02,5.00899e+00
4.17166e-02,4.37104e+00
4.23654e-02,3.76824e+00
4.30243e-02,3.19864e+00
4.36935e-02,2.66042e+00
4.43730e-02,2.15187e+00
4.50632e-02,1.67135e+00
4.57640e-02,1.21732e+00
4.64758e-02,7.88322e-01
4.71986e-02,3.82982e-01
4.79327e-02,0.00000e+00
