m1=395428.102, m2=75.248, gsp=2.135, rhosp=10.646
fGW[Hz],dPh[rad]
1.00431e-03,1.74301e+02
1.01652e-03,1.67282e+02
1.02888e-03,1.60533e+02
1.04139e-03,1.54044e+02
1.05404e-03,1.47806e+02
1.06686e-03,1.41809e+02
1.07983e-03,1.36045e+02
1.09295e-03,1.30505e+02
1.10624e-03,1.25182e+02
1.11969e-03,1.20066e+02
1.13330e-03,1.15151e+02
1.14708e-03,1.10429e+02
1.16102e-03,1.05893e+02
1.17513e-03,1.01535e+02
1.18942e-03,9.73499e+01
1.20388e-03,9.33304e+01
1.21851e-03,8.94705e+01
1.23332e-03,8.57641e+01
1.24832e-03,8.22055e+01
1.26349e-03,7.87890e+01
1.27885e-03,7.55092e+01
1.29440e-03,7.23610e+01
1.31013e-03,6.93394e+01
1.32606e-03,6.64394e+01
1.34218e-03,6.36564e+01
1.35849e-03,6.09860e+01
1.37501e-03,5.84238e+01
1.39172e-03,5.59655e+01
1.40864e-03,5.36073e+01
1.42577e-03,5.13451e+01
1.44310e-03,4.91753e+01
1.46064e-03,4.70942e+01
1.47840e-03,4.50984e+01
1.49637e-03,4.31846e+01
1.51456e-03,4.13494e+01
1.53297e-03,3.95898e+01
1.55160e-03,3.79029e+01
1.57047e-03,3.62857e+01
1.58956e-03,3.47355e+01
1.60888e-03,3.32495e+01
1.62844e-03,3.18254e+01
1.64823e-03,3.04605e+01
1.66827e-03,2.91525e+01
1.68855e-03,2.78991e+01
1.70908e-03,2.66982e+01
1.72985e-03,2.55476e+01
1.75088e-03,2.44452e+01
1.77217e-03,2.33892e+01
1.79371e-03,2.23776e+01
1.81551e-03,2.14087e+01
1.83758e-03,2.04806e+01
1.85992e-03,1.95918e+01
1.88253e-03,1.87406e+01
1.90542e-03,1.79256e+01
1.92858e-03,1.71451e+01
1.95202e-03,1.63978e+01
1.97575e-03,1.56823e+01
1.99977e-03,1.49973e+01
2.02408e-03,1.43416e+01
2.04868e-03,1.37139e+01
2.07359e-03,1.31130e+01
2.09880e-03,1.25380e+01
2.12431e-03,1.19875e+01
2.15013e-03,1.14608e+01
2.17627e-03,1.09567e+01
2.20273e-03,1.04743e+01
2.22950e-03,1.00127e+01
2.25661e-03,9.57102e+00
2.28404e-03,9.14844e+00
2.31180e-03,8.74415e+00
2.33991e-03,8.35737e+00
2.36835e-03,7.98736e+00
2.39714e-03,7.63342e+00
2.42628e-03,7.29486e+00
2.45578e-03,6.97103e+00
2.48563e-03,6.66130e+00
2.51584e-03,6.36507e+00
2.54643e-03,6.08177e+00
2.57738e-03,5.81085e+00
2.60871e-03,5.55177e+00
2.64043e-03,5.30403e+00
2.67252e-03,5.06715e+00
2.70501e-03,4.84065e+00
2.73789e-03,4.62409e+00
2.77118e-03,4.41705e+00
2.80486e-03,4.21911e+00
2.83896e-03,4.02988e+00
2.87347e-03,3.84898e+00
2.90840e-03,3.67606e+00
2.94376e-03,3.51077e+00
2.97954e-03,3.35278e+00
3.01576e-03,3.20176e+00
3.05242e-03,3.05743e+00
3.08953e-03,2.91949e+00
3.12709e-03,2.78765e+00
3.16510e-03,2.66166e+00
3.20358e-03,2.54125e+00
3.24252e-03,2.42620e+00
3.28194e-03,2.31625e+00
3.32183e-03,2.21119e+00
3.36221e-03,2.11080e+00
3.40309e-03,2.01488e+00
3.44445e-03,1.92324e+00
3.48633e-03,1.83568e+00
3.52871e-03,1.75202e+00
3.57160e-03,1.67210e+00
3.61502e-03,1.59575e+00
3.65897e-03,1.52281e+00
3.70344e-03,1.45313e+00
3.74846e-03,1.38657e+00
3.79403e-03,1.32299e+00
3.84015e-03,1.26225e+00
3.88684e-03,1.20424e+00
3.93408e-03,1.14883e+00
3.98191e-03,1.09591e+00
4.03031e-03,1.04536e+00
4.07931e-03,9.97076e-01
4.12890e-03,9.50966e-01
4.17909e-03,9.06929e-01
4.22989e-03,8.64873e-01
4.28131e-03,8.24709e-01
4.33335e-03,7.86354e-01
4.38603e-03,7.49726e-01
4.43935e-03,7.14748e-01
4.49332e-03,6.81348e-01
4.54794e-03,6.49454e-01
4.60322e-03,6.18999e-01
4.65918e-03,5.89919e-01
4.71582e-03,5.62152e-01
4.77315e-03,5.35640e-01
4.83117e-03,5.10326e-01
4.88990e-03,4.86157e-01
4.94934e-03,4.63081e-01
5.00951e-03,4.41049e-01
5.07040e-03,4.20014e-01
5.13204e-03,3.99932e-01
5.19443e-03,3.80760e-01
5.25757e-03,3.62457e-01
5.32149e-03,3.44983e-01
5.38617e-03,3.28302e-01
5.45165e-03,3.12377e-01
5.51792e-03,2.97175e-01
5.58500e-03,2.82663e-01
5.65289e-03,2.68810e-01
5.72161e-03,2.55587e-01
5.79116e-03,2.42964e-01
5.86156e-03,2.30914e-01
5.93282e-03,2.19413e-01
6.00494e-03,2.08435e-01
6.07794e-03,1.97956e-01
6.15182e-03,1.87953e-01
6.22660e-03,1.78406e-01
6.30230e-03,1.69294e-01
6.37891e-03,1.60596e-01
6.45645e-03,1.52295e-01
6.53494e-03,1.44372e-01
6.61438e-03,1.36810e-01
6.69478e-03,1.29593e-01
6.77617e-03,1.22705e-01
6.85854e-03,1.16130e-01
6.94192e-03,1.09856e-01
7.02630e-03,1.03868e-01
7.11172e-03,9.81534e-02
7.19817e-03,9.26995e-02
7.28567e-03,8.74946e-02
7.37424e-03,8.25274e-02
7.46388e-03,7.77871e-02
7.55461e-03,7.32633e-02
7.64645e-03,6.89462e-02
7.73940e-03,6.48263e-02
7.83348e-03,6.08948e-02
7.92871e-03,5.71431e-02
8.02509e-03,5.35628e-02
8.12265e-03,5.01464e-02
8.22139e-03,4.68862e-02
8.32133e-03,4.37751e-02
8.42249e-03,4.08064e-02
8.52487e-03,3.79735e-02
8.62850e-03,3.52704e-02
8.73339e-03,3.26909e-02
8.83956e-03,3.02296e-02
8.94702e-03,2.78810e-02
9.05578e-03,2.56399e-02
9.16586e-03,2.35015e-02
9.27728e-03,2.14611e-02
9.39006e-03,1.95142e-02
9.50421e-03,1.76565e-02
9.61975e-03,1.58839e-02
9.73669e-03,1.41926e-02
9.85505e-03,1.25788e-02
9.97485e-03,1.10390e-02
1.00961e-02,9.56981e-03
1.02188e-02,8.16801e-03
1.03431e-02,6.83050e-03
1.04688e-02,5.55435e-03
1.05961e-02,4.33674e-03
1.07249e-02,3.17501e-03
1.08552e-02,2.06658e-03
1.09872e-02,1.00902e-03
1.11208e-02,0.00000e+00
