m1=304091.209, m2=14.655, gsp=2.425, rhosp=567.012
fGW[Hz],dPh[rad]
1.98068e-03,7.22071e+04
2.00056e-03,6.96531e+04
2.02065e-03,6.71883e+04
2.04093e-03,6.48095e+04
2.06143e-03,6.25139e+04
2.08212e-03,6.02985e+04
2.10303e-03,5.81606e+04
2.12414e-03,5.60975e+04
2.14546e-03,5.41067e+04
2.16700e-03,5.21857e+04
2.18876e-03,5.03320e+04
2.21074e-03,4.85434e+04
2.23293e-03,4.68176e+04
2.25535e-03,4.51524e+04
2.27799e-03,4.35457e+04
2.30086e-03,4.19956e+04
2.32396e-03,4.05000e+04
2.34729e-03,3.90570e+04
2.37086e-03,3.76649e+04
2.39466e-03,3.63219e+04
2.41871e-03,3.50262e+04
2.44299e-03,3.37762e+04
2.46752e-03,3.25703e+04
2.49229e-03,3.14071e+04
2.51731e-03,3.02849e+04
2.54258e-03,2.92024e+04
2.56811e-03,2.81582e+04
2.59389e-03,2.71510e+04
2.61994e-03,2.61794e+04
2.64624e-03,2.52422e+04
2.67281e-03,2.43382e+04
2.69964e-03,2.34663e+04
2.72674e-03,2.26253e+04
2.75412e-03,2.18141e+04
2.78177e-03,2.10317e+04
2.80970e-03,2.02771e+04
2.83791e-03,1.95493e+04
2.86640e-03,1.88474e+04
2.89518e-03,1.81704e+04
2.92424e-03,1.75175e+04
2.95360e-03,1.68879e+04
2.98326e-03,1.62806e+04
3.01321e-03,1.56950e+04
3.04346e-03,1.51302e+04
3.07401e-03,1.45855e+04
3.10488e-03,1.40603e+04
3.13605e-03,1.35538e+04
3.16753e-03,1.30654e+04
3.19934e-03,1.25944e+04
3.23146e-03,1.21402e+04
3.26390e-03,1.17022e+04
3.29667e-03,1.12799e+04
3.32977e-03,1.08726e+04
3.36320e-03,1.04799e+04
3.39696e-03,1.01013e+04
3.43107e-03,9.73616e+03
3.46551e-03,9.38412e+03
3.50031e-03,9.04467e+03
3.53545e-03,8.71737e+03
3.57094e-03,8.40179e+03
3.60679e-03,8.09751e+03
3.64301e-03,7.80413e+03
3.67958e-03,7.52127e+03
3.71652e-03,7.24854e+03
3.75383e-03,6.98559e+03
3.79152e-03,6.73208e+03
3.82959e-03,6.48765e+03
3.86804e-03,6.25200e+03
3.90687e-03,6.02481e+03
3.94609e-03,5.80577e+03
3.98571e-03,5.59460e+03
4.02573e-03,5.39101e+03
4.06614e-03,5.19473e+03
4.10697e-03,5.00551e+03
4.14820e-03,4.82309e+03
4.18985e-03,4.64723e+03
4.23191e-03,4.47769e+03
4.27440e-03,4.31425e+03
4.31731e-03,4.15669e+03
4.36066e-03,4.00479e+03
4.40444e-03,3.85837e+03
4.44866e-03,3.71721e+03
4.49332e-03,3.58114e+03
4.53843e-03,3.44996e+03
4.58400e-03,3.32351e+03
4.63002e-03,3.20162e+03
4.67650e-03,3.08412e+03
4.72345e-03,2.97085e+03
4.77088e-03,2.86167e+03
4.81878e-03,2.75642e+03
4.86715e-03,2.65496e+03
4.91602e-03,2.55717e+03
4.96537e-03,2.46290e+03
5.01523e-03,2.37203e+03
5.06558e-03,2.28444e+03
5.11643e-03,2.20001e+03
5.16780e-03,2.11863e+03
5.21969e-03,2.04019e+03
5.27209e-03,1.96458e+03
5.32502e-03,1.89170e+03
5.37848e-03,1.82145e+03
5.43248e-03,1.75374e+03
5.48702e-03,1.68847e+03
5.54211e-03,1.62557e+03
5.59775e-03,1.56493e+03
5.65395e-03,1.50649e+03
5.71071e-03,1.45016e+03
5.76805e-03,1.39586e+03
5.82596e-03,1.34353e+03
5.88445e-03,1.29310e+03
5.94353e-03,1.24448e+03
6.00320e-03,1.19762e+03
6.06347e-03,1.15246e+03
6.12435e-03,1.10894e+03
6.18583e-03,1.06698e+03
6.24794e-03,1.02655e+03
6.31066e-03,9.87578e+02
6.37402e-03,9.50018e+02
6.43801e-03,9.13817e+02
6.50265e-03,8.78927e+02
6.56794e-03,8.45300e+02
6.63388e-03,8.12891e+02
6.70048e-03,7.81655e+02
6.76775e-03,7.51551e+02
6.83570e-03,7.22537e+02
6.90432e-03,6.94574e+02
6.97364e-03,6.67624e+02
7.04366e-03,6.41651e+02
7.11437e-03,6.16619e+02
7.18580e-03,5.92494e+02
7.25794e-03,5.69243e+02
7.33081e-03,5.46835e+02
7.40441e-03,5.25239e+02
7.47875e-03,5.04427e+02
7.55383e-03,4.84369e+02
7.62967e-03,4.65038e+02
7.70627e-03,4.46408e+02
7.78364e-03,4.28454e+02
7.86179e-03,4.11150e+02
7.94072e-03,3.94475e+02
8.02044e-03,3.78404e+02
8.10096e-03,3.62917e+02
8.18229e-03,3.47991e+02
8.26444e-03,3.33607e+02
8.34741e-03,3.19744e+02
8.43122e-03,3.06385e+02
8.51587e-03,2.93510e+02
8.60136e-03,2.81103e+02
8.68772e-03,2.69146e+02
8.77494e-03,2.57623e+02
8.86304e-03,2.46519e+02
8.95202e-03,2.35817e+02
9.04190e-03,2.25504e+02
9.13268e-03,2.15565e+02
9.22437e-03,2.05988e+02
9.31698e-03,1.96758e+02
9.41052e-03,1.87863e+02
9.50500e-03,1.79291e+02
9.60042e-03,1.71031e+02
9.69681e-03,1.63070e+02
9.79416e-03,1.55399e+02
9.89249e-03,1.48006e+02
9.99181e-03,1.40882e+02
1.00921e-02,1.34017e+02
1.01934e-02,1.27401e+02
1.02958e-02,1.21025e+02
1.03992e-02,1.14881e+02
1.05036e-02,1.08961e+02
1.06090e-02,1.03255e+02
1.07155e-02,9.77570e+01
1.08231e-02,9.24586e+01
1.09318e-02,8.73528e+01
1.10415e-02,8.24325e+01
1.11524e-02,7.76911e+01
1.12643e-02,7.31219e+01
1.13774e-02,6.87189e+01
1.14917e-02,6.44760e+01
1.16070e-02,6.03872e+01
1.17236e-02,5.64471e+01
1.18413e-02,5.26503e+01
1.19601e-02,4.89915e+01
1.20802e-02,4.54657e+01
1.22015e-02,4.20681e+01
1.23240e-02,3.87940e+01
1.24477e-02,3.56390e+01
1.25727e-02,3.25988e+01
1.26989e-02,2.96690e+01
1.28264e-02,2.68459e+01
1.29552e-02,2.41254e+01
1.30853e-02,2.15038e+01
1.32166e-02,1.89776e+01
1.33493e-02,1.65433e+01
1.34834e-02,1.41975e+01
1.36187e-02,1.19370e+01
1.37555e-02,9.75875e+00
1.38936e-02,7.65974e+00
1.40330e-02,5.63708e+00
1.41739e-02,3.68801e+00
1.43162e-02,1.80984e+00
1.44600e-02,0.00000e+00
