m1=662286.036, m2=17.302, gsp=2.065, rhosp=223.256
fGW[Hz],dPh[rad]
1.53203e-03,5.56765e+01
1.54336e-03,5.40871e+01
1.55478e-03,5.25427e+01
1.56627e-03,5.10422e+01
1.57786e-03,4.95841e+01
1.58953e-03,4.81675e+01
1.60128e-03,4.67910e+01
1.61313e-03,4.54535e+01
1.62506e-03,4.41541e+01
1.63708e-03,4.28914e+01
1.64919e-03,4.16647e+01
1.66138e-03,4.04727e+01
1.67367e-03,3.93146e+01
1.68605e-03,3.81894e+01
1.69852e-03,3.70961e+01
1.71108e-03,3.60339e+01
1.72374e-03,3.50019e+01
1.73649e-03,3.39991e+01
1.74933e-03,3.30249e+01
1.76227e-03,3.20784e+01
1.77530e-03,3.11587e+01
1.78843e-03,3.02652e+01
1.80166e-03,2.93971e+01
1.81499e-03,2.85537e+01
1.82841e-03,2.77343e+01
1.84193e-03,2.69382e+01
1.85556e-03,2.61647e+01
1.86928e-03,2.54132e+01
1.88311e-03,2.46831e+01
1.89703e-03,2.39738e+01
1.91106e-03,2.32847e+01
1.92520e-03,2.26151e+01
1.93944e-03,2.19647e+01
1.95378e-03,2.13327e+01
1.96823e-03,2.07188e+01
1.98279e-03,2.01223e+01
1.99745e-03,1.95428e+01
2.01223e-03,1.89798e+01
2.02711e-03,1.84328e+01
2.04210e-03,1.79015e+01
2.05721e-03,1.73852e+01
2.07242e-03,1.68837e+01
2.08775e-03,1.63965e+01
2.10319e-03,1.59231e+01
2.11875e-03,1.54633e+01
2.13442e-03,1.50165e+01
2.15020e-03,1.45825e+01
2.16611e-03,1.41609e+01
2.18213e-03,1.37513e+01
2.19827e-03,1.33533e+01
2.21452e-03,1.29667e+01
2.23090e-03,1.25912e+01
2.24740e-03,1.22263e+01
2.26403e-03,1.18719e+01
2.28077e-03,1.15275e+01
2.29764e-03,1.11930e+01
2.31463e-03,1.08680e+01
2.33175e-03,1.05523e+01
2.34900e-03,1.02457e+01
2.36637e-03,9.94772e+00
2.38387e-03,9.65829e+00
2.40150e-03,9.37712e+00
2.41927e-03,9.10398e+00
2.43716e-03,8.83863e+00
2.45519e-03,8.58087e+00
2.47334e-03,8.33046e+00
2.49164e-03,8.08720e+00
2.51007e-03,7.85089e+00
2.52863e-03,7.62132e+00
2.54733e-03,7.39832e+00
2.56617e-03,7.18168e+00
2.58515e-03,6.97123e+00
2.60427e-03,6.76680e+00
2.62353e-03,6.56820e+00
2.64294e-03,6.37528e+00
2.66249e-03,6.18787e+00
2.68218e-03,6.00582e+00
2.70202e-03,5.82897e+00
2.72200e-03,5.65717e+00
2.74213e-03,5.49029e+00
2.76241e-03,5.32817e+00
2.78284e-03,5.17069e+00
2.80343e-03,5.01771e+00
2.82416e-03,4.86911e+00
2.84505e-03,4.72475e+00
2.86609e-03,4.58452e+00
2.88729e-03,4.44830e+00
2.90864e-03,4.31597e+00
2.93016e-03,4.18743e+00
2.95183e-03,4.06257e+00
2.97366e-03,3.94127e+00
2.99565e-03,3.82345e+00
3.01781e-03,3.70899e+00
3.04013e-03,3.59781e+00
3.06261e-03,3.48982e+00
3.08527e-03,3.38491e+00
3.10809e-03,3.28300e+00
3.13107e-03,3.18400e+00
3.15423e-03,3.08784e+00
3.17756e-03,2.99444e+00
3.20106e-03,2.90370e+00
3.22474e-03,2.81556e+00
3.24859e-03,2.72995e+00
3.27261e-03,2.64678e+00
3.29682e-03,2.56599e+00
3.32120e-03,2.48752e+00
3.34577e-03,2.41129e+00
3.37051e-03,2.33725e+00
3.39544e-03,2.26532e+00
3.42055e-03,2.19546e+00
3.44585e-03,2.12759e+00
3.47134e-03,2.06167e+00
3.49701e-03,1.99763e+00
3.52288e-03,1.93543e+00
3.54893e-03,1.87501e+00
3.57518e-03,1.81632e+00
3.60162e-03,1.75931e+00
3.62826e-03,1.70393e+00
3.65510e-03,1.65014e+00
3.68213e-03,1.59789e+00
3.70936e-03,1.54713e+00
3.73680e-03,1.49783e+00
3.76444e-03,1.44995e+00
3.79228e-03,1.40343e+00
3.82033e-03,1.35825e+00
3.84858e-03,1.31436e+00
3.87705e-03,1.27172e+00
3.90572e-03,1.23031e+00
3.93461e-03,1.19009e+00
3.96371e-03,1.15102e+00
3.99303e-03,1.11307e+00
4.02256e-03,1.07620e+00
4.05231e-03,1.04039e+00
4.08228e-03,1.00561e+00
4.11247e-03,9.71824e-01
4.14289e-03,9.39006e-01
4.17353e-03,9.07129e-01
4.20440e-03,8.76166e-01
4.23550e-03,8.46090e-01
4.26682e-03,8.16876e-01
4.29838e-03,7.88500e-01
4.33017e-03,7.60936e-01
4.36220e-03,7.34163e-01
4.39446e-03,7.08157e-01
4.42696e-03,6.82897e-01
4.45970e-03,6.58361e-01
4.49269e-03,6.34528e-01
4.52592e-03,6.11379e-01
4.55939e-03,5.88893e-01
4.59311e-03,5.67051e-01
4.62708e-03,5.45836e-01
4.66131e-03,5.25230e-01
4.69578e-03,5.05214e-01
4.73051e-03,4.85772e-01
4.76550e-03,4.66887e-01
4.80075e-03,4.48544e-01
4.83625e-03,4.30727e-01
4.87202e-03,4.13421e-01
4.90806e-03,3.96611e-01
4.94436e-03,3.80283e-01
4.98093e-03,3.64424e-01
5.01777e-03,3.49019e-01
5.05488e-03,3.34056e-01
5.09226e-03,3.19522e-01
5.12993e-03,3.05405e-01
5.16787e-03,2.91693e-01
5.20609e-03,2.78374e-01
5.24460e-03,2.65438e-01
5.28339e-03,2.52872e-01
5.32246e-03,2.40667e-01
5.36183e-03,2.28812e-01
5.40148e-03,2.17297e-01
5.44143e-03,2.06112e-01
5.48168e-03,1.95248e-01
5.52222e-03,1.84696e-01
5.56307e-03,1.74446e-01
5.60421e-03,1.64490e-01
5.64566e-03,1.54821e-01
5.68742e-03,1.45428e-01
5.72948e-03,1.36305e-01
5.77186e-03,1.27444e-01
5.81455e-03,1.18837e-01
5.85755e-03,1.10477e-01
5.90087e-03,1.02356e-01
5.94452e-03,9.44693e-02
5.98848e-03,8.68083e-02
6.03278e-03,7.93672e-02
6.07739e-03,7.21396e-02
6.12234e-03,6.51195e-02
6.16763e-03,5.83007e-02
6.21324e-03,5.16776e-02
6.25920e-03,4.52446e-02
6.30549e-03,3.89962e-02
6.35213e-03,3.29271e-02
6.39911e-03,2.70321e-02
6.44643e-03,2.13063e-02
6.49411e-03,1.57449e-02
6.54214e-03,1.03430e-02
6.59053e-03,5.09623e-03
6.63928e-03,0.00000e+00
