m1=4463.226, m2=77.908, gsp=2.243, rhosp=18.274
fGW[Hz],dPh[rad]
3.04785e-03,1.67403e+02
3.13779e-03,1.57148e+02
3.23038e-03,1.47520e+02
3.32570e-03,1.38482e+02
3.42383e-03,1.29997e+02
3.52486e-03,1.22031e+02
3.62887e-03,1.14553e+02
3.73595e-03,1.07533e+02
3.84618e-03,1.00943e+02
3.95968e-03,9.47564e+01
4.07652e-03,8.89485e+01
4.19680e-03,8.34962e+01
4.32064e-03,7.83778e+01
4.44813e-03,7.35728e+01
4.57939e-03,6.90620e+01
4.71451e-03,6.48274e+01
4.85363e-03,6.08522e+01
4.99685e-03,5.71204e+01
5.14429e-03,5.36171e+01
5.29608e-03,5.03284e+01
5.45236e-03,4.72411e+01
5.61324e-03,4.43430e+01
5.77888e-03,4.16223e+01
5.94940e-03,3.90683e+01
6.12495e-03,3.66707e+01
6.30568e-03,3.44200e+01
6.49175e-03,3.23072e+01
6.68330e-03,3.03238e+01
6.88051e-03,2.84619e+01
7.08354e-03,2.67141e+01
7.29256e-03,2.50734e+01
7.50774e-03,2.35332e+01
7.72928e-03,2.20875e+01
7.95735e-03,2.07303e+01
8.19215e-03,1.94563e+01
8.43388e-03,1.82604e+01
8.68274e-03,1.71378e+01
8.93895e-03,1.60840e+01
9.20271e-03,1.50948e+01
9.47426e-03,1.41662e+01
9.75383e-03,1.32946e+01
1.00416e-02,1.24765e+01
1.03379e-02,1.17085e+01
1.06430e-02,1.09876e+01
1.09570e-02,1.03109e+01
1.12804e-02,9.67575e+00
1.16132e-02,9.07956e+00
1.19559e-02,8.51995e+00
1.23087e-02,7.99467e+00
1.26719e-02,7.50163e+00
1.30458e-02,7.03886e+00
1.34307e-02,6.60449e+00
1.38270e-02,6.19679e+00
1.42350e-02,5.81412e+00
1.46551e-02,5.45496e+00
1.50875e-02,5.11785e+00
1.55327e-02,4.80146e+00
1.59910e-02,4.50450e+00
1.64629e-02,4.22579e+00
1.69487e-02,3.96422e+00
1.74488e-02,3.71872e+00
1.79637e-02,3.48832e+00
1.84937e-02,3.27209e+00
1.90394e-02,3.06916e+00
1.96012e-02,2.87871e+00
2.01796e-02,2.69999e+00
2.07751e-02,2.53226e+00
2.13881e-02,2.37487e+00
2.20192e-02,2.22716e+00
2.26689e-02,2.08856e+00
2.33378e-02,1.95850e+00
2.40265e-02,1.83645e+00
2.47354e-02,1.72193e+00
2.54653e-02,1.61448e+00
2.62167e-02,1.51365e+00
2.69903e-02,1.41905e+00
2.77868e-02,1.33029e+00
2.86067e-02,1.24701e+00
2.94508e-02,1.16888e+00
3.03198e-02,1.09557e+00
3.12145e-02,1.02680e+00
3.21355e-02,9.62289e-01
3.30838e-02,9.01769e-01
3.40600e-02,8.44996e-01
3.50650e-02,7.91742e-01
3.60997e-02,7.41789e-01
3.71649e-02,6.94935e-01
3.82616e-02,6.50989e-01
3.93906e-02,6.09772e-01
4.05529e-02,5.71116e-01
4.17495e-02,5.34864e-01
4.29814e-02,5.00868e-01
4.42497e-02,4.68989e-01
4.55554e-02,4.39096e-01
4.68996e-02,4.11068e-01
4.82835e-02,3.84788e-01
4.97082e-02,3.60151e-01
5.11750e-02,3.37053e-01
5.26851e-02,3.15400e-01
5.42397e-02,2.95104e-01
5.58401e-02,2.76080e-01
5.74878e-02,2.58250e-01
5.91842e-02,2.41539e-01
6.09305e-02,2.25880e-01
6.27285e-02,2.11206e-01
6.45794e-02,1.97458e-01
6.64850e-02,1.84576e-01
6.84468e-02,1.72509e-01
7.04665e-02,1.61205e-01
7.25458e-02,1.50617e-01
7.46864e-02,1.40701e-01
7.68902e-02,1.31415e-01
7.91591e-02,1.22720e-01
8.14949e-02,1.14579e-01
8.38996e-02,1.06958e-01
8.63753e-02,9.98239e-02
8.89240e-02,9.31469e-02
9.15479e-02,8.68983e-02
9.42493e-02,8.10516e-02
9.70303e-02,7.55815e-02
9.98934e-02,7.04645e-02
1.02841e-01,6.56785e-02
1.05876e-01,6.12028e-02
1.09000e-01,5.70179e-02
1.12216e-01,5.31055e-02
1.15527e-01,4.94486e-02
1.18936e-01,4.60311e-02
1.22446e-01,4.28378e-02
1.26059e-01,3.98546e-02
1.29778e-01,3.70682e-02
1.33608e-01,3.44662e-02
1.37550e-01,3.20369e-02
1.41609e-01,2.97693e-02
1.45788e-01,2.76531e-02
1.50090e-01,2.56786e-02
1.54518e-01,2.38369e-02
1.59078e-01,2.21194e-02
1.63772e-01,2.05182e-02
1.68604e-01,1.90258e-02
1.73579e-01,1.76351e-02
1.78701e-01,1.63396e-02
1.83974e-01,1.51332e-02
1.89403e-01,1.40100e-02
1.94992e-01,1.29647e-02
2.00745e-01,1.19921e-02
2.06669e-01,1.10875e-02
2.12767e-01,1.02464e-02
2.19045e-01,9.46466e-03
2.25509e-01,8.73833e-03
2.32163e-01,8.06374e-03
2.39014e-01,7.43743e-03
2.46066e-01,6.85619e-03
2.53327e-01,6.31697e-03
2.60802e-01,5.81696e-03
2.68498e-01,5.35348e-03
2.76421e-01,4.92406e-03
2.84577e-01,4.52637e-03
2.92974e-01,4.15823e-03
3.01619e-01,3.81760e-03
3.10519e-01,3.50258e-03
3.19682e-01,3.21137e-03
3.29115e-01,2.94230e-03
3.38826e-01,2.69383e-03
3.48824e-01,2.46447e-03
3.59117e-01,2.25288e-03
3.69714e-01,2.05778e-03
3.80623e-01,1.87797e-03
3.91854e-01,1.71235e-03
4.03417e-01,1.55987e-03
4.15321e-01,1.41958e-03
4.27576e-01,1.29056e-03
4.40193e-01,1.17198e-03
4.53182e-01,1.06306e-03
4.66554e-01,9.63055e-04
4.80321e-01,8.71297e-04
4.94494e-01,7.87150e-04
5.09085e-01,7.10028e-04
5.24107e-01,6.39384e-04
5.39572e-01,5.74711e-04
5.55493e-01,5.15537e-04
5.71885e-01,4.61425e-04
5.88760e-01,4.11971e-04
6.06132e-01,3.66799e-04
6.24018e-01,3.25561e-04
6.42431e-01,2.87936e-04
6.61388e-01,2.53625e-04
6.80904e-01,2.22355e-04
7.00995e-01,1.93871e-04
7.21680e-01,1.67939e-04
7.42975e-01,1.44342e-04
7.64898e-01,1.22882e-04
7.87469e-01,1.03375e-04
8.10705e-01,8.56530e-05
8.34627e-01,6.95599e-05
8.59255e-01,5.49535e-05
8.84609e-01,4.17028e-05
9.10712e-01,2.96878e-05
9.37585e-01,1.87981e-05
9.65250e-01,8.93301e-06
9.93732e-01,0.00000e+00
