m1=12812.247, m2=20.834, gsp=2.202, rhosp=135.695
fGW[Hz],dPh[rad]
3.83224e-03,1.30258e+03
3.91980e-03,1.23778e+03
4.00936e-03,1.17616e+03
4.10096e-03,1.11756e+03
4.19466e-03,1.06184e+03
4.29050e-03,1.00885e+03
4.38854e-03,9.58459e+02
4.48881e-03,9.10546e+02
4.59137e-03,8.64989e+02
4.69627e-03,8.21671e+02
4.80358e-03,7.80483e+02
4.91333e-03,7.41323e+02
5.02559e-03,7.04091e+02
5.14042e-03,6.68694e+02
5.25787e-03,6.35041e+02
5.37800e-03,6.03048e+02
5.50088e-03,5.72634e+02
5.62656e-03,5.43721e+02
5.75512e-03,5.16237e+02
5.88662e-03,4.90111e+02
6.02112e-03,4.65278e+02
6.15869e-03,4.41674e+02
6.29940e-03,4.19240e+02
6.44333e-03,3.97917e+02
6.59055e-03,3.77652e+02
6.74114e-03,3.58393e+02
6.89516e-03,3.40091e+02
7.05270e-03,3.22699e+02
7.21385e-03,3.06173e+02
7.37867e-03,2.90469e+02
7.54726e-03,2.75548e+02
7.71970e-03,2.61372e+02
7.89608e-03,2.47903e+02
8.07650e-03,2.35108e+02
8.26103e-03,2.22953e+02
8.44978e-03,2.11407e+02
8.64284e-03,2.00439e+02
8.84032e-03,1.90022e+02
9.04231e-03,1.80129e+02
9.24891e-03,1.70733e+02
9.46023e-03,1.61810e+02
9.67638e-03,1.53337e+02
9.89747e-03,1.45292e+02
1.01236e-02,1.37653e+02
1.03549e-02,1.30401e+02
1.05915e-02,1.23517e+02
1.08335e-02,1.16982e+02
1.10810e-02,1.10779e+02
1.13342e-02,1.04892e+02
1.15932e-02,9.93051e+01
1.18581e-02,9.40032e+01
1.21290e-02,8.89725e+01
1.24061e-02,8.41995e+01
1.26896e-02,7.96713e+01
1.29795e-02,7.53758e+01
1.32761e-02,7.13015e+01
1.35794e-02,6.74373e+01
1.38897e-02,6.37728e+01
1.42070e-02,6.02980e+01
1.45317e-02,5.70034e+01
1.48637e-02,5.38801e+01
1.52033e-02,5.09195e+01
1.55507e-02,4.81135e+01
1.59060e-02,4.54542e+01
1.62694e-02,4.29343e+01
1.66411e-02,4.05469e+01
1.70213e-02,3.82852e+01
1.74103e-02,3.61429e+01
1.78080e-02,3.41140e+01
1.82149e-02,3.21928e+01
1.86311e-02,3.03738e+01
1.90568e-02,2.86518e+01
1.94922e-02,2.70220e+01
1.99376e-02,2.54795e+01
2.03931e-02,2.40200e+01
2.08591e-02,2.26393e+01
2.13357e-02,2.13333e+01
2.18231e-02,2.00981e+01
2.23218e-02,1.89302e+01
2.28318e-02,1.78260e+01
2.33535e-02,1.67823e+01
2.38870e-02,1.57960e+01
2.44328e-02,1.48641e+01
2.49911e-02,1.39838e+01
2.55621e-02,1.31524e+01
2.61461e-02,1.23673e+01
2.67435e-02,1.16261e+01
2.73546e-02,1.09265e+01
2.79796e-02,1.02663e+01
2.86189e-02,9.64347e+00
2.92727e-02,9.05601e+00
2.99416e-02,8.50203e+00
3.06257e-02,7.97976e+00
3.13254e-02,7.48750e+00
3.20412e-02,7.02364e+00
3.27733e-02,6.58666e+00
3.35221e-02,6.17511e+00
3.42880e-02,5.78760e+00
3.50714e-02,5.42284e+00
3.58727e-02,5.07958e+00
3.66924e-02,4.75664e+00
3.75307e-02,4.45291e+00
3.83882e-02,4.16732e+00
3.92654e-02,3.89887e+00
4.01625e-02,3.64661e+00
4.10801e-02,3.40963e+00
4.20188e-02,3.18707e+00
4.29788e-02,2.97812e+00
4.39608e-02,2.78201e+00
4.49652e-02,2.59800e+00
4.59926e-02,2.42540e+00
4.70435e-02,2.26356e+00
4.81183e-02,2.11186e+00
4.92178e-02,1.96970e+00
5.03423e-02,1.83654e+00
5.14925e-02,1.71183e+00
5.26691e-02,1.59509e+00
5.38725e-02,1.48584e+00
5.51034e-02,1.38363e+00
5.63624e-02,1.28805e+00
5.76502e-02,1.19869e+00
5.89674e-02,1.11518e+00
6.03147e-02,1.03716e+00
6.16928e-02,9.64297e-01
6.31023e-02,8.96270e-01
6.45441e-02,8.32780e-01
6.60188e-02,7.73547e-01
6.75273e-02,7.18302e-01
6.90701e-02,6.66796e-01
7.06483e-02,6.18792e-01
7.22625e-02,5.74066e-01
7.39136e-02,5.32409e-01
7.56024e-02,4.93624e-01
7.73297e-02,4.57524e-01
7.90966e-02,4.23935e-01
8.09038e-02,3.92692e-01
8.27523e-02,3.63642e-01
8.46431e-02,3.36639e-01
8.65770e-02,3.11547e-01
8.85552e-02,2.88239e-01
9.05785e-02,2.66593e-01
9.26481e-02,2.46499e-01
9.47649e-02,2.27851e-01
9.69302e-02,2.10550e-01
9.91448e-02,1.94503e-01
1.01410e-01,1.79625e-01
1.03727e-01,1.65833e-01
1.06097e-01,1.53054e-01
1.08521e-01,1.41214e-01
1.11001e-01,1.30250e-01
1.13537e-01,1.20098e-01
1.16131e-01,1.10702e-01
1.18785e-01,1.02006e-01
1.21499e-01,9.39623e-02
1.24275e-01,8.65225e-02
1.27114e-01,7.96434e-02
1.30018e-01,7.32842e-02
1.32989e-01,6.74073e-02
1.36028e-01,6.19772e-02
1.39136e-01,5.69613e-02
1.42315e-01,5.23290e-02
1.45566e-01,4.80519e-02
1.48892e-01,4.41037e-02
1.52294e-01,4.04598e-02
1.55774e-01,3.70976e-02
1.59333e-01,3.39959e-02
1.62974e-01,3.11351e-02
1.66697e-01,2.84970e-02
1.70506e-01,2.60648e-02
1.74402e-01,2.38227e-02
1.78387e-01,2.17564e-02
1.82462e-01,1.98524e-02
1.86631e-01,1.80981e-02
1.90896e-01,1.64822e-02
1.95257e-01,1.49940e-02
1.99719e-01,1.36236e-02
2.04282e-01,1.23618e-02
2.08949e-01,1.12003e-02
2.13723e-01,1.01311e-02
2.18607e-01,9.14725e-03
2.23601e-01,8.24189e-03
2.28710e-01,7.40892e-03
2.33936e-01,6.64266e-03
2.39281e-01,5.93784e-03
2.44748e-01,5.28963e-03
2.50340e-01,4.69355e-03
2.56060e-01,4.14547e-03
2.61911e-01,3.64158e-03
2.67895e-01,3.17837e-03
2.74016e-01,2.75261e-03
2.80277e-01,2.36130e-03
2.86681e-01,2.00169e-03
2.93231e-01,1.67125e-03
2.99931e-01,1.36763e-03
3.06783e-01,1.08870e-03
3.13793e-01,8.32456e-04
3.20963e-01,5.97081e-04
3.28296e-01,3.80891e-04
3.35797e-01,1.82339e-04
3.43469e-01,0.00000e+00
