m1=36564.056, m2=16.041, gsp=2.048, rhosp=30.837
fGW[Hz],dPh[rad]
3.25172e-03,1.15733e+02
3.31126e-03,1.10349e+02
3.37189e-03,1.05204e+02
3.43362e-03,1.00286e+02
3.49649e-03,9.55875e+01
3.56051e-03,9.10978e+01
3.62570e-03,8.68085e+01
3.69209e-03,8.27108e+01
3.75969e-03,7.87967e+01
3.82853e-03,7.50582e+01
3.89863e-03,7.14878e+01
3.97001e-03,6.80783e+01
4.04270e-03,6.48228e+01
4.11672e-03,6.17147e+01
4.19209e-03,5.87475e+01
4.26885e-03,5.59152e+01
4.34701e-03,5.32120e+01
4.42660e-03,5.06322e+01
4.50765e-03,4.81706e+01
4.59019e-03,4.58219e+01
4.67423e-03,4.35814e+01
4.75981e-03,4.14441e+01
4.84696e-03,3.94057e+01
4.93571e-03,3.74618e+01
5.02608e-03,3.56082e+01
5.11811e-03,3.38411e+01
5.21182e-03,3.21565e+01
5.30724e-03,3.05509e+01
5.40442e-03,2.90207e+01
5.50337e-03,2.75626e+01
5.60413e-03,2.61735e+01
5.70674e-03,2.48502e+01
5.81123e-03,2.35898e+01
5.91763e-03,2.23895e+01
6.02598e-03,2.12466e+01
6.13632e-03,2.01585e+01
6.24867e-03,1.91228e+01
6.36308e-03,1.81371e+01
6.47959e-03,1.71991e+01
6.59822e-03,1.63067e+01
6.71903e-03,1.54578e+01
6.84206e-03,1.46504e+01
6.96733e-03,1.38826e+01
7.09490e-03,1.31526e+01
7.22481e-03,1.24587e+01
7.35709e-03,1.17991e+01
7.49180e-03,1.11724e+01
7.62897e-03,1.05769e+01
7.76865e-03,1.00112e+01
7.91089e-03,9.47402e+00
8.05574e-03,8.96389e+00
8.20323e-03,8.47958e+00
8.35343e-03,8.01986e+00
8.50638e-03,7.58359e+00
8.66213e-03,7.16963e+00
8.82073e-03,6.77693e+00
8.98223e-03,6.40448e+00
9.14669e-03,6.05129e+00
9.31417e-03,5.71644e+00
9.48471e-03,5.39904e+00
9.65837e-03,5.09825e+00
9.83521e-03,4.81326e+00
1.00153e-02,4.54328e+00
1.01987e-02,4.28759e+00
1.03854e-02,4.04548e+00
1.05755e-02,3.81627e+00
1.07692e-02,3.59933e+00
1.09664e-02,3.39404e+00
1.11672e-02,3.19982e+00
1.13716e-02,3.01611e+00
1.15798e-02,2.84239e+00
1.17918e-02,2.67813e+00
1.20078e-02,2.52287e+00
1.22276e-02,2.37614e+00
1.24515e-02,2.23751e+00
1.26795e-02,2.10654e+00
1.29116e-02,1.98286e+00
1.31480e-02,1.86607e+00
1.33888e-02,1.75582e+00
1.36339e-02,1.65177e+00
1.38835e-02,1.55358e+00
1.41378e-02,1.46096e+00
1.43966e-02,1.37359e+00
1.46602e-02,1.29121e+00
1.49286e-02,1.21354e+00
1.52020e-02,1.14032e+00
1.54803e-02,1.07133e+00
1.57637e-02,1.00633e+00
1.60524e-02,9.45103e-01
1.63463e-02,8.87439e-01
1.66456e-02,8.33145e-01
1.69504e-02,7.82034e-01
1.72607e-02,7.33930e-01
1.75767e-02,6.88665e-01
1.78986e-02,6.46081e-01
1.82263e-02,6.06026e-01
1.85600e-02,5.68359e-01
1.88998e-02,5.32944e-01
1.92459e-02,4.99654e-01
1.95983e-02,4.68366e-01
1.99571e-02,4.38967e-01
2.03225e-02,4.11347e-01
2.06946e-02,3.85404e-01
2.10735e-02,3.61041e-01
2.14594e-02,3.38166e-01
2.18523e-02,3.16691e-01
2.22524e-02,2.96536e-01
2.26598e-02,2.77622e-01
2.30747e-02,2.59876e-01
2.34972e-02,2.43229e-01
2.39274e-02,2.27615e-01
2.43655e-02,2.12974e-01
2.48116e-02,1.99246e-01
2.52659e-02,1.86377e-01
2.57285e-02,1.74315e-01
2.61996e-02,1.63011e-01
2.66793e-02,1.52420e-01
2.71678e-02,1.42498e-01
2.76652e-02,1.33204e-01
2.81718e-02,1.24500e-01
2.86876e-02,1.16349e-01
2.92129e-02,1.08718e-01
2.97477e-02,1.01574e-01
3.02924e-02,9.48878e-02
3.08470e-02,8.86301e-02
3.14118e-02,8.27746e-02
3.19870e-02,7.72961e-02
3.25726e-02,7.21711e-02
3.31690e-02,6.73773e-02
3.37763e-02,6.28939e-02
3.43948e-02,5.87014e-02
3.50245e-02,5.47813e-02
3.56658e-02,5.11164e-02
3.63188e-02,4.76905e-02
3.69838e-02,4.44883e-02
3.76610e-02,4.14956e-02
3.83505e-02,3.86990e-02
3.90527e-02,3.60860e-02
3.97678e-02,3.36447e-02
4.04959e-02,3.13640e-02
4.12374e-02,2.92337e-02
4.19924e-02,2.72440e-02
4.27613e-02,2.53858e-02
4.35442e-02,2.36506e-02
4.43415e-02,2.20304e-02
4.51534e-02,2.05177e-02
4.59801e-02,1.91055e-02
4.68220e-02,1.77873e-02
4.76793e-02,1.65568e-02
4.85523e-02,1.54084e-02
4.94412e-02,1.43366e-02
5.03465e-02,1.33364e-02
5.12683e-02,1.24032e-02
5.22070e-02,1.15324e-02
5.31629e-02,1.07200e-02
5.41363e-02,9.96217e-03
5.51275e-02,9.25519e-03
5.61369e-02,8.59574e-03
5.71647e-02,7.98066e-03
5.82114e-02,7.40700e-03
5.92772e-02,6.87201e-03
6.03625e-02,6.37311e-03
6.14678e-02,5.90790e-03
6.25932e-02,5.47412e-03
6.37393e-02,5.06968e-03
6.49063e-02,4.69260e-03
6.60947e-02,4.34107e-03
6.73049e-02,4.01335e-03
6.85372e-02,3.70787e-03
6.97921e-02,3.42312e-03
7.10700e-02,3.15770e-03
7.23712e-02,2.91032e-03
7.36963e-02,2.67977e-03
7.50457e-02,2.46490e-03
7.64197e-02,2.26466e-03
7.78189e-02,2.07806e-03
7.92438e-02,1.90418e-03
8.06947e-02,1.74216e-03
8.21722e-02,1.59119e-03
8.36767e-02,1.45052e-03
8.52088e-02,1.31947e-03
8.67690e-02,1.19737e-03
8.83577e-02,1.08362e-03
8.99755e-02,9.77649e-04
9.16229e-02,8.78930e-04
9.33004e-02,7.86969e-04
9.50087e-02,7.01306e-04
9.67483e-02,6.21513e-04
9.85197e-02,5.47189e-04
1.00324e-01,4.77961e-04
1.02160e-01,4.13483e-04
1.04031e-01,3.53429e-04
1.05936e-01,2.97497e-04
1.07875e-01,2.45406e-04
1.09851e-01,1.96894e-04
1.11862e-01,1.51715e-04
1.13910e-01,1.09642e-04
1.15996e-01,7.04611e-05
1.18120e-01,3.39754e-05
1.20282e-01,0.00000e+00
