m1=1007.243, m2=21.718, gsp=2.377, rhosp=4407.713
fGW[Hz],dPh[rad]
7.14289e-03,8.57995e+03
7.37731e-03,8.02184e+03
7.61943e-03,7.50002e+03
7.86948e-03,7.01214e+03
8.12775e-03,6.55598e+03
8.39449e-03,6.12949e+03
8.66999e-03,5.73073e+03
8.95452e-03,5.35790e+03
9.24840e-03,5.00932e+03
9.55192e-03,4.68341e+03
9.86540e-03,4.37869e+03
1.01892e-02,4.09379e+03
1.05236e-02,3.82742e+03
1.08689e-02,3.57837e+03
1.12256e-02,3.34552e+03
1.15940e-02,3.12782e+03
1.19745e-02,2.92427e+03
1.23675e-02,2.73396e+03
1.27734e-02,2.55603e+03
1.31926e-02,2.38967e+03
1.36256e-02,2.23413e+03
1.40728e-02,2.08871e+03
1.45346e-02,1.95275e+03
1.50116e-02,1.82563e+03
1.55043e-02,1.70677e+03
1.60131e-02,1.59565e+03
1.65386e-02,1.49176e+03
1.70814e-02,1.39463e+03
1.76420e-02,1.30381e+03
1.82210e-02,1.21890e+03
1.88190e-02,1.13952e+03
1.94366e-02,1.06530e+03
2.00744e-02,9.95909e+02
2.07333e-02,9.31032e+02
2.14137e-02,8.70376e+02
2.21165e-02,8.13667e+02
2.28423e-02,7.60647e+02
2.35919e-02,7.11077e+02
2.43662e-02,6.64733e+02
2.51659e-02,6.21404e+02
2.59918e-02,5.80895e+02
2.68448e-02,5.43022e+02
2.77258e-02,5.07614e+02
2.86357e-02,4.74510e+02
2.95755e-02,4.43561e+02
3.05461e-02,4.14626e+02
3.15486e-02,3.87574e+02
3.25840e-02,3.62284e+02
3.36533e-02,3.38640e+02
3.47578e-02,3.16535e+02
3.58985e-02,2.95870e+02
3.70766e-02,2.76550e+02
3.82934e-02,2.58488e+02
3.95502e-02,2.41602e+02
4.08482e-02,2.25816e+02
4.21887e-02,2.11058e+02
4.35733e-02,1.97261e+02
4.50033e-02,1.84363e+02
4.64803e-02,1.72305e+02
4.80057e-02,1.61033e+02
4.95812e-02,1.50496e+02
5.12083e-02,1.40645e+02
5.28889e-02,1.31436e+02
5.46247e-02,1.22827e+02
5.64174e-02,1.14780e+02
5.82689e-02,1.07257e+02
6.01812e-02,1.00225e+02
6.21563e-02,9.36511e+01
6.41962e-02,8.75062e+01
6.63030e-02,8.17622e+01
6.84790e-02,7.63930e+01
7.07263e-02,7.13741e+01
7.30475e-02,6.66829e+01
7.54448e-02,6.22978e+01
7.79208e-02,5.81991e+01
8.04780e-02,5.43681e+01
8.31192e-02,5.07873e+01
8.58471e-02,4.74404e+01
8.86644e-02,4.43123e+01
9.15743e-02,4.13886e+01
9.45796e-02,3.86561e+01
9.76836e-02,3.61024e+01
1.00889e-01,3.37156e+01
1.04200e-01,3.14851e+01
1.07620e-01,2.94006e+01
1.11152e-01,2.74525e+01
1.14800e-01,2.56321e+01
1.18568e-01,2.39310e+01
1.22459e-01,2.23413e+01
1.26478e-01,2.08559e+01
1.30629e-01,1.94680e+01
1.34916e-01,1.81711e+01
1.39343e-01,1.69594e+01
1.43916e-01,1.58273e+01
1.48639e-01,1.47697e+01
1.53518e-01,1.37815e+01
1.58556e-01,1.28584e+01
1.63759e-01,1.19960e+01
1.69134e-01,1.11905e+01
1.74685e-01,1.04380e+01
1.80417e-01,9.73518e+00
1.86338e-01,9.07873e+00
1.92454e-01,8.46564e+00
1.98770e-01,7.89307e+00
2.05293e-01,7.35838e+00
2.12031e-01,6.85908e+00
2.18989e-01,6.39286e+00
2.26176e-01,5.95756e+00
2.33599e-01,5.55115e+00
2.41265e-01,5.17174e+00
2.49183e-01,4.81757e+00
2.57361e-01,4.48698e+00
2.65807e-01,4.17842e+00
2.74531e-01,3.89046e+00
2.83540e-01,3.62173e+00
2.92846e-01,3.37098e+00
3.02457e-01,3.13702e+00
3.12383e-01,2.91876e+00
3.22635e-01,2.71516e+00
3.33223e-01,2.52526e+00
3.44159e-01,2.34815e+00
3.55454e-01,2.18299e+00
3.67119e-01,2.02901e+00
3.79168e-01,1.88545e+00
3.91612e-01,1.75163e+00
4.04464e-01,1.62690e+00
4.17738e-01,1.51068e+00
4.31447e-01,1.40239e+00
4.45607e-01,1.30150e+00
4.60231e-01,1.20754e+00
4.75335e-01,1.12003e+00
4.90935e-01,1.03855e+00
5.07047e-01,9.62705e-01
5.23687e-01,8.92110e-01
5.40874e-01,8.26418e-01
5.58624e-01,7.65302e-01
5.76958e-01,7.08456e-01
5.95893e-01,6.55594e-01
6.15449e-01,6.06448e-01
6.35647e-01,5.60770e-01
6.56508e-01,5.18326e-01
6.78054e-01,4.78897e-01
7.00307e-01,4.42279e-01
7.23290e-01,4.08284e-01
7.47027e-01,3.76731e-01
7.71543e-01,3.47456e-01
7.96864e-01,3.20302e-01
8.23016e-01,2.95125e-01
8.50027e-01,2.71789e-01
8.77923e-01,2.50167e-01
9.06735e-01,2.30142e-01
9.36493e-01,2.11602e-01
9.67228e-01,1.94445e-01
9.98971e-01,1.78574e-01
1.03176e+00,1.63899e-01
1.06562e+00,1.50335e-01
1.10059e+00,1.37806e-01
1.13671e+00,1.26237e-01
1.17401e+00,1.15559e-01
1.21254e+00,1.05710e-01
1.25234e+00,9.66298e-02
1.29344e+00,8.82625e-02
1.33589e+00,8.05565e-02
1.37973e+00,7.34635e-02
1.42501e+00,6.69385e-02
1.47177e+00,6.09396e-02
1.52008e+00,5.54276e-02
1.56996e+00,5.03660e-02
1.62149e+00,4.57210e-02
1.67470e+00,4.14610e-02
1.72966e+00,3.75565e-02
1.78643e+00,3.39802e-02
1.84506e+00,3.07067e-02
1.90561e+00,2.77123e-02
1.96815e+00,2.49752e-02
2.03274e+00,2.24748e-02
2.09945e+00,2.01924e-02
2.16835e+00,1.81103e-02
2.23951e+00,1.62123e-02
2.31301e+00,1.44833e-02
2.38892e+00,1.29094e-02
2.46732e+00,1.14777e-02
2.54830e+00,1.01762e-02
2.63193e+00,8.99394e-03
2.71830e+00,7.92074e-03
2.80752e+00,6.94723e-03
2.89965e+00,6.06474e-03
2.99482e+00,5.26533e-03
3.09310e+00,4.54166e-03
3.19461e+00,3.88700e-03
3.29946e+00,3.29518e-03
3.40774e+00,2.76050e-03
3.51958e+00,2.27777e-03
3.63508e+00,1.84222e-03
3.75438e+00,1.44949e-03
3.87760e+00,1.09559e-03
4.00485e+00,7.76875e-04
4.13629e+00,4.90014e-04
4.27203e+00,2.31977e-04
4.41224e+00,0.00000e+00
