m1=4286.285, m2=30.569, gsp=2.068, rhosp=7614.347
fGW[Hz],dPh[rad]
4.36711e-03,1.11962e+02
4.48865e-03,1.05128e+02
4.61357e-03,9.87099e+01
4.74197e-03,9.26833e+01
4.87395e-03,8.70240e+01
5.00959e-03,8.17096e+01
5.14902e-03,7.67192e+01
5.29232e-03,7.20329e+01
5.43961e-03,6.76323e+01
5.59100e-03,6.35000e+01
5.74661e-03,5.96196e+01
5.90654e-03,5.59758e+01
6.07093e-03,5.25542e+01
6.23989e-03,4.93412e+01
6.41355e-03,4.63242e+01
6.59204e-03,4.34911e+01
6.77551e-03,4.08308e+01
6.96408e-03,3.83328e+01
7.15790e-03,3.59872e+01
7.35711e-03,3.37847e+01
7.56186e-03,3.17165e+01
7.77232e-03,2.97745e+01
7.98863e-03,2.79511e+01
8.21096e-03,2.62389e+01
8.43948e-03,2.46312e+01
8.67436e-03,2.31216e+01
8.91578e-03,2.17042e+01
9.16392e-03,2.03734e+01
9.41896e-03,1.91237e+01
9.68110e-03,1.79505e+01
9.95053e-03,1.68488e+01
1.02275e-02,1.58145e+01
1.05121e-02,1.48433e+01
1.08047e-02,1.39315e+01
1.11054e-02,1.30754e+01
1.14145e-02,1.22716e+01
1.17321e-02,1.15170e+01
1.20587e-02,1.08085e+01
1.23943e-02,1.01433e+01
1.27392e-02,9.51885e+00
1.30937e-02,8.93256e+00
1.34582e-02,8.38215e+00
1.38327e-02,7.86541e+00
1.42177e-02,7.38031e+00
1.46134e-02,6.92491e+00
1.50201e-02,6.49739e+00
1.54381e-02,6.09606e+00
1.58678e-02,5.71932e+00
1.63094e-02,5.36567e+00
1.67633e-02,5.03369e+00
1.72298e-02,4.72207e+00
1.77094e-02,4.42957e+00
1.82022e-02,4.15501e+00
1.87088e-02,3.89730e+00
1.92295e-02,3.65541e+00
1.97647e-02,3.42837e+00
2.03148e-02,3.21529e+00
2.08802e-02,3.01529e+00
2.14613e-02,2.82760e+00
2.20586e-02,2.65145e+00
2.26725e-02,2.48613e+00
2.33035e-02,2.33099e+00
2.39520e-02,2.18541e+00
2.46187e-02,2.04879e+00
2.53038e-02,1.92060e+00
2.60080e-02,1.80031e+00
2.67319e-02,1.68744e+00
2.74759e-02,1.58154e+00
2.82405e-02,1.48218e+00
2.90265e-02,1.38896e+00
2.98343e-02,1.30151e+00
3.06647e-02,1.21946e+00
3.15181e-02,1.14250e+00
3.23953e-02,1.07030e+00
3.32969e-02,1.00259e+00
3.42236e-02,9.39068e-01
3.51761e-02,8.79493e-01
3.61550e-02,8.23620e-01
3.71613e-02,7.71222e-01
3.81955e-02,7.22085e-01
3.92585e-02,6.76008e-01
4.03511e-02,6.32804e-01
4.14742e-02,5.92296e-01
4.26284e-02,5.54318e-01
4.38148e-02,5.18714e-01
4.50342e-02,4.85339e-01
4.62876e-02,4.54054e-01
4.75758e-02,4.24732e-01
4.88999e-02,3.97251e-01
5.02609e-02,3.71497e-01
5.16597e-02,3.47365e-01
5.30974e-02,3.24753e-01
5.45752e-02,3.03568e-01
5.60941e-02,2.83722e-01
5.76552e-02,2.65132e-01
5.92598e-02,2.47719e-01
6.09091e-02,2.31412e-01
6.26043e-02,2.16141e-01
6.43466e-02,2.01843e-01
6.61374e-02,1.88456e-01
6.79781e-02,1.75924e-01
6.98700e-02,1.64195e-01
7.18146e-02,1.53217e-01
7.38133e-02,1.42944e-01
7.58676e-02,1.33333e-01
7.79790e-02,1.24341e-01
8.01493e-02,1.15930e-01
8.23799e-02,1.08065e-01
8.46727e-02,1.00709e-01
8.70292e-02,9.38323e-02
8.94513e-02,8.74039e-02
9.19408e-02,8.13957e-02
9.44996e-02,7.57813e-02
9.71297e-02,7.05357e-02
9.98329e-02,6.56358e-02
1.02611e-01,6.10595e-02
1.05467e-01,5.67864e-02
1.08402e-01,5.27972e-02
1.11419e-01,4.90739e-02
1.14520e-01,4.55995e-02
1.17708e-01,4.23581e-02
1.20983e-01,3.93348e-02
1.24351e-01,3.65156e-02
1.27811e-01,3.38873e-02
1.31368e-01,3.14377e-02
1.35025e-01,2.91553e-02
1.38783e-01,2.70291e-02
1.42645e-01,2.50491e-02
1.46615e-01,2.32058e-02
1.50695e-01,2.14901e-02
1.54889e-01,1.98938e-02
1.59200e-01,1.84091e-02
1.63631e-01,1.70285e-02
1.68185e-01,1.57452e-02
1.72866e-01,1.45527e-02
1.77677e-01,1.34450e-02
1.82622e-01,1.24164e-02
1.87704e-01,1.14616e-02
1.92928e-01,1.05756e-02
1.98298e-01,9.75391e-03
2.03816e-01,8.99200e-03
2.09489e-01,8.28585e-03
2.15319e-01,7.63164e-03
2.21312e-01,7.02579e-03
2.27471e-01,6.46498e-03
2.33802e-01,5.94606e-03
2.40309e-01,5.46612e-03
2.46997e-01,5.02242e-03
2.53871e-01,4.61242e-03
2.60937e-01,4.23371e-03
2.68199e-01,3.88409e-03
2.75663e-01,3.56145e-03
2.83335e-01,3.26386e-03
2.91221e-01,2.98950e-03
2.99326e-01,2.73669e-03
3.07656e-01,2.50384e-03
3.16219e-01,2.28947e-03
3.25019e-01,2.09223e-03
3.34065e-01,1.91083e-03
3.43362e-01,1.74408e-03
3.52918e-01,1.59088e-03
3.62741e-01,1.45019e-03
3.72836e-01,1.32106e-03
3.83212e-01,1.20260e-03
3.93878e-01,1.09398e-03
4.04840e-01,9.94434e-04
4.16107e-01,9.03249e-04
4.27688e-01,8.19766e-04
4.39591e-01,7.43370e-04
4.51825e-01,6.73497e-04
4.64400e-01,6.09619e-04
4.77324e-01,5.51252e-04
4.90609e-01,4.97945e-04
5.04263e-01,4.49284e-04
5.18297e-01,4.04885e-04
5.32722e-01,3.64394e-04
5.47548e-01,3.27484e-04
5.62787e-01,2.93853e-04
5.78450e-01,2.63225e-04
5.94549e-01,2.35344e-04
6.11096e-01,2.09974e-04
6.28103e-01,1.86900e-04
6.45584e-01,1.65923e-04
6.63552e-01,1.46859e-04
6.82019e-01,1.29543e-04
7.01000e-01,1.13819e-04
7.20510e-01,9.95473e-05
7.40562e-01,8.65986e-05
7.61173e-01,7.48547e-05
7.82357e-01,6.42074e-05
8.04131e-01,5.45578e-05
8.26511e-01,4.58156e-05
8.49514e-01,3.78980e-05
8.73157e-01,3.07297e-05
8.97458e-01,2.42420e-05
9.22435e-01,1.83720e-05
9.48107e-01,1.30627e-05
9.74494e-01,8.26177e-06
1.00162e+00,3.92194e-06
1.02949e+00,0.00000e+00
