m1=9915.439, m2=7.519, gsp=2.019, rhosp=300.867
fGW[Hz],dPh[rad]
5.98720e-03,1.34583e+02
6.11815e-03,1.27690e+02
6.25195e-03,1.21142e+02
6.38869e-03,1.14922e+02
6.52841e-03,1.09014e+02
6.67119e-03,1.03403e+02
6.81710e-03,9.80735e+01
6.96619e-03,9.30122e+01
7.11855e-03,8.82055e+01
7.27423e-03,8.36410e+01
7.43333e-03,7.93065e+01
7.59590e-03,7.51907e+01
7.76203e-03,7.12827e+01
7.93179e-03,6.75722e+01
8.10526e-03,6.40494e+01
8.28253e-03,6.07050e+01
8.46367e-03,5.75301e+01
8.64878e-03,5.45163e+01
8.83793e-03,5.16556e+01
9.03122e-03,4.89403e+01
9.22874e-03,4.63633e+01
9.43058e-03,4.39176e+01
9.63683e-03,4.15966e+01
9.84760e-03,3.93942e+01
1.00630e-02,3.73045e+01
1.02831e-02,3.53218e+01
1.05080e-02,3.34407e+01
1.07378e-02,3.16562e+01
1.09726e-02,2.99635e+01
1.12126e-02,2.83579e+01
1.14578e-02,2.68351e+01
1.17084e-02,2.53910e+01
1.19645e-02,2.40215e+01
1.22261e-02,2.27230e+01
1.24935e-02,2.14918e+01
1.27668e-02,2.03246e+01
1.30460e-02,1.92182e+01
1.33313e-02,1.81695e+01
1.36229e-02,1.71755e+01
1.39208e-02,1.62336e+01
1.42253e-02,1.53410e+01
1.45364e-02,1.44953e+01
1.48543e-02,1.36942e+01
1.51792e-02,1.29353e+01
1.55112e-02,1.22165e+01
1.58504e-02,1.15357e+01
1.61971e-02,1.08911e+01
1.65513e-02,1.02807e+01
1.69133e-02,9.70294e+00
1.72832e-02,9.15600e+00
1.76612e-02,8.63835e+00
1.80475e-02,8.14849e+00
1.84422e-02,7.68499e+00
1.88455e-02,7.24649e+00
1.92577e-02,6.83171e+00
1.96789e-02,6.43942e+00
2.01092e-02,6.06846e+00
2.05490e-02,5.71772e+00
2.09985e-02,5.38616e+00
2.14577e-02,5.07278e+00
2.19270e-02,4.77663e+00
2.24066e-02,4.49680e+00
2.28966e-02,4.23246e+00
2.33974e-02,3.98278e+00
2.39091e-02,3.74700e+00
2.44320e-02,3.52439e+00
2.49664e-02,3.31424e+00
2.55124e-02,3.11590e+00
2.60704e-02,2.92874e+00
2.66405e-02,2.75218e+00
2.72232e-02,2.58563e+00
2.78186e-02,2.42858e+00
2.84270e-02,2.28050e+00
2.90487e-02,2.14093e+00
2.96840e-02,2.00939e+00
3.03332e-02,1.88545e+00
3.09966e-02,1.76870e+00
3.16745e-02,1.65876e+00
3.23673e-02,1.55524e+00
3.30752e-02,1.45780e+00
3.37985e-02,1.36610e+00
3.45377e-02,1.27983e+00
3.52931e-02,1.19868e+00
3.60650e-02,1.12238e+00
3.68538e-02,1.05064e+00
3.76598e-02,9.83218e-01
3.84834e-02,9.19869e-01
3.93251e-02,8.60362e-01
4.01851e-02,8.04480e-01
4.10640e-02,7.52017e-01
4.19621e-02,7.02777e-01
4.28798e-02,6.56575e-01
4.38177e-02,6.13237e-01
4.47760e-02,5.72597e-01
4.57553e-02,5.34498e-01
4.67560e-02,4.98792e-01
4.77785e-02,4.65338e-01
4.88235e-02,4.34003e-01
4.98913e-02,4.04663e-01
5.09824e-02,3.77199e-01
5.20975e-02,3.51498e-01
5.32369e-02,3.27456e-01
5.44012e-02,3.04970e-01
5.55910e-02,2.83948e-01
5.68068e-02,2.64301e-01
5.80492e-02,2.45943e-01
5.93188e-02,2.28796e-01
6.06161e-02,2.12785e-01
6.19418e-02,1.97839e-01
6.32965e-02,1.83892e-01
6.46809e-02,1.70881e-01
6.60955e-02,1.58747e-01
6.75410e-02,1.47434e-01
6.90182e-02,1.36891e-01
7.05277e-02,1.27067e-01
7.20702e-02,1.17917e-01
7.36464e-02,1.09396e-01
7.52571e-02,1.01465e-01
7.69030e-02,9.40842e-02
7.85849e-02,8.72177e-02
8.03036e-02,8.08316e-02
8.20599e-02,7.48941e-02
8.38546e-02,6.93753e-02
8.56886e-02,6.42471e-02
8.75626e-02,5.94834e-02
8.94777e-02,5.50594e-02
9.14346e-02,5.09520e-02
9.34343e-02,4.71398e-02
9.54778e-02,4.36024e-02
9.75660e-02,4.03210e-02
9.96998e-02,3.72778e-02
1.01880e-01,3.44564e-02
1.04109e-01,3.18411e-02
1.06385e-01,2.94177e-02
1.08712e-01,2.71726e-02
1.11090e-01,2.50931e-02
1.13519e-01,2.31676e-02
1.16002e-01,2.13851e-02
1.18539e-01,1.97354e-02
1.21132e-01,1.82089e-02
1.23781e-01,1.67968e-02
1.26488e-01,1.54907e-02
1.29254e-01,1.42830e-02
1.32081e-01,1.31665e-02
1.34970e-01,1.21346e-02
1.37922e-01,1.11810e-02
1.40938e-01,1.03000e-02
1.44021e-01,9.48626e-03
1.47171e-01,8.73471e-03
1.50389e-01,8.04077e-03
1.53678e-01,7.40014e-03
1.57039e-01,6.80884e-03
1.60474e-01,6.26317e-03
1.63984e-01,5.75969e-03
1.67570e-01,5.29522e-03
1.71235e-01,4.86682e-03
1.74980e-01,4.47173e-03
1.78807e-01,4.10744e-03
1.82718e-01,3.77159e-03
1.86714e-01,3.46201e-03
1.90797e-01,3.17669e-03
1.94970e-01,2.91376e-03
1.99234e-01,2.67150e-03
2.03592e-01,2.44831e-03
2.08044e-01,2.24273e-03
2.12594e-01,2.05338e-03
2.17244e-01,1.87901e-03
2.21995e-01,1.71845e-03
2.26850e-01,1.57062e-03
2.31812e-01,1.43454e-03
2.36882e-01,1.30928e-03
2.42062e-01,1.19399e-03
2.47356e-01,1.08789e-03
2.52766e-01,9.90261e-04
2.58294e-01,9.00433e-04
2.63944e-01,8.17792e-04
2.69716e-01,7.41768e-04
2.75615e-01,6.71839e-04
2.81643e-01,6.07522e-04
2.87803e-01,5.48371e-04
2.94097e-01,4.93976e-04
3.00529e-01,4.43959e-04
3.07102e-01,3.97970e-04
3.13818e-01,3.55689e-04
3.20682e-01,3.16820e-04
3.27695e-01,2.81089e-04
3.34862e-01,2.48246e-04
3.42186e-01,2.18059e-04
3.49670e-01,1.90315e-04
3.57317e-01,1.64818e-04
3.65132e-01,1.41388e-04
3.73118e-01,1.19858e-04
3.81278e-01,1.00075e-04
3.89617e-01,8.18982e-05
3.98138e-01,6.51986e-05
4.06846e-01,4.98567e-05
4.15743e-01,3.57629e-05
4.24836e-01,2.28161e-05
4.34128e-01,1.09236e-05
4.43622e-01,0.00000e+00
