m1=1504.079, m2=24.186, gsp=2.356, rhosp=361.474
fGW[Hz],dPh[rad]
6.20187e-03,4.31662e+03
6.39696e-03,4.04512e+03
6.59820e-03,3.79069e+03
6.80576e-03,3.55225e+03
7.01985e-03,3.32881e+03
7.24068e-03,3.11941e+03
7.46846e-03,2.92317e+03
7.70340e-03,2.73927e+03
7.94573e-03,2.56694e+03
8.19568e-03,2.40544e+03
8.45350e-03,2.25409e+03
8.71943e-03,2.11226e+03
8.99372e-03,1.97934e+03
9.27664e-03,1.85478e+03
9.56846e-03,1.73806e+03
9.86946e-03,1.62867e+03
1.01799e-02,1.52616e+03
1.05002e-02,1.43010e+03
1.08305e-02,1.34008e+03
1.11712e-02,1.25571e+03
1.15226e-02,1.17666e+03
1.18851e-02,1.10257e+03
1.22590e-02,1.03315e+03
1.26446e-02,9.68086e+02
1.30424e-02,9.07118e+02
1.34526e-02,8.49984e+02
1.38758e-02,7.96443e+02
1.43123e-02,7.46270e+02
1.47626e-02,6.99253e+02
1.52270e-02,6.55193e+02
1.57060e-02,6.13904e+02
1.62000e-02,5.75213e+02
1.67097e-02,5.38956e+02
1.72353e-02,5.04980e+02
1.77775e-02,4.73142e+02
1.83367e-02,4.43306e+02
1.89136e-02,4.15348e+02
1.95085e-02,3.89149e+02
2.01222e-02,3.64599e+02
2.07552e-02,3.41594e+02
2.14081e-02,3.20037e+02
2.20816e-02,2.99836e+02
2.27762e-02,2.80907e+02
2.34927e-02,2.63169e+02
2.42317e-02,2.46548e+02
2.49940e-02,2.30974e+02
2.57803e-02,2.16380e+02
2.65913e-02,2.02705e+02
2.74278e-02,1.89891e+02
2.82906e-02,1.77884e+02
2.91805e-02,1.66633e+02
3.00985e-02,1.56091e+02
3.10453e-02,1.46213e+02
3.20219e-02,1.36958e+02
3.30293e-02,1.28286e+02
3.40683e-02,1.20160e+02
3.51400e-02,1.12546e+02
3.62454e-02,1.05413e+02
3.73856e-02,9.87287e+01
3.85617e-02,9.24662e+01
3.97747e-02,8.65986e+01
4.10260e-02,8.11011e+01
4.23165e-02,7.59504e+01
4.36477e-02,7.11247e+01
4.50208e-02,6.66035e+01
4.64370e-02,6.23677e+01
4.78978e-02,5.83993e+01
4.94046e-02,5.46814e+01
5.09587e-02,5.11984e+01
5.25618e-02,4.79354e+01
5.42152e-02,4.48786e+01
5.59207e-02,4.20150e+01
5.76799e-02,3.93324e+01
5.94943e-02,3.68194e+01
6.13659e-02,3.44654e+01
6.32963e-02,3.22603e+01
6.52875e-02,3.01948e+01
6.73413e-02,2.82601e+01
6.94597e-02,2.64479e+01
7.16447e-02,2.47505e+01
7.38985e-02,2.31607e+01
7.62232e-02,2.16717e+01
7.86210e-02,2.02772e+01
8.10942e-02,1.89711e+01
8.36452e-02,1.77480e+01
8.62765e-02,1.66025e+01
8.89906e-02,1.55299e+01
9.17900e-02,1.45254e+01
9.46775e-02,1.35848e+01
9.76559e-02,1.27041e+01
1.00728e-01,1.18795e+01
1.03897e-01,1.11074e+01
1.07165e-01,1.03845e+01
1.10536e-01,9.70780e+00
1.14013e-01,9.07427e+00
1.17600e-01,8.48122e+00
1.21299e-01,7.92608e+00
1.25115e-01,7.40647e+00
1.29051e-01,6.92014e+00
1.33111e-01,6.46497e+00
1.37298e-01,6.03901e+00
1.41617e-01,5.64040e+00
1.46072e-01,5.26740e+00
1.50667e-01,4.91841e+00
1.55407e-01,4.59189e+00
1.60295e-01,4.28642e+00
1.65338e-01,4.00067e+00
1.70539e-01,3.73339e+00
1.75904e-01,3.48340e+00
1.81437e-01,3.24961e+00
1.87145e-01,3.03099e+00
1.93032e-01,2.82657e+00
1.99104e-01,2.63544e+00
2.05368e-01,2.45678e+00
2.11828e-01,2.28977e+00
2.18492e-01,2.13368e+00
2.25365e-01,1.98782e+00
2.32454e-01,1.85152e+00
2.39767e-01,1.72418e+00
2.47309e-01,1.60522e+00
2.55089e-01,1.49412e+00
2.63114e-01,1.39036e+00
2.71391e-01,1.29347e+00
2.79928e-01,1.20303e+00
2.88734e-01,1.11860e+00
2.97817e-01,1.03980e+00
3.07185e-01,9.66283e-01
3.16849e-01,8.97693e-01
3.26816e-01,8.33717e-01
3.37097e-01,7.74056e-01
3.47701e-01,7.18432e-01
3.58639e-01,6.66581e-01
3.69921e-01,6.18261e-01
3.81558e-01,5.73240e-01
3.93561e-01,5.31304e-01
4.05941e-01,4.92251e-01
4.18711e-01,4.55894e-01
4.31883e-01,4.22055e-01
4.45469e-01,3.90569e-01
4.59483e-01,3.61281e-01
4.73937e-01,3.34046e-01
4.88846e-01,3.08728e-01
5.04224e-01,2.85200e-01
5.20085e-01,2.63342e-01
5.36446e-01,2.43044e-01
5.53321e-01,2.24201e-01
5.70728e-01,2.06715e-01
5.88681e-01,1.90495e-01
6.07200e-01,1.75455e-01
6.26301e-01,1.61515e-01
6.46003e-01,1.48600e-01
6.66325e-01,1.36640e-01
6.87286e-01,1.25569e-01
7.08906e-01,1.15326e-01
7.31207e-01,1.05854e-01
7.54209e-01,9.70977e-02
7.77935e-01,8.90083e-02
8.02407e-01,8.15385e-02
8.27648e-01,7.46443e-02
8.53684e-01,6.82849e-02
8.80539e-01,6.24219e-02
9.08239e-01,5.70196e-02
9.36810e-01,5.20445e-02
9.66280e-01,4.74655e-02
9.96677e-01,4.32535e-02
1.02803e+00,3.93815e-02
1.06037e+00,3.58240e-02
1.09373e+00,3.25576e-02
1.12813e+00,2.95602e-02
1.16362e+00,2.68114e-02
1.20023e+00,2.42922e-02
1.23798e+00,2.19848e-02
1.27693e+00,1.98729e-02
1.31710e+00,1.79410e-02
1.35853e+00,1.61749e-02
1.40126e+00,1.45616e-02
1.44534e+00,1.30886e-02
1.49081e+00,1.17447e-02
1.53771e+00,1.05194e-02
1.58608e+00,9.40284e-03
1.63598e+00,8.38611e-03
1.68744e+00,7.46085e-03
1.74052e+00,6.61938e-03
1.79528e+00,5.85457e-03
1.85175e+00,5.15990e-03
1.91000e+00,4.52930e-03
1.97009e+00,3.95724e-03
2.03206e+00,3.43858e-03
2.09599e+00,2.96862e-03
2.16192e+00,2.54304e-03
2.22993e+00,2.15787e-03
2.30008e+00,1.80948e-03
2.37243e+00,1.49453e-03
2.44706e+00,1.20996e-03
2.52404e+00,9.52981e-04
2.60344e+00,7.21043e-04
2.68534e+00,5.11812e-04
2.76982e+00,3.23160e-04
2.85695e+00,1.53145e-04
2.94682e+00,0.00000e+00
