m1=9176.577, m2=8.855, gsp=2.176, rhosp=7553.530
fGW[Hz],dPh[rad]
5.74109e-03,4.66376e+03
5.87017e-03,4.43089e+03
6.00216e-03,4.20942e+03
6.13712e-03,3.99879e+03
6.27511e-03,3.79848e+03
6.41620e-03,3.60799e+03
6.56047e-03,3.42685e+03
6.70798e-03,3.25460e+03
6.85880e-03,3.09081e+03
7.01302e-03,2.93506e+03
7.17070e-03,2.78698e+03
7.33193e-03,2.64619e+03
7.49679e-03,2.51233e+03
7.66535e-03,2.38507e+03
7.83770e-03,2.26409e+03
8.01393e-03,2.14908e+03
8.19412e-03,2.03976e+03
8.37836e-03,1.93584e+03
8.56675e-03,1.83706e+03
8.75937e-03,1.74318e+03
8.95632e-03,1.65396e+03
9.15770e-03,1.56916e+03
9.36360e-03,1.48858e+03
9.57414e-03,1.41200e+03
9.78941e-03,1.33924e+03
1.00095e-02,1.27010e+03
1.02346e-02,1.20442e+03
1.04647e-02,1.14201e+03
1.07000e-02,1.08273e+03
1.09406e-02,1.02641e+03
1.11866e-02,9.72923e+02
1.14381e-02,9.22117e+02
1.16953e-02,8.73865e+02
1.19582e-02,8.28042e+02
1.22271e-02,7.84528e+02
1.25020e-02,7.43211e+02
1.27831e-02,7.03983e+02
1.30706e-02,6.66740e+02
1.33644e-02,6.31387e+02
1.36649e-02,5.97828e+02
1.39722e-02,5.65977e+02
1.42864e-02,5.35749e+02
1.46076e-02,5.07063e+02
1.49360e-02,4.79845e+02
1.52718e-02,4.54021e+02
1.56152e-02,4.29522e+02
1.59663e-02,4.06283e+02
1.63253e-02,3.84241e+02
1.66924e-02,3.63337e+02
1.70677e-02,3.43514e+02
1.74515e-02,3.24719e+02
1.78439e-02,3.06901e+02
1.82451e-02,2.90010e+02
1.86553e-02,2.74001e+02
1.90748e-02,2.58830e+02
1.95037e-02,2.44453e+02
1.99422e-02,2.30833e+02
2.03906e-02,2.17930e+02
2.08491e-02,2.05709e+02
2.13178e-02,1.94135e+02
2.17972e-02,1.83176e+02
2.22873e-02,1.72800e+02
2.27884e-02,1.62979e+02
2.33008e-02,1.53684e+02
2.38247e-02,1.44888e+02
2.43604e-02,1.36565e+02
2.49081e-02,1.28693e+02
2.54681e-02,1.21247e+02
2.60408e-02,1.14206e+02
2.66263e-02,1.07550e+02
2.72250e-02,1.01257e+02
2.78371e-02,9.53107e+01
2.84630e-02,8.96917e+01
2.91030e-02,8.43835e+01
2.97574e-02,7.93698e+01
3.04264e-02,7.46354e+01
3.11106e-02,7.01657e+01
3.18101e-02,6.59467e+01
3.25253e-02,6.19654e+01
3.32566e-02,5.82092e+01
3.40044e-02,5.46663e+01
3.47690e-02,5.13252e+01
3.55507e-02,4.81753e+01
3.63501e-02,4.52064e+01
3.71674e-02,4.24088e+01
3.80031e-02,3.97732e+01
3.88576e-02,3.72910e+01
3.97313e-02,3.49538e+01
4.06246e-02,3.27538e+01
4.15380e-02,3.06834e+01
4.24720e-02,2.87356e+01
4.34269e-02,2.69036e+01
4.44034e-02,2.51810e+01
4.54018e-02,2.35618e+01
4.64226e-02,2.20402e+01
4.74664e-02,2.06107e+01
4.85337e-02,1.92682e+01
4.96249e-02,1.80078e+01
5.07407e-02,1.68247e+01
5.18816e-02,1.57147e+01
5.30481e-02,1.46734e+01
5.42409e-02,1.36971e+01
5.54605e-02,1.27818e+01
5.67075e-02,1.19240e+01
5.79825e-02,1.11205e+01
5.92862e-02,1.03680e+01
6.06193e-02,9.66346e+00
6.19823e-02,9.00409e+00
6.33759e-02,8.38718e+00
6.48009e-02,7.81019e+00
6.62579e-02,7.27072e+00
6.77477e-02,6.76648e+00
6.92710e-02,6.29534e+00
7.08285e-02,5.85527e+00
7.24210e-02,5.44435e+00
7.40494e-02,5.06078e+00
7.57144e-02,4.70286e+00
7.74168e-02,4.36899e+00
7.91575e-02,4.05765e+00
8.09373e-02,3.76741e+00
8.27571e-02,3.49694e+00
8.46179e-02,3.24496e+00
8.65205e-02,3.01030e+00
8.84658e-02,2.79183e+00
9.04550e-02,2.58849e+00
9.24888e-02,2.39931e+00
9.45684e-02,2.22335e+00
9.66947e-02,2.05974e+00
9.88688e-02,1.90765e+00
1.01092e-01,1.76633e+00
1.03365e-01,1.63505e+00
1.05689e-01,1.51312e+00
1.08065e-01,1.39993e+00
1.10495e-01,1.29487e+00
1.12980e-01,1.19739e+00
1.15520e-01,1.10696e+00
1.18117e-01,1.02311e+00
1.20773e-01,9.45364e-01
1.23489e-01,8.73311e-01
1.26265e-01,8.06548e-01
1.29104e-01,7.44703e-01
1.32007e-01,6.87428e-01
1.34975e-01,6.34401e-01
1.38010e-01,5.85317e-01
1.41113e-01,5.39895e-01
1.44286e-01,4.97872e-01
1.47530e-01,4.59002e-01
1.50847e-01,4.23059e-01
1.54239e-01,3.89828e-01
1.57707e-01,3.59113e-01
1.61253e-01,3.30728e-01
1.64879e-01,3.04503e-01
1.68586e-01,2.80279e-01
1.72377e-01,2.57907e-01
1.76252e-01,2.37249e-01
1.80215e-01,2.18180e-01
1.84267e-01,2.00579e-01
1.88411e-01,1.84336e-01
1.92647e-01,1.69350e-01
1.96979e-01,1.55525e-01
2.01408e-01,1.42775e-01
2.05936e-01,1.31017e-01
2.10566e-01,1.20176e-01
2.15301e-01,1.10182e-01
2.20142e-01,1.00970e-01
2.25092e-01,9.24806e-02
2.30153e-01,8.46581e-02
2.35328e-01,7.74512e-02
2.40619e-01,7.08124e-02
2.46029e-01,6.46976e-02
2.51561e-01,5.90663e-02
2.57217e-01,5.38809e-02
2.63001e-01,4.91067e-02
2.68914e-01,4.47117e-02
2.74961e-01,4.06661e-02
2.81143e-01,3.69426e-02
2.87464e-01,3.35160e-02
2.93928e-01,3.03629e-02
3.00537e-01,2.74618e-02
3.07294e-01,2.47929e-02
3.14203e-01,2.23377e-02
3.21268e-01,2.00795e-02
3.28492e-01,1.80025e-02
3.35878e-01,1.60924e-02
3.43430e-01,1.43359e-02
3.51152e-01,1.27209e-02
3.59047e-01,1.12361e-02
3.67120e-01,9.87097e-03
3.75375e-01,8.61609e-03
3.83815e-01,7.46260e-03
3.92445e-01,6.40239e-03
4.01269e-01,5.42798e-03
4.10291e-01,4.53249e-03
4.19516e-01,3.70957e-03
4.28949e-01,2.95341e-03
4.38594e-01,2.25861e-03
4.48455e-01,1.62024e-03
4.58538e-01,1.03375e-03
4.68849e-01,4.94956e-04
4.79390e-01,0.00000e+00
