m1=74067.592, m2=8.856, gsp=2.120, rhosp=202.863
fGW[Hz],dPh[rad]
3.40561e-03,1.01978e+03
3.45488e-03,9.72843e+02
3.50486e-03,9.27956e+02
3.55556e-03,8.85034e+02
3.60700e-03,8.43994e+02
3.65919e-03,8.04760e+02
3.71213e-03,7.67259e+02
3.76583e-03,7.31417e+02
3.82031e-03,6.97167e+02
3.87558e-03,6.64442e+02
3.93165e-03,6.33179e+02
3.98853e-03,6.03316e+02
4.04623e-03,5.74795e+02
4.10477e-03,5.47559e+02
4.16415e-03,5.21553e+02
4.22440e-03,4.96726e+02
4.28551e-03,4.73027e+02
4.34751e-03,4.50408e+02
4.41041e-03,4.28823e+02
4.47421e-03,4.08227e+02
4.53894e-03,3.88577e+02
4.60461e-03,3.69833e+02
4.67122e-03,3.51955e+02
4.73880e-03,3.34905e+02
4.80736e-03,3.18647e+02
4.87691e-03,3.03146e+02
4.94747e-03,2.88369e+02
5.01904e-03,2.74284e+02
5.09165e-03,2.60861e+02
5.16532e-03,2.48068e+02
5.24004e-03,2.35880e+02
5.31585e-03,2.24268e+02
5.39276e-03,2.13206e+02
5.47078e-03,2.02671e+02
5.54992e-03,1.92637e+02
5.63021e-03,1.83082e+02
5.71167e-03,1.73985e+02
5.79430e-03,1.65325e+02
5.87813e-03,1.57081e+02
5.96317e-03,1.49234e+02
6.04944e-03,1.41767e+02
6.13695e-03,1.34661e+02
6.22574e-03,1.27900e+02
6.31581e-03,1.21468e+02
6.40718e-03,1.15349e+02
6.49987e-03,1.09530e+02
6.59391e-03,1.03995e+02
6.68930e-03,9.87318e+01
6.78608e-03,9.37273e+01
6.88426e-03,8.89692e+01
6.98385e-03,8.44460e+01
7.08489e-03,8.01464e+01
7.18739e-03,7.60598e+01
7.29137e-03,7.21761e+01
7.39685e-03,6.84855e+01
7.50387e-03,6.49788e+01
7.61243e-03,6.16471e+01
7.72256e-03,5.84820e+01
7.83428e-03,5.54755e+01
7.94762e-03,5.26198e+01
8.06260e-03,4.99076e+01
8.17924e-03,4.73321e+01
8.29757e-03,4.48864e+01
8.41762e-03,4.25642e+01
8.53940e-03,4.03596e+01
8.66294e-03,3.82666e+01
8.78827e-03,3.62799e+01
8.91541e-03,3.43942e+01
9.04439e-03,3.26045e+01
9.17523e-03,3.09061e+01
9.30797e-03,2.92943e+01
9.44263e-03,2.77650e+01
9.57924e-03,2.63140e+01
9.71783e-03,2.49374e+01
9.85842e-03,2.36314e+01
1.00010e-02,2.23926e+01
1.01457e-02,2.12176e+01
1.02925e-02,2.01031e+01
1.04414e-02,1.90462e+01
1.05925e-02,1.80438e+01
1.07457e-02,1.70934e+01
1.09012e-02,1.61921e+01
1.10589e-02,1.53376e+01
1.12189e-02,1.45275e+01
1.13812e-02,1.37595e+01
1.15458e-02,1.30314e+01
1.17129e-02,1.23413e+01
1.18823e-02,1.16871e+01
1.20542e-02,1.10671e+01
1.22286e-02,1.04795e+01
1.24055e-02,9.92262e+00
1.25850e-02,9.39490e+00
1.27671e-02,8.89485e+00
1.29518e-02,8.42102e+00
1.31392e-02,7.97207e+00
1.33292e-02,7.54672e+00
1.35221e-02,7.14374e+00
1.37177e-02,6.76198e+00
1.39162e-02,6.40034e+00
1.41175e-02,6.05776e+00
1.43217e-02,5.73327e+00
1.45289e-02,5.42592e+00
1.47391e-02,5.13481e+00
1.49524e-02,4.85911e+00
1.51687e-02,4.59800e+00
1.53881e-02,4.35073e+00
1.56107e-02,4.11657e+00
1.58366e-02,3.89483e+00
1.60657e-02,3.68487e+00
1.62981e-02,3.48607e+00
1.65339e-02,3.29783e+00
1.67731e-02,3.11961e+00
1.70158e-02,2.95088e+00
1.72619e-02,2.79113e+00
1.75117e-02,2.63991e+00
1.77650e-02,2.49674e+00
1.80220e-02,2.36122e+00
1.82828e-02,2.23294e+00
1.85473e-02,2.11150e+00
1.88156e-02,1.99656e+00
1.90878e-02,1.88777e+00
1.93639e-02,1.78480e+00
1.96441e-02,1.68735e+00
1.99283e-02,1.59511e+00
2.02166e-02,1.50782e+00
2.05091e-02,1.42521e+00
2.08058e-02,1.34703e+00
2.11068e-02,1.27304e+00
2.14121e-02,1.20303e+00
2.17219e-02,1.13678e+00
2.20361e-02,1.07409e+00
2.23550e-02,1.01477e+00
2.26784e-02,9.58644e-01
2.30065e-02,9.05536e-01
2.33393e-02,8.55287e-01
2.36770e-02,8.07744e-01
2.40195e-02,7.62763e-01
2.43670e-02,7.20205e-01
2.47195e-02,6.79942e-01
2.50771e-02,6.41851e-01
2.54399e-02,6.05814e-01
2.58080e-02,5.71723e-01
2.61813e-02,5.39472e-01
2.65601e-02,5.08962e-01
2.69444e-02,4.80101e-01
2.73342e-02,4.52799e-01
2.77296e-02,4.26973e-01
2.81308e-02,4.02544e-01
2.85378e-02,3.79436e-01
2.89506e-02,3.57578e-01
2.93695e-02,3.36903e-01
2.97943e-02,3.17347e-01
3.02254e-02,2.98849e-01
3.06627e-02,2.81354e-01
3.11063e-02,2.64807e-01
3.15563e-02,2.49156e-01
3.20128e-02,2.34353e-01
3.24760e-02,2.20353e-01
3.29458e-02,2.07112e-01
3.34224e-02,1.94589e-01
3.39060e-02,1.82746e-01
3.43965e-02,1.71545e-01
3.48941e-02,1.60952e-01
3.53989e-02,1.50934e-01
3.59110e-02,1.41460e-01
3.64306e-02,1.32500e-01
3.69576e-02,1.24027e-01
3.74923e-02,1.16014e-01
3.80347e-02,1.08437e-01
3.85850e-02,1.01272e-01
3.91432e-02,9.44956e-02
3.97095e-02,8.80879e-02
4.02840e-02,8.20287e-02
4.08667e-02,7.62989e-02
4.14580e-02,7.08808e-02
4.20578e-02,6.57574e-02
4.26662e-02,6.09127e-02
4.32835e-02,5.63317e-02
4.39097e-02,5.20000e-02
4.45449e-02,4.79040e-02
4.51894e-02,4.40311e-02
4.58431e-02,4.03690e-02
4.65063e-02,3.69063e-02
4.71792e-02,3.36321e-02
4.78617e-02,3.05363e-02
4.85541e-02,2.76092e-02
4.92566e-02,2.48415e-02
4.99692e-02,2.22246e-02
5.06921e-02,1.97503e-02
5.14255e-02,1.74108e-02
5.21694e-02,1.51989e-02
5.29242e-02,1.31075e-02
5.36899e-02,1.11302e-02
5.44666e-02,9.26060e-03
5.52546e-02,7.49299e-03
5.60540e-02,5.82176e-03
5.68649e-02,4.24168e-03
5.76876e-02,2.74778e-03
5.85222e-02,1.33537e-03
5.93688e-02,0.00000e+00
