m1=7979.401, m2=4.510, gsp=2.364, rhosp=2050.043
fGW[Hz],dPh[rad]
7.65628e-03,1.56221e+05
7.82259e-03,1.48875e+05
7.99252e-03,1.41862e+05
8.16615e-03,1.35167e+05
8.34354e-03,1.28778e+05
8.52478e-03,1.22679e+05
8.70997e-03,1.16859e+05
8.89917e-03,1.11304e+05
9.09249e-03,1.06003e+05
9.29001e-03,1.00944e+05
9.49181e-03,9.61173e+04
9.69800e-03,9.15119e+04
9.90867e-03,8.71181e+04
1.01239e-02,8.29263e+04
1.03438e-02,7.89275e+04
1.05685e-02,7.51131e+04
1.07981e-02,7.14749e+04
1.10327e-02,6.80050e+04
1.12723e-02,6.46958e+04
1.15172e-02,6.15401e+04
1.17674e-02,5.85310e+04
1.20230e-02,5.56621e+04
1.22842e-02,5.29268e+04
1.25510e-02,5.03194e+04
1.28237e-02,4.78339e+04
1.31023e-02,4.54649e+04
1.33869e-02,4.32072e+04
1.36777e-02,4.10557e+04
1.39748e-02,3.90057e+04
1.42784e-02,3.70525e+04
1.45885e-02,3.51917e+04
1.49055e-02,3.34192e+04
1.52292e-02,3.17311e+04
1.55601e-02,3.01233e+04
1.58981e-02,2.85923e+04
1.62434e-02,2.71347e+04
1.65963e-02,2.57469e+04
1.69568e-02,2.44260e+04
1.73252e-02,2.31687e+04
1.77015e-02,2.19722e+04
1.80860e-02,2.08337e+04
1.84789e-02,1.97506e+04
1.88803e-02,1.87202e+04
1.92905e-02,1.77403e+04
1.97095e-02,1.68083e+04
2.01377e-02,1.59222e+04
2.05751e-02,1.50798e+04
2.10221e-02,1.42790e+04
2.14787e-02,1.35180e+04
2.19453e-02,1.27948e+04
2.24220e-02,1.21078e+04
2.29091e-02,1.14552e+04
2.34067e-02,1.08354e+04
2.39152e-02,1.02468e+04
2.44347e-02,9.68806e+03
2.49655e-02,9.15769e+03
2.55078e-02,8.65436e+03
2.60619e-02,8.17679e+03
2.66281e-02,7.72375e+03
2.72065e-02,7.29406e+03
2.77975e-02,6.88662e+03
2.84014e-02,6.50035e+03
2.90183e-02,6.13423e+03
2.96487e-02,5.78728e+03
3.02928e-02,5.45859e+03
3.09508e-02,5.14725e+03
3.16231e-02,4.85243e+03
3.23101e-02,4.57331e+03
3.30120e-02,4.30912e+03
3.37291e-02,4.05912e+03
3.44618e-02,3.82262e+03
3.52104e-02,3.59893e+03
3.59753e-02,3.38742e+03
3.67567e-02,3.18748e+03
3.75552e-02,2.99853e+03
3.83710e-02,2.82000e+03
3.92046e-02,2.65138e+03
4.00562e-02,2.49215e+03
4.09263e-02,2.34183e+03
4.18154e-02,2.19997e+03
4.27237e-02,2.06612e+03
4.36518e-02,1.93988e+03
4.46001e-02,1.82084e+03
4.55689e-02,1.70862e+03
4.65588e-02,1.60287e+03
4.75702e-02,1.50324e+03
4.86035e-02,1.40941e+03
4.96594e-02,1.32106e+03
5.07381e-02,1.23790e+03
5.18403e-02,1.15965e+03
5.29664e-02,1.08605e+03
5.41170e-02,1.01683e+03
5.52926e-02,9.51753e+02
5.64937e-02,8.90597e+02
5.77209e-02,8.33139e+02
5.89748e-02,7.79173e+02
6.02559e-02,7.28503e+02
6.15648e-02,6.80942e+02
6.29022e-02,6.36313e+02
6.42686e-02,5.94448e+02
6.56647e-02,5.55189e+02
6.70911e-02,5.18385e+02
6.85485e-02,4.83892e+02
7.00376e-02,4.51576e+02
7.15590e-02,4.21309e+02
7.31135e-02,3.92969e+02
7.47018e-02,3.66442e+02
7.63245e-02,3.41619e+02
7.79825e-02,3.18397e+02
7.96765e-02,2.96681e+02
8.14073e-02,2.76378e+02
8.31757e-02,2.57402e+02
8.49825e-02,2.39671e+02
8.68286e-02,2.23109e+02
8.87148e-02,2.07642e+02
9.06419e-02,1.93203e+02
9.26109e-02,1.79727e+02
9.46227e-02,1.67154e+02
9.66782e-02,1.55425e+02
9.87783e-02,1.44487e+02
1.00924e-01,1.34290e+02
1.03116e-01,1.24786e+02
1.05356e-01,1.15929e+02
1.07645e-01,1.07679e+02
1.09983e-01,9.99952e+01
1.12373e-01,9.28407e+01
1.14814e-01,8.61807e+01
1.17308e-01,7.99825e+01
1.19856e-01,7.42154e+01
1.22460e-01,6.88506e+01
1.25120e-01,6.38613e+01
1.27838e-01,5.92221e+01
1.30615e-01,5.49095e+01
1.33452e-01,5.09013e+01
1.36351e-01,4.71768e+01
1.39313e-01,4.37166e+01
1.42339e-01,4.05026e+01
1.45431e-01,3.75179e+01
1.48591e-01,3.47467e+01
1.51818e-01,3.21742e+01
1.55116e-01,2.97865e+01
1.58486e-01,2.75708e+01
1.61929e-01,2.55150e+01
1.65446e-01,2.36080e+01
1.69040e-01,2.18393e+01
1.72712e-01,2.01990e+01
1.76464e-01,1.86782e+01
1.80297e-01,1.72683e+01
1.84214e-01,1.59615e+01
1.88216e-01,1.47503e+01
1.92304e-01,1.36280e+01
1.96482e-01,1.25882e+01
2.00750e-01,1.16249e+01
2.05111e-01,1.07327e+01
2.09566e-01,9.90633e+00
2.14119e-01,9.14110e+00
2.18770e-01,8.43256e+00
2.23522e-01,7.77659e+00
2.28378e-01,7.16936e+00
2.33339e-01,6.60731e+00
2.38408e-01,6.08714e+00
2.43587e-01,5.60577e+00
2.48878e-01,5.16036e+00
2.54285e-01,4.74826e+00
2.59808e-01,4.36702e+00
2.65452e-01,4.01436e+00
2.71219e-01,3.68817e+00
2.77110e-01,3.38649e+00
2.83130e-01,3.10749e+00
2.89280e-01,2.84951e+00
2.95564e-01,2.61096e+00
3.01985e-01,2.39041e+00
3.08545e-01,2.18652e+00
3.15247e-01,1.99803e+00
3.22095e-01,1.82380e+00
3.29092e-01,1.66276e+00
3.36241e-01,1.51392e+00
3.43545e-01,1.37637e+00
3.51008e-01,1.24926e+00
3.58633e-01,1.13180e+00
3.66424e-01,1.02326e+00
3.74383e-01,9.22982e-01
3.82516e-01,8.30333e-01
3.90825e-01,7.44740e-01
3.99315e-01,6.65668e-01
4.07990e-01,5.92625e-01
4.16852e-01,5.25154e-01
4.25908e-01,4.62834e-01
4.35160e-01,4.05273e-01
4.44612e-01,3.52110e-01
4.54271e-01,3.03012e-01
4.64139e-01,2.57669e-01
4.74221e-01,2.15797e-01
4.84523e-01,1.77130e-01
4.95048e-01,1.41425e-01
5.05802e-01,1.08457e-01
5.16789e-01,7.80153e-02
5.28016e-01,4.99087e-02
5.39486e-01,2.39585e-02
5.51205e-01,0.00000e+00
