m1=2408.984, m2=10.625, gsp=2.174, rhosp=1564.196
fGW[Hz],dPh[rad]
7.49407e-03,8.85587e+02
7.70398e-03,8.32767e+02
7.91978e-03,7.83089e+02
8.14162e-03,7.36369e+02
8.36968e-03,6.92428e+02
8.60412e-03,6.51103e+02
8.84513e-03,6.12238e+02
9.09289e-03,5.75685e+02
9.34760e-03,5.41309e+02
9.60943e-03,5.08980e+02
9.87860e-03,4.78575e+02
1.01553e-02,4.49980e+02
1.04398e-02,4.23089e+02
1.07322e-02,3.97799e+02
1.10328e-02,3.74015e+02
1.13419e-02,3.51647e+02
1.16596e-02,3.30613e+02
1.19862e-02,3.10831e+02
1.23219e-02,2.92228e+02
1.26671e-02,2.74734e+02
1.30219e-02,2.58282e+02
1.33866e-02,2.42810e+02
1.37616e-02,2.28261e+02
1.41471e-02,2.14580e+02
1.45434e-02,2.01714e+02
1.49507e-02,1.89616e+02
1.53695e-02,1.78239e+02
1.58000e-02,1.67541e+02
1.62426e-02,1.57481e+02
1.66976e-02,1.48021e+02
1.71653e-02,1.39126e+02
1.76461e-02,1.30762e+02
1.81404e-02,1.22898e+02
1.86486e-02,1.15503e+02
1.91709e-02,1.08549e+02
1.97079e-02,1.02012e+02
2.02600e-02,9.58645e+01
2.08275e-02,9.00848e+01
2.14109e-02,8.46506e+01
2.20106e-02,7.95414e+01
2.26272e-02,7.47377e+01
2.32610e-02,7.02215e+01
2.39125e-02,6.59756e+01
2.45824e-02,6.19839e+01
2.52709e-02,5.82312e+01
2.59788e-02,5.47033e+01
2.67065e-02,5.13868e+01
2.74546e-02,4.82691e+01
2.82236e-02,4.53384e+01
2.90142e-02,4.25834e+01
2.98269e-02,3.99938e+01
3.06624e-02,3.75596e+01
3.15213e-02,3.52717e+01
3.24042e-02,3.31211e+01
3.33119e-02,3.10999e+01
3.42450e-02,2.92002e+01
3.52042e-02,2.74148e+01
3.61904e-02,2.57369e+01
3.72041e-02,2.41601e+01
3.82462e-02,2.26782e+01
3.93175e-02,2.12857e+01
4.04189e-02,1.99772e+01
4.15510e-02,1.87477e+01
4.27149e-02,1.75925e+01
4.39114e-02,1.65071e+01
4.51414e-02,1.54873e+01
4.64059e-02,1.45293e+01
4.77058e-02,1.36293e+01
4.90421e-02,1.27838e+01
5.04158e-02,1.19897e+01
5.18280e-02,1.12437e+01
5.32798e-02,1.05431e+01
5.47722e-02,9.88508e+00
5.63064e-02,9.26712e+00
5.78836e-02,8.68682e+00
5.95050e-02,8.14190e+00
6.11718e-02,7.63025e+00
6.28853e-02,7.14988e+00
6.46468e-02,6.69889e+00
6.64576e-02,6.27553e+00
6.83192e-02,5.87812e+00
7.02329e-02,5.50512e+00
7.22002e-02,5.15505e+00
7.42226e-02,4.82653e+00
7.63016e-02,4.51826e+00
7.84389e-02,4.22901e+00
8.06361e-02,3.95765e+00
8.28948e-02,3.70308e+00
8.52168e-02,3.46430e+00
8.76038e-02,3.24035e+00
9.00577e-02,3.03033e+00
9.25803e-02,2.83340e+00
9.51736e-02,2.64876e+00
9.78395e-02,2.47567e+00
1.00580e-01,2.31343e+00
1.03397e-01,2.16137e+00
1.06294e-01,2.01888e+00
1.09271e-01,1.88537e+00
1.12332e-01,1.76030e+00
1.15478e-01,1.64315e+00
1.18713e-01,1.53344e+00
1.22038e-01,1.43070e+00
1.25457e-01,1.33452e+00
1.28971e-01,1.24449e+00
1.32584e-01,1.16023e+00
1.36298e-01,1.08139e+00
1.40115e-01,1.00763e+00
1.44040e-01,9.38645e-01
1.48075e-01,8.74130e-01
1.52223e-01,8.13812e-01
1.56487e-01,7.57429e-01
1.60870e-01,7.04738e-01
1.65376e-01,6.55508e-01
1.70008e-01,6.09523e-01
1.74771e-01,5.66579e-01
1.79666e-01,5.26486e-01
1.84699e-01,4.89064e-01
1.89872e-01,4.54145e-01
1.95191e-01,4.21571e-01
2.00658e-01,3.91192e-01
2.06279e-01,3.62870e-01
2.12057e-01,3.36473e-01
2.17997e-01,3.11878e-01
2.24103e-01,2.88969e-01
2.30381e-01,2.67637e-01
2.36834e-01,2.47782e-01
2.43468e-01,2.29306e-01
2.50288e-01,2.12121e-01
2.57299e-01,1.96142e-01
2.64506e-01,1.81290e-01
2.71915e-01,1.67490e-01
2.79532e-01,1.54674e-01
2.87362e-01,1.42775e-01
2.95411e-01,1.31733e-01
3.03686e-01,1.21489e-01
3.12192e-01,1.11991e-01
3.20937e-01,1.03188e-01
3.29927e-01,9.50325e-02
3.39169e-01,8.74802e-02
3.48669e-01,8.04896e-02
3.58436e-01,7.40220e-02
3.68476e-01,6.80410e-02
3.78797e-01,6.25127e-02
3.89408e-01,5.74051e-02
4.00316e-01,5.26885e-02
4.11529e-01,4.83352e-02
4.23056e-01,4.43190e-02
4.34907e-01,4.06158e-02
4.47089e-01,3.72029e-02
4.59612e-01,3.40590e-02
4.72487e-01,3.11644e-02
4.85721e-01,2.85007e-02
4.99327e-01,2.60508e-02
5.13314e-01,2.37985e-02
5.27692e-01,2.17291e-02
5.42474e-01,1.98287e-02
5.57669e-01,1.80843e-02
5.73290e-01,1.64840e-02
5.89348e-01,1.50166e-02
6.05857e-01,1.36717e-02
6.22827e-01,1.24398e-02
6.40273e-01,1.13118e-02
6.58208e-01,1.02797e-02
6.76645e-01,9.33561e-03
6.95599e-01,8.47253e-03
7.15083e-01,7.68389e-03
7.35114e-01,6.96360e-03
7.55705e-01,6.30605e-03
7.76873e-01,5.70607e-03
7.98634e-01,5.15886e-03
8.21005e-01,4.66001e-03
8.44002e-01,4.20545e-03
8.67644e-01,3.79144e-03
8.91947e-01,3.41451e-03
9.16932e-01,3.07150e-03
9.42616e-01,2.75948e-03
9.69020e-01,2.47577e-03
9.96163e-01,2.21791e-03
1.02407e+00,1.98362e-03
1.05275e+00,1.77085e-03
1.08224e+00,1.57767e-03
1.11256e+00,1.40237e-03
1.14372e+00,1.24333e-03
1.17576e+00,1.09910e-03
1.20869e+00,9.68345e-04
1.24255e+00,8.49845e-04
1.27735e+00,7.42487e-04
1.31313e+00,6.45253e-04
1.34992e+00,5.57214e-04
1.38773e+00,4.77526e-04
1.42660e+00,4.05417e-04
1.46656e+00,3.40184e-04
1.50764e+00,2.81187e-04
1.54987e+00,2.27844e-04
1.59328e+00,1.79625e-04
1.63791e+00,1.36049e-04
1.68379e+00,9.66787e-05
1.73096e+00,6.11154e-05
1.77944e+00,2.89985e-05
1.82929e+00,0.00000e+00
