m1=6084.583, m2=19.078, gsp=2.162, rhosp=16.021
fGW[Hz],dPh[rad]
4.77221e-03,2.18717e+02
4.89417e-03,2.06668e+02
5.01924e-03,1.95279e+02
5.14752e-03,1.84515e+02
5.27906e-03,1.74340e+02
5.41397e-03,1.64724e+02
5.55233e-03,1.55635e+02
5.69422e-03,1.47044e+02
5.83974e-03,1.38924e+02
5.98898e-03,1.31250e+02
6.14204e-03,1.23997e+02
6.29900e-03,1.17142e+02
6.45997e-03,1.10664e+02
6.62506e-03,1.04540e+02
6.79437e-03,9.87536e+01
6.96801e-03,9.32845e+01
7.14608e-03,8.81159e+01
7.32870e-03,8.32313e+01
7.51599e-03,7.86151e+01
7.70807e-03,7.42527e+01
7.90505e-03,7.01301e+01
8.10707e-03,6.62342e+01
8.31425e-03,6.25527e+01
8.52673e-03,5.90738e+01
8.74464e-03,5.57863e+01
8.96811e-03,5.26798e+01
9.19730e-03,4.97445e+01
9.43234e-03,4.69708e+01
9.67339e-03,4.43500e+01
9.92060e-03,4.18737e+01
1.01741e-02,3.95339e+01
1.04341e-02,3.73232e+01
1.07008e-02,3.52346e+01
1.09743e-02,3.32612e+01
1.12547e-02,3.13968e+01
1.15423e-02,2.96355e+01
1.18373e-02,2.79715e+01
1.21398e-02,2.63995e+01
1.24501e-02,2.49145e+01
1.27682e-02,2.35117e+01
1.30945e-02,2.21866e+01
1.34292e-02,2.09349e+01
1.37724e-02,1.97526e+01
1.41243e-02,1.86359e+01
1.44853e-02,1.75811e+01
1.48555e-02,1.65850e+01
1.52351e-02,1.56442e+01
1.56244e-02,1.47557e+01
1.60237e-02,1.39166e+01
1.64332e-02,1.31243e+01
1.68532e-02,1.23761e+01
1.72839e-02,1.16696e+01
1.77256e-02,1.10025e+01
1.81786e-02,1.03727e+01
1.86431e-02,9.77805e+00
1.91196e-02,9.21668e+00
1.96082e-02,8.68673e+00
2.01093e-02,8.18648e+00
2.06232e-02,7.71427e+00
2.11502e-02,7.26857e+00
2.16907e-02,6.84791e+00
2.22451e-02,6.45091e+00
2.28136e-02,6.07626e+00
2.33966e-02,5.72273e+00
2.39945e-02,5.38914e+00
2.46077e-02,5.07440e+00
2.52366e-02,4.77745e+00
2.58815e-02,4.49732e+00
2.65429e-02,4.23307e+00
2.72212e-02,3.98382e+00
2.79169e-02,3.74874e+00
2.86303e-02,3.52704e+00
2.93620e-02,3.31798e+00
3.01124e-02,3.12085e+00
3.08819e-02,2.93500e+00
3.16711e-02,2.75978e+00
3.24805e-02,2.59462e+00
3.33105e-02,2.43895e+00
3.41618e-02,2.29224e+00
3.50348e-02,2.15398e+00
3.59302e-02,2.02372e+00
3.68484e-02,1.90099e+00
3.77901e-02,1.78538e+00
3.87558e-02,1.67648e+00
3.97463e-02,1.57393e+00
4.07620e-02,1.47736e+00
4.18037e-02,1.38643e+00
4.28720e-02,1.30084e+00
4.39677e-02,1.22027e+00
4.50913e-02,1.14445e+00
4.62436e-02,1.07310e+00
4.74254e-02,1.00598e+00
4.86374e-02,9.42837e-01
4.98804e-02,8.83452e-01
5.11551e-02,8.27609e-01
5.24624e-02,7.75107e-01
5.38031e-02,7.25755e-01
5.51781e-02,6.79373e-01
5.65882e-02,6.35790e-01
5.80343e-02,5.94846e-01
5.95175e-02,5.56389e-01
6.10385e-02,5.20275e-01
6.25983e-02,4.86370e-01
6.41981e-02,4.54544e-01
6.58387e-02,4.24678e-01
6.75213e-02,3.96658e-01
6.92468e-02,3.70375e-01
7.10165e-02,3.45729e-01
7.28313e-02,3.22622e-01
7.46926e-02,3.00966e-01
7.66014e-02,2.80673e-01
7.85590e-02,2.61663e-01
8.05666e-02,2.43861e-01
8.26256e-02,2.27194e-01
8.47371e-02,2.11595e-01
8.69026e-02,1.96999e-01
8.91235e-02,1.83346e-01
9.14011e-02,1.70579e-01
9.37369e-02,1.58645e-01
9.61324e-02,1.47493e-01
9.85892e-02,1.37075e-01
1.01109e-01,1.27345e-01
1.03693e-01,1.18263e-01
1.06343e-01,1.09787e-01
1.09060e-01,1.01879e-01
1.11847e-01,9.45056e-02
1.14706e-01,8.76317e-02
1.17637e-01,8.12263e-02
1.20643e-01,7.52596e-02
1.23726e-01,6.97038e-02
1.26888e-01,6.45325e-02
1.30131e-01,5.97210e-02
1.33457e-01,5.52461e-02
1.36867e-01,5.10859e-02
1.40365e-01,4.72198e-02
1.43952e-01,4.36286e-02
1.47631e-01,4.02939e-02
1.51404e-01,3.71989e-02
1.55273e-01,3.43274e-02
1.59241e-01,3.16644e-02
1.63311e-01,2.91959e-02
1.67484e-01,2.69086e-02
1.71764e-01,2.47901e-02
1.76154e-01,2.28288e-02
1.80655e-01,2.10137e-02
1.85272e-01,1.93348e-02
1.90007e-01,1.77824e-02
1.94863e-01,1.63476e-02
1.99843e-01,1.50222e-02
2.04950e-01,1.37981e-02
2.10187e-01,1.26683e-02
2.15559e-01,1.16258e-02
2.21068e-01,1.06644e-02
2.26717e-01,9.77803e-03
2.32511e-01,8.96124e-03
2.38453e-01,8.20885e-03
2.44547e-01,7.51607e-03
2.50796e-01,6.87844e-03
2.57206e-01,6.29179e-03
2.63779e-01,5.75227e-03
2.70520e-01,5.25628e-03
2.77433e-01,4.80048e-03
2.84523e-01,4.38177e-03
2.91794e-01,3.99729e-03
2.99251e-01,3.64435e-03
3.06899e-01,3.32050e-03
3.14742e-01,3.02343e-03
3.22785e-01,2.75103e-03
3.31034e-01,2.50134e-03
3.39494e-01,2.27254e-03
3.48170e-01,2.06295e-03
3.57068e-01,1.87102e-03
3.66193e-01,1.69532e-03
3.75551e-01,1.53452e-03
3.85149e-01,1.38741e-03
3.94991e-01,1.25286e-03
4.05086e-01,1.12983e-03
4.15438e-01,1.01738e-03
4.26055e-01,9.14608e-04
4.36943e-01,8.20720e-04
4.48109e-01,7.34967e-04
4.59561e-01,6.56664e-04
4.71305e-01,5.85182e-04
4.83350e-01,5.19942e-04
4.95702e-01,4.60413e-04
5.08370e-01,4.06107e-04
5.21362e-01,3.56579e-04
5.34686e-01,3.11416e-04
5.48350e-01,2.70242e-04
5.62363e-01,2.32714e-04
5.76735e-01,1.98515e-04
5.91474e-01,1.67355e-04
6.06589e-01,1.38970e-04
6.22091e-01,1.13118e-04
6.37989e-01,8.95754e-05
6.54293e-01,6.81409e-05
6.71014e-01,4.86285e-05
6.88163e-01,3.08686e-05
7.05749e-01,1.47063e-05
7.23785e-01,0.00000e+00
