m1=954922.570, m2=63.603, gsp=2.395, rhosp=115.489
fGW[Hz],dPh[rad]
8.58059e-04,1.12880e+04
8.65334e-04,1.09452e+04
8.72671e-04,1.06127e+04
8.80070e-04,1.02902e+04
8.87532e-04,9.97733e+03
8.95058e-04,9.67388e+03
9.02647e-04,9.37956e+03
9.10300e-04,9.09408e+03
9.18018e-04,8.81718e+03
9.25802e-04,8.54862e+03
9.33652e-04,8.28814e+03
9.41568e-04,8.03550e+03
9.49551e-04,7.79047e+03
9.57603e-04,7.55283e+03
9.65722e-04,7.32235e+03
9.73910e-04,7.09883e+03
9.82168e-04,6.88204e+03
9.90495e-04,6.67180e+03
9.98894e-04,6.46791e+03
1.00736e-03,6.27018e+03
1.01590e-03,6.07842e+03
1.02452e-03,5.89246e+03
1.03320e-03,5.71212e+03
1.04196e-03,5.53724e+03
1.05080e-03,5.36764e+03
1.05971e-03,5.20319e+03
1.06869e-03,5.04371e+03
1.07776e-03,4.88906e+03
1.08689e-03,4.73910e+03
1.09611e-03,4.59368e+03
1.10540e-03,4.45268e+03
1.11478e-03,4.31594e+03
1.12423e-03,4.18336e+03
1.13376e-03,4.05481e+03
1.14337e-03,3.93015e+03
1.15307e-03,3.80928e+03
1.16284e-03,3.69208e+03
1.17270e-03,3.57845e+03
1.18265e-03,3.46826e+03
1.19267e-03,3.36143e+03
1.20279e-03,3.25785e+03
1.21298e-03,3.15742e+03
1.22327e-03,3.06004e+03
1.23364e-03,2.96563e+03
1.24410e-03,2.87409e+03
1.25465e-03,2.78534e+03
1.26529e-03,2.69930e+03
1.27602e-03,2.61587e+03
1.28683e-03,2.53499e+03
1.29775e-03,2.45657e+03
1.30875e-03,2.38055e+03
1.31985e-03,2.30684e+03
1.33104e-03,2.23539e+03
1.34232e-03,2.16611e+03
1.35370e-03,2.09895e+03
1.36518e-03,2.03384e+03
1.37676e-03,1.97071e+03
1.38843e-03,1.90952e+03
1.40020e-03,1.85019e+03
1.41207e-03,1.79268e+03
1.42405e-03,1.73693e+03
1.43612e-03,1.68288e+03
1.44830e-03,1.63048e+03
1.46058e-03,1.57969e+03
1.47296e-03,1.53044e+03
1.48545e-03,1.48271e+03
1.49804e-03,1.43644e+03
1.51075e-03,1.39158e+03
1.52356e-03,1.34810e+03
1.53647e-03,1.30594e+03
1.54950e-03,1.26508e+03
1.56264e-03,1.22547e+03
1.57589e-03,1.18708e+03
1.58925e-03,1.14986e+03
1.60273e-03,1.11378e+03
1.61631e-03,1.07881e+03
1.63002e-03,1.04491e+03
1.64384e-03,1.01205e+03
1.65778e-03,9.80197e+02
1.67183e-03,9.49322e+02
1.68601e-03,9.19394e+02
1.70030e-03,8.90385e+02
1.71472e-03,8.62266e+02
1.72926e-03,8.35010e+02
1.74392e-03,8.08591e+02
1.75871e-03,7.82983e+02
1.77362e-03,7.58162e+02
1.78866e-03,7.34103e+02
1.80382e-03,7.10783e+02
1.81912e-03,6.88180e+02
1.83454e-03,6.66271e+02
1.85010e-03,6.45036e+02
1.86578e-03,6.24453e+02
1.88160e-03,6.04504e+02
1.89756e-03,5.85168e+02
1.91365e-03,5.66426e+02
1.92987e-03,5.48261e+02
1.94623e-03,5.30654e+02
1.96274e-03,5.13589e+02
1.97938e-03,4.97050e+02
1.99616e-03,4.81019e+02
2.01309e-03,4.65482e+02
2.03015e-03,4.50423e+02
2.04737e-03,4.35827e+02
2.06473e-03,4.21681e+02
2.08223e-03,4.07970e+02
2.09989e-03,3.94682e+02
2.11769e-03,3.81803e+02
2.13565e-03,3.69321e+02
2.15376e-03,3.57223e+02
2.17202e-03,3.45498e+02
2.19043e-03,3.34134e+02
2.20901e-03,3.23120e+02
2.22774e-03,3.12446e+02
2.24662e-03,3.02101e+02
2.26567e-03,2.92074e+02
2.28488e-03,2.82357e+02
2.30426e-03,2.72940e+02
2.32379e-03,2.63812e+02
2.34350e-03,2.54967e+02
2.36337e-03,2.46394e+02
2.38340e-03,2.38085e+02
2.40361e-03,2.30033e+02
2.42399e-03,2.22229e+02
2.44455e-03,2.14666e+02
2.46527e-03,2.07337e+02
2.48618e-03,2.00233e+02
2.50726e-03,1.93349e+02
2.52851e-03,1.86677e+02
2.54995e-03,1.80212e+02
2.57157e-03,1.73945e+02
2.59338e-03,1.67873e+02
2.61537e-03,1.61987e+02
2.63754e-03,1.56284e+02
2.65990e-03,1.50756e+02
2.68246e-03,1.45400e+02
2.70520e-03,1.40208e+02
2.72814e-03,1.35177e+02
2.75127e-03,1.30302e+02
2.77460e-03,1.25577e+02
2.79812e-03,1.20998e+02
2.82185e-03,1.16561e+02
2.84577e-03,1.12260e+02
2.86990e-03,1.08093e+02
2.89424e-03,1.04054e+02
2.91878e-03,1.00140e+02
2.94352e-03,9.63472e+01
2.96848e-03,9.26716e+01
2.99365e-03,8.91095e+01
3.01903e-03,8.56576e+01
3.04463e-03,8.23124e+01
3.07044e-03,7.90706e+01
3.09648e-03,7.59290e+01
3.12273e-03,7.28846e+01
3.14921e-03,6.99343e+01
3.17591e-03,6.70752e+01
3.20284e-03,6.43046e+01
3.23000e-03,6.16197e+01
3.25738e-03,5.90178e+01
3.28500e-03,5.64964e+01
3.31285e-03,5.40530e+01
3.34094e-03,5.16852e+01
3.36927e-03,4.93906e+01
3.39784e-03,4.71670e+01
3.42665e-03,4.50123e+01
3.45570e-03,4.29242e+01
3.48500e-03,4.09007e+01
3.51455e-03,3.89398e+01
3.54435e-03,3.70396e+01
3.57440e-03,3.51982e+01
3.60471e-03,3.34138e+01
3.63527e-03,3.16847e+01
3.66610e-03,3.00091e+01
3.69718e-03,2.83853e+01
3.72853e-03,2.68118e+01
3.76014e-03,2.52870e+01
3.79202e-03,2.38094e+01
3.82417e-03,2.23776e+01
3.85660e-03,2.09901e+01
3.88930e-03,1.96455e+01
3.92227e-03,1.83426e+01
3.95553e-03,1.70800e+01
3.98907e-03,1.58566e+01
4.02289e-03,1.46710e+01
4.05700e-03,1.35221e+01
4.09140e-03,1.24088e+01
4.12609e-03,1.13300e+01
4.16107e-03,1.02846e+01
4.19636e-03,9.27161e+00
4.23194e-03,8.28998e+00
4.26782e-03,7.33875e+00
4.30400e-03,6.41699e+00
4.34050e-03,5.52379e+00
4.37730e-03,4.65825e+00
4.41441e-03,3.81953e+00
4.45184e-03,3.00680e+00
4.48959e-03,2.21925e+00
4.52766e-03,1.45610e+00
4.56604e-03,7.16591e-01
4.60476e-03,0.00000e+00
