m1=1131.024, m2=12.877, gsp=2.206, rhosp=1785.679
fGW[Hz],dPh[rad]
8.43088e-03,7.16684e+02
8.69503e-03,6.69704e+02
8.96746e-03,6.25802e+02
9.24843e-03,5.84776e+02
9.53820e-03,5.46438e+02
9.83704e-03,5.10612e+02
1.01453e-02,4.77133e+02
1.04631e-02,4.45847e+02
1.07910e-02,4.16612e+02
1.11291e-02,3.89292e+02
1.14777e-02,3.63763e+02
1.18374e-02,3.39906e+02
1.22082e-02,3.17612e+02
1.25907e-02,2.96779e+02
1.29852e-02,2.77312e+02
1.33921e-02,2.59120e+02
1.38117e-02,2.42121e+02
1.42444e-02,2.26235e+02
1.46907e-02,2.11391e+02
1.51510e-02,1.97519e+02
1.56257e-02,1.84557e+02
1.61153e-02,1.72444e+02
1.66202e-02,1.61125e+02
1.71410e-02,1.50548e+02
1.76780e-02,1.40665e+02
1.82319e-02,1.31429e+02
1.88031e-02,1.22799e+02
1.93923e-02,1.14734e+02
1.99999e-02,1.07198e+02
2.06265e-02,1.00157e+02
2.12728e-02,9.35767e+01
2.19393e-02,8.74282e+01
2.26267e-02,8.16829e+01
2.33356e-02,7.63143e+01
2.40667e-02,7.12978e+01
2.48208e-02,6.66103e+01
2.55985e-02,6.22302e+01
2.64005e-02,5.81375e+01
2.72277e-02,5.43132e+01
2.80808e-02,5.07398e+01
2.89606e-02,4.74009e+01
2.98680e-02,4.42810e+01
3.08038e-02,4.13659e+01
3.17689e-02,3.86421e+01
3.27643e-02,3.60970e+01
3.37909e-02,3.37190e+01
3.48496e-02,3.14971e+01
3.59415e-02,2.94210e+01
3.70676e-02,2.74813e+01
3.82290e-02,2.56689e+01
3.94268e-02,2.39755e+01
4.06621e-02,2.23934e+01
4.19361e-02,2.09152e+01
4.32500e-02,1.95341e+01
4.46051e-02,1.82438e+01
4.60027e-02,1.70383e+01
4.74440e-02,1.59120e+01
4.89305e-02,1.48597e+01
5.04636e-02,1.38766e+01
5.20447e-02,1.29582e+01
5.36753e-02,1.21002e+01
5.53571e-02,1.12986e+01
5.70915e-02,1.05498e+01
5.88803e-02,9.85020e+00
6.07251e-02,9.19670e+00
6.26277e-02,8.58623e+00
6.45899e-02,8.01597e+00
6.66136e-02,7.48327e+00
6.87008e-02,6.98567e+00
7.08533e-02,6.52086e+00
7.30732e-02,6.08671e+00
7.53627e-02,5.68118e+00
7.77240e-02,5.30241e+00
8.01592e-02,4.94863e+00
8.26707e-02,4.61821e+00
8.52609e-02,4.30961e+00
8.79323e-02,4.02139e+00
9.06874e-02,3.75223e+00
9.35288e-02,3.50086e+00
9.64592e-02,3.26611e+00
9.94814e-02,3.04690e+00
1.02598e-01,2.84221e+00
1.05813e-01,2.65107e+00
1.09128e-01,2.47259e+00
1.12547e-01,2.30596e+00
1.16074e-01,2.15037e+00
1.19710e-01,2.00512e+00
1.23461e-01,1.86951e+00
1.27329e-01,1.74291e+00
1.31319e-01,1.62473e+00
1.35433e-01,1.51442e+00
1.39677e-01,1.41146e+00
1.44053e-01,1.31535e+00
1.48566e-01,1.22566e+00
1.53221e-01,1.14195e+00
1.58022e-01,1.06384e+00
1.62973e-01,9.90948e-01
1.68079e-01,9.22936e-01
1.73345e-01,8.59479e-01
1.78777e-01,8.00278e-01
1.84378e-01,7.45051e-01
1.90155e-01,6.93535e-01
1.96113e-01,6.45485e-01
2.02257e-01,6.00671e-01
2.08594e-01,5.58879e-01
2.15130e-01,5.19909e-01
2.21870e-01,4.83574e-01
2.28822e-01,4.49699e-01
2.35991e-01,4.18120e-01
2.43385e-01,3.88686e-01
2.51011e-01,3.61253e-01
2.58876e-01,3.35689e-01
2.66987e-01,3.11870e-01
2.75352e-01,2.89678e-01
2.83979e-01,2.69006e-01
2.92877e-01,2.49752e-01
3.02053e-01,2.31821e-01
3.11517e-01,2.15126e-01
3.21277e-01,1.99583e-01
3.31343e-01,1.85115e-01
3.41725e-01,1.71650e-01
3.52432e-01,1.59120e-01
3.63474e-01,1.47464e-01
3.74862e-01,1.36622e-01
3.86607e-01,1.26539e-01
3.98720e-01,1.17164e-01
4.11213e-01,1.08449e-01
4.24097e-01,1.00349e-01
4.37385e-01,9.28238e-02
4.51089e-01,8.58328e-02
4.65222e-01,7.93402e-02
4.79798e-01,7.33121e-02
4.94831e-01,6.77165e-02
5.10335e-01,6.25241e-02
5.26325e-01,5.77070e-02
5.42815e-01,5.32395e-02
5.59823e-01,4.90974e-02
5.77363e-01,4.52584e-02
5.95452e-01,4.17014e-02
6.14109e-01,3.84067e-02
6.33350e-01,3.53562e-02
6.53194e-01,3.25327e-02
6.73660e-01,2.99203e-02
6.94767e-01,2.75042e-02
7.16535e-01,2.52705e-02
7.38985e-01,2.32063e-02
7.62139e-01,2.12995e-02
7.86018e-01,1.95389e-02
8.10645e-01,1.79139e-02
8.36044e-01,1.64149e-02
8.62239e-01,1.50327e-02
8.89254e-01,1.37588e-02
9.17116e-01,1.25853e-02
9.45851e-01,1.15049e-02
9.75486e-01,1.05106e-02
1.00605e+00,9.59608e-03
1.03757e+00,8.75541e-03
1.07008e+00,7.98302e-03
1.10361e+00,7.27377e-03
1.13818e+00,6.62287e-03
1.17385e+00,6.02585e-03
1.21062e+00,5.47858e-03
1.24856e+00,4.97720e-03
1.28767e+00,4.51815e-03
1.32802e+00,4.09811e-03
1.36963e+00,3.71399e-03
1.41254e+00,3.36295e-03
1.45680e+00,3.04233e-03
1.50244e+00,2.74968e-03
1.54952e+00,2.48273e-03
1.59807e+00,2.23937e-03
1.64814e+00,2.01767e-03
1.69978e+00,1.81583e-03
1.75303e+00,1.63218e-03
1.80796e+00,1.46519e-03
1.86460e+00,1.31344e-03
1.92302e+00,1.17564e-03
1.98328e+00,1.05057e-03
2.04542e+00,9.37142e-04
2.10950e+00,8.34325e-04
2.17560e+00,7.41188e-04
2.24376e+00,6.56870e-04
2.31406e+00,5.80584e-04
2.38657e+00,5.11604e-04
2.46134e+00,4.49269e-04
2.53846e+00,3.92971e-04
2.61799e+00,3.42154e-04
2.70002e+00,2.96311e-04
2.78462e+00,2.54978e-04
2.87186e+00,2.17731e-04
2.96184e+00,1.84184e-04
3.05464e+00,1.53986e-04
3.15035e+00,1.26815e-04
3.24906e+00,1.02382e-04
3.35085e+00,8.04198e-05
3.45584e+00,6.06888e-05
3.56412e+00,4.29703e-05
3.67579e+00,2.70662e-05
3.79096e+00,1.27970e-05
3.90973e+00,0.00000e+00
