m1=249574.390, m2=18.078, gsp=2.247, rhosp=2543.127
fGW[Hz],dPh[rad]
1.92346e-03,6.96671e+03
1.94499e-03,6.69211e+03
1.96675e-03,6.42808e+03
1.98877e-03,6.17423e+03
2.01102e-03,5.93019e+03
2.03353e-03,5.69557e+03
2.05629e-03,5.47004e+03
2.07930e-03,5.25325e+03
2.10258e-03,5.04486e+03
2.12611e-03,4.84457e+03
2.14990e-03,4.65207e+03
2.17397e-03,4.46707e+03
2.19830e-03,4.28927e+03
2.22290e-03,4.11841e+03
2.24778e-03,3.95422e+03
2.27294e-03,3.79646e+03
2.29837e-03,3.64487e+03
2.32410e-03,3.49922e+03
2.35011e-03,3.35928e+03
2.37641e-03,3.22484e+03
2.40301e-03,3.09569e+03
2.42990e-03,2.97161e+03
2.45710e-03,2.85242e+03
2.48460e-03,2.73793e+03
2.51241e-03,2.62796e+03
2.54053e-03,2.52233e+03
2.56896e-03,2.42088e+03
2.59771e-03,2.32344e+03
2.62678e-03,2.22987e+03
2.65618e-03,2.14000e+03
2.68591e-03,2.05369e+03
2.71597e-03,1.97082e+03
2.74637e-03,1.89123e+03
2.77711e-03,1.81482e+03
2.80819e-03,1.74144e+03
2.83962e-03,1.67099e+03
2.87140e-03,1.60335e+03
2.90354e-03,1.53841e+03
2.93603e-03,1.47606e+03
2.96889e-03,1.41620e+03
3.00212e-03,1.35874e+03
3.03572e-03,1.30357e+03
3.06970e-03,1.25062e+03
3.10405e-03,1.19979e+03
3.13879e-03,1.15099e+03
3.17392e-03,1.10416e+03
3.20944e-03,1.05921e+03
3.24537e-03,1.01606e+03
3.28169e-03,9.74652e+02
3.31842e-03,9.34909e+02
3.35556e-03,8.96766e+02
3.39311e-03,8.60160e+02
3.43109e-03,8.25030e+02
3.46949e-03,7.91318e+02
3.50832e-03,7.58967e+02
3.54758e-03,7.27923e+02
3.58729e-03,6.98133e+02
3.62744e-03,6.69549e+02
3.66804e-03,6.42121e+02
3.70909e-03,6.15803e+02
3.75060e-03,5.90552e+02
3.79258e-03,5.66325e+02
3.83502e-03,5.43079e+02
3.87795e-03,5.20778e+02
3.92135e-03,4.99381e+02
3.96524e-03,4.78854e+02
4.00961e-03,4.59160e+02
4.05449e-03,4.40268e+02
4.09987e-03,4.22144e+02
4.14575e-03,4.04757e+02
4.19215e-03,3.88078e+02
4.23907e-03,3.72079e+02
4.28652e-03,3.56732e+02
4.33449e-03,3.42010e+02
4.38300e-03,3.27889e+02
4.43206e-03,3.14344e+02
4.48166e-03,3.01352e+02
4.53182e-03,2.88891e+02
4.58254e-03,2.76939e+02
4.63383e-03,2.65475e+02
4.68569e-03,2.54480e+02
4.73813e-03,2.43934e+02
4.79116e-03,2.33821e+02
4.84478e-03,2.24121e+02
4.89901e-03,2.14818e+02
4.95384e-03,2.05897e+02
5.00928e-03,1.97341e+02
5.06534e-03,1.89135e+02
5.12204e-03,1.81267e+02
5.17936e-03,1.73721e+02
5.23733e-03,1.66484e+02
5.29595e-03,1.59545e+02
5.35522e-03,1.52891e+02
5.41515e-03,1.46510e+02
5.47576e-03,1.40391e+02
5.53705e-03,1.34523e+02
5.59902e-03,1.28897e+02
5.66168e-03,1.23502e+02
5.72505e-03,1.18329e+02
5.78912e-03,1.13369e+02
5.85391e-03,1.08613e+02
5.91943e-03,1.04053e+02
5.98568e-03,9.96809e+01
6.05267e-03,9.54886e+01
6.12041e-03,9.14691e+01
6.18891e-03,8.76152e+01
6.25818e-03,8.39202e+01
6.32822e-03,8.03776e+01
6.39905e-03,7.69810e+01
6.47067e-03,7.37246e+01
6.54309e-03,7.06025e+01
6.61632e-03,6.76093e+01
6.69037e-03,6.47397e+01
6.76525e-03,6.19885e+01
6.84096e-03,5.93510e+01
6.91753e-03,5.68224e+01
6.99495e-03,5.43982e+01
7.07324e-03,5.20743e+01
7.15240e-03,4.98464e+01
7.23245e-03,4.77106e+01
7.31339e-03,4.56631e+01
7.39525e-03,4.37003e+01
7.47801e-03,4.18187e+01
7.56171e-03,4.00149e+01
7.64634e-03,3.82858e+01
7.73192e-03,3.66282e+01
7.81845e-03,3.50393e+01
7.90596e-03,3.35161e+01
7.99444e-03,3.20560e+01
8.08392e-03,3.06564e+01
8.17439e-03,2.93148e+01
8.26588e-03,2.80287e+01
8.35839e-03,2.67960e+01
8.45194e-03,2.56143e+01
8.54653e-03,2.44816e+01
8.64219e-03,2.33958e+01
8.73891e-03,2.23551e+01
8.83671e-03,2.13575e+01
8.93562e-03,2.04013e+01
9.03562e-03,1.94848e+01
9.13675e-03,1.86062e+01
9.23901e-03,1.77642e+01
9.34241e-03,1.69570e+01
9.44697e-03,1.61834e+01
9.55270e-03,1.54419e+01
9.65962e-03,1.47311e+01
9.76773e-03,1.40499e+01
9.87705e-03,1.33970e+01
9.98759e-03,1.27711e+01
1.00994e-02,1.21713e+01
1.02124e-02,1.15963e+01
1.03267e-02,1.10453e+01
1.04423e-02,1.05171e+01
1.05592e-02,1.00109e+01
1.06773e-02,9.52575e+00
1.07968e-02,9.06074e+00
1.09177e-02,8.61505e+00
1.10399e-02,8.18789e+00
1.11634e-02,7.77849e+00
1.12884e-02,7.38610e+00
1.14147e-02,7.01004e+00
1.15425e-02,6.64961e+00
1.16716e-02,6.30416e+00
1.18023e-02,5.97309e+00
1.19344e-02,5.65578e+00
1.20679e-02,5.35168e+00
1.22030e-02,5.06022e+00
1.23396e-02,4.78089e+00
1.24777e-02,4.51319e+00
1.26173e-02,4.25662e+00
1.27585e-02,4.01073e+00
1.29013e-02,3.77507e+00
1.30457e-02,3.54922e+00
1.31917e-02,3.33277e+00
1.33394e-02,3.12533e+00
1.34887e-02,2.92653e+00
1.36396e-02,2.73600e+00
1.37923e-02,2.55341e+00
1.39467e-02,2.37842e+00
1.41027e-02,2.21071e+00
1.42606e-02,2.04999e+00
1.44202e-02,1.89597e+00
1.45816e-02,1.74835e+00
1.47448e-02,1.60689e+00
1.49098e-02,1.47132e+00
1.50767e-02,1.34140e+00
1.52454e-02,1.21688e+00
1.54160e-02,1.09756e+00
1.55886e-02,9.83209e-01
1.57630e-02,8.73621e-01
1.59395e-02,7.68600e-01
1.61179e-02,6.67955e-01
1.62982e-02,5.71505e-01
1.64807e-02,4.79074e-01
1.66651e-02,3.90495e-01
1.68516e-02,3.05608e-01
1.70402e-02,2.24259e-01
1.72309e-02,1.46302e-01
1.74238e-02,7.15936e-02
1.76188e-02,0.00000e+00
