m1=146758.456, m2=17.264, gsp=2.268, rhosp=4720.634
fGW[Hz],dPh[rad]
2.23479e-03,1.83081e+04
2.26413e-03,1.75247e+04
2.29386e-03,1.67735e+04
2.32397e-03,1.60530e+04
2.35449e-03,1.53621e+04
2.38540e-03,1.46997e+04
2.41672e-03,1.40646e+04
2.44845e-03,1.34558e+04
2.48060e-03,1.28723e+04
2.51317e-03,1.23131e+04
2.54617e-03,1.17772e+04
2.57960e-03,1.12637e+04
2.61347e-03,1.07717e+04
2.64778e-03,1.03004e+04
2.68254e-03,9.84887e+03
2.71776e-03,9.41642e+03
2.75345e-03,9.00226e+03
2.78960e-03,8.60565e+03
2.82623e-03,8.22589e+03
2.86333e-03,7.86228e+03
2.90093e-03,7.51419e+03
2.93902e-03,7.18097e+03
2.97761e-03,6.86203e+03
3.01670e-03,6.55678e+03
3.05631e-03,6.26465e+03
3.09644e-03,5.98512e+03
3.13709e-03,5.71766e+03
3.17828e-03,5.46177e+03
3.22001e-03,5.21698e+03
3.26229e-03,4.98282e+03
3.30512e-03,4.75885e+03
3.34852e-03,4.54465e+03
3.39248e-03,4.33981e+03
3.43703e-03,4.14393e+03
3.48215e-03,3.95664e+03
3.52787e-03,3.77758e+03
3.57419e-03,3.60639e+03
3.62112e-03,3.44276e+03
3.66867e-03,3.28634e+03
3.71684e-03,3.13685e+03
3.76564e-03,2.99398e+03
3.81508e-03,2.85745e+03
3.86517e-03,2.72699e+03
3.91592e-03,2.60234e+03
3.96733e-03,2.48325e+03
4.01942e-03,2.36947e+03
4.07220e-03,2.26079e+03
4.12566e-03,2.15697e+03
4.17983e-03,2.05781e+03
4.23471e-03,1.96311e+03
4.29031e-03,1.87267e+03
4.34664e-03,1.78631e+03
4.40371e-03,1.70384e+03
4.46153e-03,1.62509e+03
4.52011e-03,1.54992e+03
4.57946e-03,1.47814e+03
4.63959e-03,1.40963e+03
4.70050e-03,1.34422e+03
4.76222e-03,1.28179e+03
4.82475e-03,1.22221e+03
4.88809e-03,1.16534e+03
4.95227e-03,1.11107e+03
5.01730e-03,1.05927e+03
5.08317e-03,1.00985e+03
5.14991e-03,9.62694e+02
5.21753e-03,9.17699e+02
5.28603e-03,8.74771e+02
5.35544e-03,8.33816e+02
5.42575e-03,7.94746e+02
5.49699e-03,7.57475e+02
5.56917e-03,7.21923e+02
5.64229e-03,6.88013e+02
5.71637e-03,6.55669e+02
5.79142e-03,6.24822e+02
5.86746e-03,5.95402e+02
5.94450e-03,5.67346e+02
6.02255e-03,5.40592e+02
6.10163e-03,5.15080e+02
6.18174e-03,4.90753e+02
6.26290e-03,4.67558e+02
6.34513e-03,4.45443e+02
6.42844e-03,4.24358e+02
6.51285e-03,4.04257e+02
6.59836e-03,3.85093e+02
6.68499e-03,3.66825e+02
6.77277e-03,3.49411e+02
6.86169e-03,3.32812e+02
6.95178e-03,3.16989e+02
7.04306e-03,3.01908e+02
7.13553e-03,2.87535e+02
7.22922e-03,2.73835e+02
7.32414e-03,2.60779e+02
7.42030e-03,2.48337e+02
7.51773e-03,2.36479e+02
7.61643e-03,2.25180e+02
7.71644e-03,2.14413e+02
7.81775e-03,2.04152e+02
7.92039e-03,1.94376e+02
8.02439e-03,1.85061e+02
8.12975e-03,1.76185e+02
8.23649e-03,1.67729e+02
8.34463e-03,1.59673e+02
8.45419e-03,1.51997e+02
8.56519e-03,1.44685e+02
8.67765e-03,1.37718e+02
8.79159e-03,1.31082e+02
8.90702e-03,1.24760e+02
9.02397e-03,1.18738e+02
9.14245e-03,1.13002e+02
9.26249e-03,1.07538e+02
9.38410e-03,1.02333e+02
9.50731e-03,9.73760e+01
9.63214e-03,9.26544e+01
9.75861e-03,8.81573e+01
9.88673e-03,8.38741e+01
1.00165e-02,7.97949e+01
1.01481e-02,7.59099e+01
1.02813e-02,7.22100e+01
1.04163e-02,6.86864e+01
1.05531e-02,6.53308e+01
1.06916e-02,6.21353e+01
1.08320e-02,5.90923e+01
1.09742e-02,5.61945e+01
1.11183e-02,5.34351e+01
1.12643e-02,5.08076e+01
1.14122e-02,4.83056e+01
1.15620e-02,4.59232e+01
1.17138e-02,4.36548e+01
1.18676e-02,4.14949e+01
1.20234e-02,3.94384e+01
1.21813e-02,3.74803e+01
1.23412e-02,3.56160e+01
1.25033e-02,3.38410e+01
1.26674e-02,3.21510e+01
1.28338e-02,3.05421e+01
1.30023e-02,2.90103e+01
1.31730e-02,2.75520e+01
1.33459e-02,2.61636e+01
1.35212e-02,2.48418e+01
1.36987e-02,2.35836e+01
1.38786e-02,2.23857e+01
1.40608e-02,2.12453e+01
1.42454e-02,2.01598e+01
1.44324e-02,1.91264e+01
1.46219e-02,1.81426e+01
1.48139e-02,1.72062e+01
1.50084e-02,1.63148e+01
1.52055e-02,1.54663e+01
1.54051e-02,1.46585e+01
1.56074e-02,1.38897e+01
1.58123e-02,1.31579e+01
1.60199e-02,1.24613e+01
1.62302e-02,1.17982e+01
1.64433e-02,1.11671e+01
1.66592e-02,1.05663e+01
1.68780e-02,9.99454e+00
1.70996e-02,9.45030e+00
1.73241e-02,8.93230e+00
1.75516e-02,8.43927e+00
1.77820e-02,7.97001e+00
1.80155e-02,7.52339e+00
1.82520e-02,7.09830e+00
1.84917e-02,6.69372e+00
1.87344e-02,6.30866e+00
1.89804e-02,5.94218e+00
1.92296e-02,5.59339e+00
1.94821e-02,5.26144e+00
1.97379e-02,4.94551e+00
1.99971e-02,4.64484e+00
2.02596e-02,4.35869e+00
2.05256e-02,4.08636e+00
2.07951e-02,3.82718e+00
2.10681e-02,3.58053e+00
2.13448e-02,3.34580e+00
2.16250e-02,3.12241e+00
2.19089e-02,2.90981e+00
2.21966e-02,2.70750e+00
2.24880e-02,2.51496e+00
2.27833e-02,2.33174e+00
2.30824e-02,2.15737e+00
2.33855e-02,1.99144e+00
2.36926e-02,1.83353e+00
2.40036e-02,1.68326e+00
2.43188e-02,1.54026e+00
2.46381e-02,1.40418e+00
2.49616e-02,1.27469e+00
2.52893e-02,1.15146e+00
2.56214e-02,1.03419e+00
2.59578e-02,9.22605e-01
2.62986e-02,8.16419e-01
2.66439e-02,7.15373e-01
2.69937e-02,6.19219e-01
2.73481e-02,5.27721e-01
2.77072e-02,4.40654e-01
2.80710e-02,3.57804e-01
2.84396e-02,2.78966e-01
2.88130e-02,2.03947e-01
2.91913e-02,1.32562e-01
2.95745e-02,6.46356e-02
2.99628e-02,0.00000e+00
