m1=31720.366, m2=15.015, gsp=2.257, rhosp=883.536
fGW[Hz],dPh[rad]
3.45390e-03,1.28555e+04
3.51859e-03,1.22801e+04
3.58448e-03,1.17292e+04
3.65162e-03,1.12016e+04
3.72000e-03,1.06965e+04
3.78967e-03,1.02130e+04
3.86065e-03,9.75013e+03
3.93295e-03,9.30708e+03
4.00661e-03,8.88305e+03
4.08164e-03,8.47724e+03
4.15809e-03,8.08893e+03
4.23596e-03,7.71738e+03
4.31529e-03,7.36191e+03
4.39611e-03,7.02186e+03
4.47844e-03,6.69659e+03
4.56232e-03,6.38550e+03
4.64776e-03,6.08799e+03
4.73481e-03,5.80351e+03
4.82348e-03,5.53152e+03
4.91382e-03,5.27149e+03
5.00584e-03,5.02293e+03
5.09959e-03,4.78537e+03
5.19510e-03,4.55834e+03
5.29240e-03,4.34141e+03
5.39151e-03,4.13414e+03
5.49249e-03,3.93615e+03
5.59535e-03,3.74703e+03
5.70014e-03,3.56641e+03
5.80690e-03,3.39393e+03
5.91565e-03,3.22926e+03
6.02644e-03,3.07206e+03
6.13931e-03,2.92201e+03
6.25429e-03,2.77880e+03
6.37142e-03,2.64215e+03
6.49074e-03,2.51178e+03
6.61230e-03,2.38742e+03
6.73614e-03,2.26880e+03
6.86230e-03,2.15569e+03
6.99082e-03,2.04783e+03
7.12174e-03,1.94502e+03
7.25512e-03,1.84702e+03
7.39100e-03,1.75363e+03
7.52942e-03,1.66464e+03
7.67043e-03,1.57987e+03
7.81408e-03,1.49912e+03
7.96043e-03,1.42223e+03
8.10951e-03,1.34901e+03
8.26139e-03,1.27932e+03
8.41611e-03,1.21298e+03
8.57373e-03,1.14985e+03
8.73430e-03,1.08979e+03
8.89788e-03,1.03266e+03
9.06452e-03,9.78327e+02
9.23429e-03,9.26663e+02
9.40723e-03,8.77548e+02
9.58341e-03,8.30865e+02
9.76289e-03,7.86504e+02
9.94574e-03,7.44358e+02
1.01320e-02,7.04324e+02
1.03218e-02,6.66304e+02
1.05151e-02,6.30206e+02
1.07120e-02,5.95938e+02
1.09126e-02,5.63417e+02
1.11170e-02,5.32558e+02
1.13252e-02,5.03284e+02
1.15373e-02,4.75520e+02
1.17534e-02,4.49193e+02
1.19735e-02,4.24235e+02
1.21977e-02,4.00579e+02
1.24262e-02,3.78164e+02
1.26589e-02,3.56928e+02
1.28960e-02,3.36814e+02
1.31375e-02,3.17768e+02
1.33835e-02,2.99736e+02
1.36342e-02,2.82669e+02
1.38895e-02,2.66519e+02
1.41497e-02,2.51240e+02
1.44147e-02,2.36788e+02
1.46846e-02,2.23122e+02
1.49596e-02,2.10202e+02
1.52398e-02,1.97990e+02
1.55252e-02,1.86451e+02
1.58160e-02,1.75548e+02
1.61122e-02,1.65250e+02
1.64139e-02,1.55526e+02
1.67213e-02,1.46345e+02
1.70345e-02,1.37680e+02
1.73535e-02,1.29502e+02
1.76785e-02,1.21787e+02
1.80096e-02,1.14510e+02
1.83469e-02,1.07647e+02
1.86905e-02,1.01176e+02
1.90406e-02,9.50774e+01
1.93972e-02,8.93296e+01
1.97604e-02,8.39140e+01
2.01305e-02,7.88126e+01
2.05075e-02,7.40080e+01
2.08916e-02,6.94842e+01
2.12829e-02,6.52255e+01
2.16815e-02,6.12172e+01
2.20875e-02,5.74454e+01
2.25012e-02,5.38969e+01
2.29226e-02,5.05592e+01
2.33519e-02,4.74204e+01
2.37892e-02,4.44691e+01
2.42348e-02,4.16948e+01
2.46886e-02,3.90874e+01
2.51510e-02,3.66372e+01
2.56220e-02,3.43353e+01
2.61019e-02,3.21731e+01
2.65907e-02,3.01424e+01
2.70887e-02,2.82357e+01
2.75961e-02,2.64456e+01
2.81129e-02,2.47654e+01
2.86394e-02,2.31886e+01
2.91758e-02,2.17090e+01
2.97222e-02,2.03210e+01
3.02788e-02,1.90190e+01
3.08459e-02,1.77979e+01
3.14236e-02,1.66530e+01
3.20121e-02,1.55795e+01
3.26116e-02,1.45733e+01
3.32224e-02,1.36302e+01
3.38446e-02,1.27464e+01
3.44784e-02,1.19183e+01
3.51242e-02,1.11425e+01
3.57820e-02,1.04159e+01
3.64521e-02,9.73530e+00
3.71348e-02,9.09799e+00
3.78303e-02,8.50128e+00
3.85388e-02,7.94263e+00
3.92605e-02,7.41971e+00
3.99958e-02,6.93028e+00
4.07449e-02,6.47225e+00
4.15079e-02,6.04367e+00
4.22853e-02,5.64269e+00
4.30773e-02,5.26757e+00
4.38840e-02,4.91668e+00
4.47059e-02,4.58851e+00
4.55432e-02,4.28160e+00
4.63961e-02,3.99462e+00
4.72650e-02,3.72629e+00
4.81502e-02,3.47543e+00
4.90520e-02,3.24093e+00
4.99706e-02,3.02174e+00
5.09065e-02,2.81689e+00
5.18599e-02,2.62544e+00
5.28311e-02,2.44654e+00
5.38206e-02,2.27938e+00
5.48285e-02,2.12321e+00
5.58554e-02,1.97732e+00
5.69015e-02,1.84103e+00
5.79671e-02,1.71373e+00
5.90528e-02,1.59483e+00
6.01587e-02,1.48380e+00
6.12854e-02,1.38010e+00
6.24332e-02,1.28328e+00
6.36024e-02,1.19287e+00
6.47936e-02,1.10847e+00
6.60071e-02,1.02966e+00
6.72433e-02,9.56101e-01
6.85026e-02,8.87433e-01
6.97856e-02,8.23337e-01
7.10925e-02,7.63514e-01
7.24240e-02,7.07682e-01
7.37803e-02,6.55576e-01
7.51621e-02,6.06952e-01
7.65698e-02,5.61579e-01
7.80038e-02,5.19242e-01
7.94647e-02,4.79740e-01
8.09529e-02,4.42885e-01
8.24690e-02,4.08501e-01
8.40135e-02,3.76424e-01
8.55870e-02,3.46500e-01
8.71899e-02,3.18587e-01
8.88228e-02,2.92550e-01
9.04863e-02,2.68264e-01
9.21809e-02,2.45613e-01
9.39073e-02,2.24487e-01
9.56660e-02,2.04784e-01
9.74577e-02,1.86409e-01
9.92829e-02,1.69274e-01
1.01142e-01,1.53294e-01
1.03037e-01,1.38394e-01
1.04966e-01,1.24499e-01
1.06932e-01,1.11544e-01
1.08935e-01,9.94641e-02
1.10975e-01,8.82013e-02
1.13053e-01,7.77005e-02
1.15171e-01,6.79104e-02
1.17328e-01,5.87832e-02
1.19525e-01,5.02742e-02
1.21763e-01,4.23417e-02
1.24044e-01,3.49470e-02
1.26367e-01,2.80536e-02
1.28734e-01,2.16278e-02
1.31144e-01,1.56381e-02
1.33601e-01,1.00549e-02
1.36103e-01,4.85071e-03
1.38652e-01,0.00000e+00
