m1=400668.964, m2=25.005, gsp=2.452, rhosp=146.427
fGW[Hz],dPh[rad]
1.51306e-03,6.99947e+04
1.52820e-03,6.75522e+04
1.54349e-03,6.51935e+04
1.55894e-03,6.29159e+04
1.57454e-03,6.07166e+04
1.59029e-03,5.85931e+04
1.60621e-03,5.65426e+04
1.62228e-03,5.45629e+04
1.63851e-03,5.26515e+04
1.65491e-03,5.08060e+04
1.67147e-03,4.90243e+04
1.68820e-03,4.73042e+04
1.70509e-03,4.56436e+04
1.72215e-03,4.40405e+04
1.73939e-03,4.24929e+04
1.75679e-03,4.09989e+04
1.77437e-03,3.95568e+04
1.79213e-03,3.81647e+04
1.81006e-03,3.68209e+04
1.82817e-03,3.55239e+04
1.84647e-03,3.42719e+04
1.86494e-03,3.30635e+04
1.88361e-03,3.18972e+04
1.90245e-03,3.07715e+04
1.92149e-03,2.96850e+04
1.94072e-03,2.86364e+04
1.96014e-03,2.76244e+04
1.97976e-03,2.66477e+04
1.99957e-03,2.57052e+04
2.01958e-03,2.47955e+04
2.03978e-03,2.39177e+04
2.06020e-03,2.30706e+04
2.08081e-03,2.22531e+04
2.10163e-03,2.14643e+04
2.12267e-03,2.07031e+04
2.14391e-03,1.99686e+04
2.16536e-03,1.92598e+04
2.18703e-03,1.85760e+04
2.20891e-03,1.79161e+04
2.23102e-03,1.72794e+04
2.25334e-03,1.66650e+04
2.27589e-03,1.60723e+04
2.29867e-03,1.55004e+04
2.32167e-03,1.49486e+04
2.34490e-03,1.44163e+04
2.36836e-03,1.39027e+04
2.39206e-03,1.34072e+04
2.41600e-03,1.29291e+04
2.44018e-03,1.24679e+04
2.46460e-03,1.20230e+04
2.48926e-03,1.15938e+04
2.51417e-03,1.11797e+04
2.53933e-03,1.07802e+04
2.56474e-03,1.03949e+04
2.59040e-03,1.00231e+04
2.61632e-03,9.66453e+03
2.64250e-03,9.31862e+03
2.66895e-03,8.98494e+03
2.69565e-03,8.66307e+03
2.72263e-03,8.35259e+03
2.74987e-03,8.05311e+03
2.77739e-03,7.76424e+03
2.80518e-03,7.48560e+03
2.83326e-03,7.21684e+03
2.86161e-03,6.95761e+03
2.89024e-03,6.70757e+03
2.91916e-03,6.46640e+03
2.94838e-03,6.23379e+03
2.97788e-03,6.00944e+03
3.00768e-03,5.79305e+03
3.03778e-03,5.58435e+03
3.06817e-03,5.38307e+03
3.09888e-03,5.18894e+03
3.12989e-03,5.00171e+03
3.16121e-03,4.82114e+03
3.19284e-03,4.64699e+03
3.22479e-03,4.47904e+03
3.25706e-03,4.31706e+03
3.28965e-03,4.16085e+03
3.32257e-03,4.01020e+03
3.35582e-03,3.86492e+03
3.38940e-03,3.72481e+03
3.42332e-03,3.58969e+03
3.45757e-03,3.45939e+03
3.49217e-03,3.33374e+03
3.52712e-03,3.21256e+03
3.56241e-03,3.09571e+03
3.59806e-03,2.98302e+03
3.63407e-03,2.87436e+03
3.67043e-03,2.76957e+03
3.70716e-03,2.66852e+03
3.74426e-03,2.57108e+03
3.78173e-03,2.47712e+03
3.81957e-03,2.38652e+03
3.85779e-03,2.29915e+03
3.89639e-03,2.21491e+03
3.93538e-03,2.13367e+03
3.97476e-03,2.05534e+03
4.01454e-03,1.97981e+03
4.05471e-03,1.90698e+03
4.09529e-03,1.83675e+03
4.13627e-03,1.76904e+03
4.17766e-03,1.70375e+03
4.21946e-03,1.64079e+03
4.26169e-03,1.58009e+03
4.30433e-03,1.52156e+03
4.34740e-03,1.46513e+03
4.39091e-03,1.41071e+03
4.43485e-03,1.35825e+03
4.47922e-03,1.30766e+03
4.52405e-03,1.25889e+03
4.56932e-03,1.21186e+03
4.61504e-03,1.16652e+03
4.66122e-03,1.12280e+03
4.70787e-03,1.08066e+03
4.75498e-03,1.04002e+03
4.80256e-03,1.00084e+03
4.85062e-03,9.63060e+02
4.89916e-03,9.26638e+02
4.94818e-03,8.91523e+02
4.99770e-03,8.57667e+02
5.04771e-03,8.25026e+02
5.09822e-03,7.93556e+02
5.14924e-03,7.63216e+02
5.20076e-03,7.33964e+02
5.25281e-03,7.05763e+02
5.30537e-03,6.78574e+02
5.35846e-03,6.52361e+02
5.41208e-03,6.27089e+02
5.46624e-03,6.02725e+02
5.52094e-03,5.79235e+02
5.57618e-03,5.56590e+02
5.63198e-03,5.34758e+02
5.68834e-03,5.13710e+02
5.74526e-03,4.93419e+02
5.80275e-03,4.73857e+02
5.86082e-03,4.54997e+02
5.91947e-03,4.36816e+02
5.97870e-03,4.19288e+02
6.03853e-03,4.02390e+02
6.09896e-03,3.86100e+02
6.15999e-03,3.70395e+02
6.22163e-03,3.55255e+02
6.28389e-03,3.40660e+02
6.34677e-03,3.26589e+02
6.41028e-03,3.13025e+02
6.47443e-03,2.99948e+02
6.53922e-03,2.87342e+02
6.60465e-03,2.75190e+02
6.67074e-03,2.63474e+02
6.73750e-03,2.52181e+02
6.80492e-03,2.41293e+02
6.87301e-03,2.30798e+02
6.94179e-03,2.20680e+02
7.01125e-03,2.10926e+02
7.08141e-03,2.01524e+02
7.15227e-03,1.92459e+02
7.22385e-03,1.83722e+02
7.29613e-03,1.75299e+02
7.36914e-03,1.67179e+02
7.44289e-03,1.59351e+02
7.51736e-03,1.51806e+02
7.59259e-03,1.44532e+02
7.66857e-03,1.37520e+02
7.74530e-03,1.30760e+02
7.82281e-03,1.24245e+02
7.90109e-03,1.17963e+02
7.98016e-03,1.11908e+02
8.06001e-03,1.06072e+02
8.14067e-03,1.00445e+02
8.22213e-03,9.50216e+01
8.30440e-03,8.97933e+01
8.38750e-03,8.47534e+01
8.47144e-03,7.98951e+01
8.55621e-03,7.52120e+01
8.64183e-03,7.06976e+01
8.72830e-03,6.63459e+01
8.81565e-03,6.21511e+01
8.90386e-03,5.81075e+01
8.99296e-03,5.42096e+01
9.08295e-03,5.04523e+01
9.17384e-03,4.68304e+01
9.26564e-03,4.33391e+01
9.35836e-03,3.99737e+01
9.45201e-03,3.67296e+01
9.54659e-03,3.36026e+01
9.64212e-03,3.05882e+01
9.73861e-03,2.76826e+01
9.83606e-03,2.48818e+01
9.93449e-03,2.21820e+01
1.00339e-02,1.95795e+01
1.01343e-02,1.70709e+01
1.02357e-02,1.46528e+01
1.03381e-02,1.23219e+01
1.04416e-02,1.00751e+01
1.05461e-02,7.90937e+00
1.06516e-02,5.82175e+00
1.07582e-02,3.80944e+00
1.08659e-02,1.86973e+00
1.09746e-02,0.00000e+00
