m1=2227.165, m2=63.450, gsp=2.422, rhosp=241.640
fGW[Hz],dPh[rad]
3.92179e-03,5.41675e+03
4.04662e-03,5.07923e+03
4.17543e-03,4.76274e+03
4.30833e-03,4.46597e+03
4.44547e-03,4.18768e+03
4.58697e-03,3.92672e+03
4.73297e-03,3.68202e+03
4.88362e-03,3.45256e+03
5.03906e-03,3.23740e+03
5.19946e-03,3.03564e+03
5.36496e-03,2.84644e+03
5.53572e-03,2.66903e+03
5.71193e-03,2.50268e+03
5.89374e-03,2.34668e+03
6.08133e-03,2.20041e+03
6.27490e-03,2.06324e+03
6.47463e-03,1.93462e+03
6.68072e-03,1.81402e+03
6.89337e-03,1.70092e+03
7.11279e-03,1.59488e+03
7.33919e-03,1.49544e+03
7.57279e-03,1.40219e+03
7.81383e-03,1.31475e+03
8.06255e-03,1.23277e+03
8.31918e-03,1.15589e+03
8.58398e-03,1.08380e+03
8.85721e-03,1.01620e+03
9.13913e-03,9.52811e+02
9.43003e-03,8.93374e+02
9.73019e-03,8.37641e+02
1.00399e-02,7.85381e+02
1.03595e-02,7.36377e+02
1.06892e-02,6.90426e+02
1.10295e-02,6.47340e+02
1.13805e-02,6.06938e+02
1.17428e-02,5.69054e+02
1.21165e-02,5.33532e+02
1.25022e-02,5.00223e+02
1.29001e-02,4.68990e+02
1.33108e-02,4.39704e+02
1.37344e-02,4.12244e+02
1.41716e-02,3.86495e+02
1.46227e-02,3.62351e+02
1.50881e-02,3.39713e+02
1.55684e-02,3.18486e+02
1.60639e-02,2.98582e+02
1.65752e-02,2.79919e+02
1.71028e-02,2.62420e+02
1.76472e-02,2.46012e+02
1.82089e-02,2.30627e+02
1.87885e-02,2.16202e+02
1.93866e-02,2.02677e+02
2.00036e-02,1.89995e+02
2.06404e-02,1.78104e+02
2.12973e-02,1.66954e+02
2.19752e-02,1.56501e+02
2.26747e-02,1.46699e+02
2.33964e-02,1.37510e+02
2.41411e-02,1.28893e+02
2.49096e-02,1.20815e+02
2.57024e-02,1.13240e+02
2.65205e-02,1.06139e+02
2.73647e-02,9.94804e+01
2.82357e-02,9.32379e+01
2.91344e-02,8.73851e+01
3.00618e-02,8.18979e+01
3.10187e-02,7.67533e+01
3.20060e-02,7.19302e+01
3.30247e-02,6.74083e+01
3.40759e-02,6.31690e+01
3.51606e-02,5.91947e+01
3.62797e-02,5.54687e+01
3.74345e-02,5.19757e+01
3.86260e-02,4.87011e+01
3.98555e-02,4.56313e+01
4.11241e-02,4.27535e+01
4.24331e-02,4.00557e+01
4.37837e-02,3.75268e+01
4.51774e-02,3.51561e+01
4.66154e-02,3.29339e+01
4.80991e-02,3.08508e+01
4.96301e-02,2.88983e+01
5.12099e-02,2.70680e+01
5.28399e-02,2.53525e+01
5.45218e-02,2.37445e+01
5.62572e-02,2.22373e+01
5.80479e-02,2.08247e+01
5.98955e-02,1.95008e+01
6.18020e-02,1.82599e+01
6.37692e-02,1.70970e+01
6.57989e-02,1.60071e+01
6.78933e-02,1.49858e+01
7.00544e-02,1.40286e+01
7.22842e-02,1.31317e+01
7.45850e-02,1.22912e+01
7.69591e-02,1.15036e+01
7.94087e-02,1.07657e+01
8.19362e-02,1.00742e+01
8.45443e-02,9.42641e+00
8.72353e-02,8.81946e+00
9.00120e-02,8.25083e+00
9.28771e-02,7.71812e+00
9.58334e-02,7.21910e+00
9.88838e-02,6.75164e+00
1.02031e-01,6.31379e+00
1.05279e-01,5.90367e+00
1.08630e-01,5.51957e+00
1.12088e-01,5.15984e+00
1.15655e-01,4.82296e+00
1.19337e-01,4.50750e+00
1.23135e-01,4.21211e+00
1.27055e-01,3.93554e+00
1.31099e-01,3.67661e+00
1.35272e-01,3.43421e+00
1.39577e-01,3.20729e+00
1.44020e-01,2.99490e+00
1.48604e-01,2.79611e+00
1.53334e-01,2.61007e+00
1.58215e-01,2.43599e+00
1.63251e-01,2.27310e+00
1.68447e-01,2.12070e+00
1.73809e-01,1.97813e+00
1.79341e-01,1.84477e+00
1.85050e-01,1.72005e+00
1.90940e-01,1.60341e+00
1.97017e-01,1.49434e+00
2.03288e-01,1.39238e+00
2.09759e-01,1.29706e+00
2.16436e-01,1.20796e+00
2.23325e-01,1.12470e+00
2.30433e-01,1.04690e+00
2.37768e-01,9.74216e-01
2.45336e-01,9.06323e-01
2.53145e-01,8.42915e-01
2.61203e-01,7.83707e-01
2.69517e-01,7.28432e-01
2.78096e-01,6.76837e-01
2.86947e-01,6.28689e-01
2.96081e-01,5.83766e-01
3.05505e-01,5.41861e-01
3.15229e-01,5.02781e-01
3.25263e-01,4.66343e-01
3.35616e-01,4.32379e-01
3.46299e-01,4.00727e-01
3.57322e-01,3.71239e-01
3.68695e-01,3.43774e-01
3.80431e-01,3.18201e-01
3.92540e-01,2.94396e-01
4.05035e-01,2.72244e-01
4.17927e-01,2.51638e-01
4.31229e-01,2.32475e-01
4.44955e-01,2.14660e-01
4.59118e-01,1.98105e-01
4.73732e-01,1.82727e-01
4.88811e-01,1.68446e-01
5.04370e-01,1.55190e-01
5.20424e-01,1.42891e-01
5.36989e-01,1.31484e-01
5.54082e-01,1.20908e-01
5.71718e-01,1.11109e-01
5.89916e-01,1.02032e-01
6.08693e-01,9.36284e-02
6.28067e-01,8.58524e-02
6.48059e-01,7.86603e-02
6.68687e-01,7.20119e-02
6.89971e-01,6.58690e-02
7.11933e-01,6.01964e-02
7.34594e-01,5.49608e-02
7.57976e-01,5.01313e-02
7.82102e-01,4.56788e-02
8.06996e-01,4.15764e-02
8.32683e-01,3.77987e-02
8.59187e-01,3.43221e-02
8.86535e-01,3.11245e-02
9.14754e-01,2.81854e-02
9.43870e-01,2.54855e-02
9.73914e-01,2.30070e-02
1.00491e+00,2.07331e-02
1.03690e+00,1.86482e-02
1.06990e+00,1.67380e-02
1.10396e+00,1.49889e-02
1.13910e+00,1.33884e-02
1.17536e+00,1.19248e-02
1.21277e+00,1.05873e-02
1.25137e+00,9.36583e-03
1.29120e+00,8.25109e-03
1.33230e+00,7.23443e-03
1.37471e+00,6.30781e-03
1.41846e+00,5.46383e-03
1.46361e+00,4.69562e-03
1.51020e+00,3.99683e-03
1.55827e+00,3.36160e-03
1.60787e+00,2.78452e-03
1.65905e+00,2.26059e-03
1.71186e+00,1.78523e-03
1.76634e+00,1.35419e-03
1.82257e+00,9.63584e-04
1.88058e+00,6.09830e-04
1.94044e+00,2.89641e-04
2.00220e+00,0.00000e+00
