m1=258474.633, m2=14.460, gsp=2.356, rhosp=5882.399
fGW[Hz],dPh[rad]
2.07323e-03,4.57002e+04
2.09527e-03,4.39884e+04
2.11755e-03,4.23395e+04
2.14007e-03,4.07514e+04
2.16282e-03,3.92219e+04
2.18582e-03,3.77488e+04
2.20906e-03,3.63301e+04
2.23255e-03,3.49640e+04
2.25629e-03,3.36484e+04
2.28028e-03,3.23815e+04
2.30453e-03,3.11616e+04
2.32903e-03,2.99869e+04
2.35380e-03,2.88559e+04
2.37882e-03,2.77669e+04
2.40412e-03,2.67184e+04
2.42968e-03,2.57089e+04
2.45552e-03,2.47370e+04
2.48163e-03,2.38013e+04
2.50801e-03,2.29006e+04
2.53468e-03,2.20334e+04
2.56163e-03,2.11987e+04
2.58887e-03,2.03952e+04
2.61640e-03,1.96217e+04
2.64422e-03,1.88772e+04
2.67234e-03,1.81605e+04
2.70075e-03,1.74707e+04
2.72947e-03,1.68068e+04
2.75849e-03,1.61678e+04
2.78782e-03,1.55529e+04
2.81746e-03,1.49610e+04
2.84742e-03,1.43913e+04
2.87770e-03,1.38431e+04
2.90830e-03,1.33156e+04
2.93922e-03,1.28079e+04
2.97048e-03,1.23193e+04
3.00206e-03,1.18492e+04
3.03398e-03,1.13968e+04
3.06624e-03,1.09615e+04
3.09885e-03,1.05426e+04
3.13180e-03,1.01396e+04
3.16510e-03,9.75175e+03
3.19875e-03,9.37862e+03
3.23276e-03,9.01961e+03
3.26714e-03,8.67420e+03
3.30188e-03,8.34187e+03
3.33699e-03,8.02214e+03
3.37247e-03,7.71454e+03
3.40833e-03,7.41860e+03
3.44457e-03,7.13390e+03
3.48120e-03,6.86002e+03
3.51821e-03,6.59654e+03
3.55562e-03,6.34307e+03
3.59343e-03,6.09924e+03
3.63164e-03,5.86469e+03
3.67025e-03,5.63907e+03
3.70928e-03,5.42203e+03
3.74872e-03,5.21327e+03
3.78858e-03,5.01246e+03
3.82887e-03,4.81930e+03
3.86958e-03,4.63351e+03
3.91072e-03,4.45481e+03
3.95231e-03,4.28293e+03
3.99433e-03,4.11761e+03
4.03680e-03,3.95860e+03
4.07973e-03,3.80567e+03
4.12311e-03,3.65858e+03
4.16695e-03,3.51712e+03
4.21126e-03,3.38107e+03
4.25604e-03,3.25022e+03
4.30129e-03,3.12439e+03
4.34703e-03,3.00336e+03
4.39325e-03,2.88698e+03
4.43996e-03,2.77505e+03
4.48717e-03,2.66741e+03
4.53489e-03,2.56390e+03
4.58311e-03,2.46435e+03
4.63184e-03,2.36863e+03
4.68109e-03,2.27657e+03
4.73086e-03,2.18805e+03
4.78117e-03,2.10293e+03
4.83201e-03,2.02108e+03
4.88338e-03,1.94237e+03
4.93531e-03,1.86668e+03
4.98779e-03,1.79390e+03
5.04082e-03,1.72392e+03
5.09442e-03,1.65663e+03
5.14859e-03,1.59193e+03
5.20334e-03,1.52972e+03
5.25866e-03,1.46990e+03
5.31458e-03,1.41238e+03
5.37109e-03,1.35708e+03
5.42820e-03,1.30390e+03
5.48592e-03,1.25278e+03
5.54425e-03,1.20362e+03
5.60320e-03,1.15636e+03
5.66278e-03,1.11092e+03
5.72300e-03,1.06723e+03
5.78385e-03,1.02522e+03
5.84535e-03,9.84835e+02
5.90750e-03,9.46007e+02
5.97032e-03,9.08677e+02
6.03380e-03,8.72787e+02
6.09796e-03,8.38282e+02
6.16280e-03,8.05109e+02
6.22833e-03,7.73216e+02
6.29456e-03,7.42555e+02
6.36149e-03,7.13079e+02
6.42913e-03,6.84740e+02
6.49749e-03,6.57497e+02
6.56658e-03,6.31306e+02
6.63640e-03,6.06127e+02
6.70697e-03,5.81922e+02
6.77828e-03,5.58652e+02
6.85036e-03,5.36282e+02
6.92320e-03,5.14777e+02
6.99681e-03,4.94103e+02
7.07121e-03,4.74230e+02
7.14640e-03,4.55125e+02
7.22239e-03,4.36759e+02
7.29918e-03,4.19105e+02
7.37679e-03,4.02133e+02
7.45523e-03,3.85819e+02
7.53450e-03,3.70136e+02
7.61462e-03,3.55060e+02
7.69559e-03,3.40568e+02
7.77741e-03,3.26637e+02
7.86011e-03,3.13246e+02
7.94369e-03,3.00374e+02
8.02816e-03,2.88000e+02
8.11352e-03,2.76106e+02
8.19979e-03,2.64673e+02
8.28698e-03,2.53683e+02
8.37510e-03,2.43119e+02
8.46415e-03,2.32965e+02
8.55415e-03,2.23204e+02
8.64511e-03,2.13822e+02
8.73703e-03,2.04803e+02
8.82993e-03,1.96134e+02
8.92382e-03,1.87802e+02
9.01871e-03,1.79793e+02
9.11461e-03,1.72094e+02
9.21152e-03,1.64694e+02
9.30947e-03,1.57581e+02
9.40846e-03,1.50745e+02
9.50850e-03,1.44173e+02
9.60960e-03,1.37857e+02
9.71178e-03,1.31786e+02
9.81505e-03,1.25951e+02
9.91941e-03,1.20342e+02
1.00249e-02,1.14951e+02
1.01315e-02,1.09769e+02
1.02392e-02,1.04788e+02
1.03481e-02,1.00001e+02
1.04581e-02,9.53999e+01
1.05693e-02,9.09774e+01
1.06817e-02,8.67268e+01
1.07953e-02,8.26412e+01
1.09101e-02,7.87144e+01
1.10261e-02,7.49402e+01
1.11433e-02,7.13126e+01
1.12618e-02,6.78259e+01
1.13816e-02,6.44748e+01
1.15026e-02,6.12539e+01
1.16249e-02,5.81582e+01
1.17485e-02,5.51829e+01
1.18734e-02,5.23232e+01
1.19997e-02,4.95746e+01
1.21273e-02,4.69330e+01
1.22562e-02,4.43940e+01
1.23865e-02,4.19538e+01
1.25182e-02,3.96084e+01
1.26513e-02,3.73542e+01
1.27859e-02,3.51877e+01
1.29218e-02,3.31055e+01
1.30592e-02,3.11043e+01
1.31981e-02,2.91808e+01
1.33384e-02,2.73323e+01
1.34802e-02,2.55556e+01
1.36236e-02,2.38480e+01
1.37684e-02,2.22069e+01
1.39148e-02,2.06296e+01
1.40628e-02,1.91136e+01
1.42123e-02,1.76567e+01
1.43634e-02,1.62565e+01
1.45162e-02,1.49107e+01
1.46705e-02,1.36173e+01
1.48265e-02,1.23743e+01
1.49842e-02,1.11796e+01
1.51435e-02,1.00314e+01
1.53045e-02,8.92790e+00
1.54673e-02,7.86736e+00
1.56317e-02,6.84810e+00
1.57979e-02,5.86851e+00
1.59659e-02,4.92706e+00
1.61357e-02,4.02226e+00
1.63073e-02,3.15268e+00
1.64806e-02,2.31696e+00
1.66559e-02,1.51377e+00
1.68330e-02,7.41858e-01
1.70120e-02,0.00000e+00
