m1=114519.663, m2=12.058, gsp=2.416, rhosp=7409.136
fGW[Hz],dPh[rad]
2.72031e-03,2.65189e+05
2.75673e-03,2.53881e+05
2.79365e-03,2.43033e+05
2.83106e-03,2.32628e+05
2.86898e-03,2.22649e+05
2.90740e-03,2.13080e+05
2.94633e-03,2.03904e+05
2.98579e-03,1.95107e+05
3.02577e-03,1.86673e+05
3.06629e-03,1.78589e+05
3.10735e-03,1.70840e+05
3.14897e-03,1.63415e+05
3.19114e-03,1.56299e+05
3.23387e-03,1.49481e+05
3.27718e-03,1.42949e+05
3.32107e-03,1.36692e+05
3.36554e-03,1.30698e+05
3.41061e-03,1.24958e+05
3.45628e-03,1.19460e+05
3.50257e-03,1.14196e+05
3.54947e-03,1.09155e+05
3.59701e-03,1.04330e+05
3.64518e-03,9.97099e+04
3.69399e-03,9.52879e+04
3.74346e-03,9.10555e+04
3.79359e-03,8.70049e+04
3.84439e-03,8.31287e+04
3.89588e-03,7.94197e+04
3.94805e-03,7.58711e+04
4.00092e-03,7.24762e+04
4.05450e-03,6.92285e+04
4.10879e-03,6.61221e+04
4.16382e-03,6.31510e+04
4.21958e-03,6.03095e+04
4.27609e-03,5.75923e+04
4.33335e-03,5.49940e+04
4.39138e-03,5.25098e+04
4.45019e-03,5.01347e+04
4.50978e-03,4.78642e+04
4.57018e-03,4.56939e+04
4.63138e-03,4.36194e+04
4.69340e-03,4.16367e+04
4.75625e-03,3.97419e+04
4.81995e-03,3.79313e+04
4.88449e-03,3.62011e+04
4.94991e-03,3.45479e+04
5.01619e-03,3.29685e+04
5.08337e-03,3.14597e+04
5.15144e-03,3.00183e+04
5.22043e-03,2.86415e+04
5.29034e-03,2.73265e+04
5.36118e-03,2.60705e+04
5.43298e-03,2.48711e+04
5.50574e-03,2.37257e+04
5.57947e-03,2.26319e+04
5.65419e-03,2.15876e+04
5.72990e-03,2.05905e+04
5.80664e-03,1.96385e+04
5.88440e-03,1.87297e+04
5.96320e-03,1.78622e+04
6.04306e-03,1.70341e+04
6.12398e-03,1.62437e+04
6.20599e-03,1.54893e+04
6.28910e-03,1.47693e+04
6.37332e-03,1.40822e+04
6.45867e-03,1.34265e+04
6.54516e-03,1.28008e+04
6.63281e-03,1.22038e+04
6.72164e-03,1.16341e+04
6.81165e-03,1.10906e+04
6.90287e-03,1.05721e+04
6.99531e-03,1.00774e+04
7.08899e-03,9.60556e+03
7.18392e-03,9.15543e+03
7.28013e-03,8.72607e+03
7.37762e-03,8.31653e+03
7.47642e-03,7.92593e+03
7.57654e-03,7.55339e+03
7.67800e-03,7.19811e+03
7.78082e-03,6.85929e+03
7.88502e-03,6.53618e+03
7.99062e-03,6.22807e+03
8.09762e-03,5.93428e+03
8.20606e-03,5.65415e+03
8.31596e-03,5.38705e+03
8.42732e-03,5.13240e+03
8.54018e-03,4.88961e+03
8.65454e-03,4.65814e+03
8.77044e-03,4.43748e+03
8.88789e-03,4.22712e+03
9.00691e-03,4.02659e+03
9.12753e-03,3.83545e+03
9.24976e-03,3.65324e+03
9.37363e-03,3.47958e+03
9.49916e-03,3.31405e+03
9.62637e-03,3.15628e+03
9.75528e-03,3.00591e+03
9.88592e-03,2.86261e+03
1.00183e-02,2.72603e+03
1.01525e-02,2.59588e+03
1.02884e-02,2.47185e+03
1.04262e-02,2.35365e+03
1.05658e-02,2.24102e+03
1.07073e-02,2.13370e+03
1.08507e-02,2.03143e+03
1.09960e-02,1.93399e+03
1.11433e-02,1.84114e+03
1.12925e-02,1.75268e+03
1.14437e-02,1.66840e+03
1.15970e-02,1.58809e+03
1.17523e-02,1.51159e+03
1.19097e-02,1.43870e+03
1.20692e-02,1.36926e+03
1.22308e-02,1.30311e+03
1.23946e-02,1.24010e+03
1.25606e-02,1.18006e+03
1.27288e-02,1.12288e+03
1.28992e-02,1.06840e+03
1.30720e-02,1.01651e+03
1.32470e-02,9.67081e+02
1.34244e-02,9.19999e+02
1.36042e-02,8.75153e+02
1.37864e-02,8.32438e+02
1.39710e-02,7.91752e+02
1.41581e-02,7.53001e+02
1.43477e-02,7.16093e+02
1.45398e-02,6.80941e+02
1.47345e-02,6.47461e+02
1.49319e-02,6.15576e+02
1.51318e-02,5.85208e+02
1.53345e-02,5.56288e+02
1.55398e-02,5.28745e+02
1.57479e-02,5.02515e+02
1.59588e-02,4.77536e+02
1.61725e-02,4.53748e+02
1.63891e-02,4.31095e+02
1.66086e-02,4.09523e+02
1.68310e-02,3.88980e+02
1.70564e-02,3.69419e+02
1.72848e-02,3.50791e+02
1.75163e-02,3.33053e+02
1.77508e-02,3.16163e+02
1.79886e-02,3.00080e+02
1.82295e-02,2.84766e+02
1.84736e-02,2.70184e+02
1.87210e-02,2.56299e+02
1.89717e-02,2.43078e+02
1.92257e-02,2.30490e+02
1.94832e-02,2.18505e+02
1.97441e-02,2.07093e+02
2.00085e-02,1.96227e+02
2.02765e-02,1.85882e+02
2.05480e-02,1.76032e+02
2.08232e-02,1.66654e+02
2.11020e-02,1.57725e+02
2.13846e-02,1.49224e+02
2.16710e-02,1.41131e+02
2.19612e-02,1.33426e+02
2.22553e-02,1.26089e+02
2.25533e-02,1.19105e+02
2.28554e-02,1.12456e+02
2.31614e-02,1.06126e+02
2.34716e-02,1.00099e+02
2.37859e-02,9.43616e+01
2.41045e-02,8.88995e+01
2.44273e-02,8.36996e+01
2.47544e-02,7.87492e+01
2.50859e-02,7.40366e+01
2.54218e-02,6.95502e+01
2.57623e-02,6.52793e+01
2.61073e-02,6.12136e+01
2.64569e-02,5.73431e+01
2.68112e-02,5.36586e+01
2.71702e-02,5.01511e+01
2.75341e-02,4.68122e+01
2.79028e-02,4.36337e+01
2.82765e-02,4.06080e+01
2.86551e-02,3.77278e+01
2.90389e-02,3.49860e+01
2.94278e-02,3.23760e+01
2.98218e-02,2.98916e+01
3.02212e-02,2.75266e+01
3.06259e-02,2.52754e+01
3.10360e-02,2.31325e+01
3.14517e-02,2.10927e+01
3.18729e-02,1.91509e+01
3.22997e-02,1.73027e+01
3.27322e-02,1.55433e+01
3.31706e-02,1.38687e+01
3.36148e-02,1.22746e+01
3.40649e-02,1.07572e+01
3.45211e-02,9.31291e+00
3.49834e-02,7.93813e+00
3.54519e-02,6.62953e+00
3.59267e-02,5.38394e+00
3.64078e-02,4.19833e+00
3.68953e-02,3.06981e+00
3.73894e-02,1.99563e+00
3.78901e-02,9.73194e-01
3.83975e-02,0.00000e+00
