m1=3512.905, m2=29.781, gsp=2.282, rhosp=188.744
fGW[Hz],dPh[rad]
4.63580e-03,1.51536e+03
4.76817e-03,1.42633e+03
4.90432e-03,1.34252e+03
5.04436e-03,1.26362e+03
5.18839e-03,1.18936e+03
5.33654e-03,1.11945e+03
5.48892e-03,1.05364e+03
5.64566e-03,9.91698e+02
5.80686e-03,9.33388e+02
5.97267e-03,8.78500e+02
6.14322e-03,8.26833e+02
6.31863e-03,7.78198e+02
6.49905e-03,7.32417e+02
6.68463e-03,6.89324e+02
6.87550e-03,6.48760e+02
7.07183e-03,6.10577e+02
7.27376e-03,5.74636e+02
7.48145e-03,5.40805e+02
7.69508e-03,5.08959e+02
7.91481e-03,4.78984e+02
8.14081e-03,4.50769e+02
8.37326e-03,4.24211e+02
8.61235e-03,3.99212e+02
8.85827e-03,3.75682e+02
9.11121e-03,3.53534e+02
9.37137e-03,3.32686e+02
9.63896e-03,3.13064e+02
9.91420e-03,2.94594e+02
1.01973e-02,2.77210e+02
1.04885e-02,2.60847e+02
1.07879e-02,2.45446e+02
1.10960e-02,2.30950e+02
1.14128e-02,2.17306e+02
1.17387e-02,2.04465e+02
1.20739e-02,1.92378e+02
1.24187e-02,1.81003e+02
1.27733e-02,1.70296e+02
1.31380e-02,1.60219e+02
1.35131e-02,1.50735e+02
1.38990e-02,1.41809e+02
1.42959e-02,1.33408e+02
1.47041e-02,1.25502e+02
1.51239e-02,1.18061e+02
1.55558e-02,1.11058e+02
1.60000e-02,1.04468e+02
1.64568e-02,9.82654e+01
1.69267e-02,9.24286e+01
1.74101e-02,8.69357e+01
1.79072e-02,8.17666e+01
1.84185e-02,7.69022e+01
1.89444e-02,7.23247e+01
1.94854e-02,6.80171e+01
2.00418e-02,6.39637e+01
2.06141e-02,6.01495e+01
2.12027e-02,5.65604e+01
2.18081e-02,5.31832e+01
2.24308e-02,5.00055e+01
2.30713e-02,4.70156e+01
2.37301e-02,4.42024e+01
2.44077e-02,4.15554e+01
2.51046e-02,3.90651e+01
2.58214e-02,3.67221e+01
2.65588e-02,3.45177e+01
2.73171e-02,3.24439e+01
2.80971e-02,3.04929e+01
2.88994e-02,2.86575e+01
2.97246e-02,2.69310e+01
3.05734e-02,2.53068e+01
3.14464e-02,2.37791e+01
3.23443e-02,2.23420e+01
3.32679e-02,2.09904e+01
3.42178e-02,1.97190e+01
3.51949e-02,1.85233e+01
3.61998e-02,1.73987e+01
3.72335e-02,1.63411e+01
3.82966e-02,1.53465e+01
3.93902e-02,1.44112e+01
4.05149e-02,1.35317e+01
4.16718e-02,1.27048e+01
4.28617e-02,1.19272e+01
4.40856e-02,1.11961e+01
4.53444e-02,1.05088e+01
4.66392e-02,9.86264e+00
4.79709e-02,9.25522e+00
4.93407e-02,8.68425e+00
5.07496e-02,8.14757e+00
5.21987e-02,7.64316e+00
5.36891e-02,7.16910e+00
5.52222e-02,6.72359e+00
5.67990e-02,6.30496e+00
5.84209e-02,5.91160e+00
6.00890e-02,5.54202e+00
6.18048e-02,5.19480e+00
6.35696e-02,4.86863e+00
6.53848e-02,4.56225e+00
6.72518e-02,4.27448e+00
6.91721e-02,4.00423e+00
7.11472e-02,3.75044e+00
7.31788e-02,3.51214e+00
7.52683e-02,3.28841e+00
7.74176e-02,3.07837e+00
7.96281e-02,2.88122e+00
8.19019e-02,2.69618e+00
8.42405e-02,2.52253e+00
8.66459e-02,2.35959e+00
8.91200e-02,2.20671e+00
9.16648e-02,2.06330e+00
9.42822e-02,1.92879e+00
9.69743e-02,1.80264e+00
9.97433e-02,1.68436e+00
1.02591e-01,1.57346e+00
1.05521e-01,1.46950e+00
1.08534e-01,1.37207e+00
1.11633e-01,1.28077e+00
1.14821e-01,1.19523e+00
1.18099e-01,1.11510e+00
1.21471e-01,1.04005e+00
1.24940e-01,9.69785e-01
1.28507e-01,9.03999e-01
1.32177e-01,8.42425e-01
1.35951e-01,7.84805e-01
1.39833e-01,7.30897e-01
1.43826e-01,6.80474e-01
1.47933e-01,6.33323e-01
1.52157e-01,5.89241e-01
1.56501e-01,5.48040e-01
1.60970e-01,5.09541e-01
1.65567e-01,4.73577e-01
1.70294e-01,4.39990e-01
1.75157e-01,4.08633e-01
1.80158e-01,3.79366e-01
1.85302e-01,3.52059e-01
1.90594e-01,3.26587e-01
1.96036e-01,3.02836e-01
2.01633e-01,2.80696e-01
2.07391e-01,2.60066e-01
2.13313e-01,2.40848e-01
2.19404e-01,2.22954e-01
2.25669e-01,2.06297e-01
2.32112e-01,1.90799e-01
2.38740e-01,1.76384e-01
2.45557e-01,1.62982e-01
2.52569e-01,1.50526e-01
2.59781e-01,1.38956e-01
2.67199e-01,1.28211e-01
2.74828e-01,1.18238e-01
2.82676e-01,1.08986e-01
2.90747e-01,1.00406e-01
2.99049e-01,9.24524e-02
3.07588e-01,8.50837e-02
3.16371e-01,7.82599e-02
3.25405e-01,7.19435e-02
3.34697e-01,6.60999e-02
3.44254e-01,6.06962e-02
3.54083e-01,5.57018e-02
3.64194e-01,5.10880e-02
3.74593e-01,4.68280e-02
3.85289e-01,4.28968e-02
3.96291e-01,3.92707e-02
4.07607e-01,3.59278e-02
4.19246e-01,3.28477e-02
4.31217e-01,3.00112e-02
4.43530e-01,2.74004e-02
4.56194e-01,2.49986e-02
4.69221e-01,2.27903e-02
4.82619e-01,2.07609e-02
4.96400e-01,1.88970e-02
5.10574e-01,1.71860e-02
5.25153e-01,1.56161e-02
5.40148e-01,1.41766e-02
5.55572e-01,1.28571e-02
5.71435e-01,1.16485e-02
5.87752e-01,1.05419e-02
6.04535e-01,9.52925e-03
6.21797e-01,8.60306e-03
6.39552e-01,7.75637e-03
6.57814e-01,6.98275e-03
6.76597e-01,6.27623e-03
6.95917e-01,5.63132e-03
7.15788e-01,5.04293e-03
7.36227e-01,4.50636e-03
7.57249e-01,4.01727e-03
7.78871e-01,3.57168e-03
8.01111e-01,3.16589e-03
8.23987e-01,2.79651e-03
8.47515e-01,2.46043e-03
8.71715e-01,2.15477e-03
8.96606e-01,1.87689e-03
9.22208e-01,1.62438e-03
9.48540e-01,1.39501e-03
9.75625e-01,1.18674e-03
1.00348e+00,9.97706e-04
1.03214e+00,8.26188e-04
1.06161e+00,6.70623e-04
1.09192e+00,5.29576e-04
1.12310e+00,4.01736e-04
1.15517e+00,2.85906e-04
1.18815e+00,1.80991e-04
1.22208e+00,8.59929e-05
1.25698e+00,0.00000e+00
