m1=199658.703, m2=81.796, gsp=2.040, rhosp=227.010
fGW[Hz],dPh[rad]
1.15475e-03,9.97662e+01
1.17198e-03,9.55248e+01
1.18948e-03,9.14528e+01
1.20723e-03,8.75438e+01
1.22525e-03,8.37917e+01
1.24354e-03,8.01905e+01
1.26210e-03,7.67347e+01
1.28094e-03,7.34187e+01
1.30006e-03,7.02372e+01
1.31946e-03,6.71852e+01
1.33916e-03,6.42577e+01
1.35915e-03,6.14500e+01
1.37943e-03,5.87576e+01
1.40002e-03,5.61759e+01
1.42092e-03,5.37007e+01
1.44213e-03,5.13280e+01
1.46366e-03,4.90538e+01
1.48550e-03,4.68743e+01
1.50768e-03,4.47858e+01
1.53018e-03,4.27847e+01
1.55302e-03,4.08677e+01
1.57620e-03,3.90315e+01
1.59973e-03,3.72728e+01
1.62361e-03,3.55887e+01
1.64784e-03,3.39762e+01
1.67244e-03,3.24325e+01
1.69740e-03,3.09547e+01
1.72274e-03,2.95404e+01
1.74845e-03,2.81870e+01
1.77455e-03,2.68919e+01
1.80104e-03,2.56530e+01
1.82792e-03,2.44678e+01
1.85521e-03,2.33343e+01
1.88290e-03,2.22503e+01
1.91100e-03,2.12139e+01
1.93953e-03,2.02230e+01
1.96848e-03,1.92758e+01
1.99786e-03,1.83706e+01
2.02768e-03,1.75055e+01
2.05794e-03,1.66789e+01
2.08866e-03,1.58893e+01
2.11984e-03,1.51350e+01
2.15148e-03,1.44147e+01
2.18359e-03,1.37268e+01
2.21619e-03,1.30700e+01
2.24927e-03,1.24430e+01
2.28284e-03,1.18445e+01
2.31692e-03,1.12734e+01
2.35150e-03,1.07284e+01
2.38660e-03,1.02084e+01
2.42222e-03,9.71233e+00
2.45838e-03,9.23921e+00
2.49507e-03,8.78801e+00
2.53231e-03,8.35778e+00
2.57011e-03,7.94760e+00
2.60847e-03,7.55660e+00
2.64741e-03,7.18393e+00
2.68693e-03,6.82879e+00
2.72703e-03,6.49040e+00
2.76774e-03,6.16802e+00
2.80905e-03,5.86093e+00
2.85098e-03,5.56845e+00
2.89353e-03,5.28993e+00
2.93672e-03,5.02473e+00
2.98056e-03,4.77226e+00
3.02505e-03,4.53194e+00
3.07020e-03,4.30321e+00
3.11603e-03,4.08555e+00
3.16254e-03,3.87845e+00
3.20974e-03,3.68142e+00
3.25765e-03,3.49401e+00
3.30628e-03,3.31576e+00
3.35563e-03,3.14625e+00
3.40572e-03,2.98507e+00
3.45655e-03,2.83184e+00
3.50814e-03,2.68618e+00
3.56051e-03,2.54774e+00
3.61365e-03,2.41617e+00
3.66759e-03,2.29115e+00
3.72234e-03,2.17238e+00
3.77790e-03,2.05954e+00
3.83429e-03,1.95237e+00
3.89152e-03,1.85058e+00
3.94961e-03,1.75392e+00
4.00856e-03,1.66214e+00
4.06839e-03,1.57501e+00
4.12912e-03,1.49230e+00
4.19075e-03,1.41379e+00
4.25331e-03,1.33928e+00
4.31679e-03,1.26858e+00
4.38123e-03,1.20150e+00
4.44662e-03,1.13786e+00
4.51299e-03,1.07749e+00
4.58036e-03,1.02022e+00
4.64872e-03,9.65916e-01
4.71811e-03,9.14416e-01
4.78854e-03,8.65583e-01
4.86001e-03,8.19286e-01
4.93256e-03,7.75396e-01
5.00618e-03,7.33792e-01
5.08091e-03,6.94361e-01
5.15675e-03,6.56991e-01
5.23372e-03,6.21579e-01
5.31184e-03,5.88025e-01
5.39112e-03,5.56235e-01
5.47159e-03,5.26119e-01
5.55327e-03,4.97592e-01
5.63616e-03,4.70572e-01
5.72028e-03,4.44982e-01
5.80567e-03,4.20748e-01
5.89232e-03,3.97800e-01
5.98027e-03,3.76073e-01
6.06954e-03,3.55503e-01
6.16014e-03,3.36029e-01
6.25208e-03,3.17596e-01
6.34540e-03,3.00149e-01
6.44012e-03,2.83636e-01
6.53625e-03,2.68008e-01
6.63381e-03,2.53220e-01
6.73283e-03,2.39227e-01
6.83332e-03,2.25988e-01
6.93532e-03,2.13462e-01
7.03884e-03,2.01613e-01
7.14391e-03,1.90404e-01
7.25054e-03,1.79802e-01
7.35876e-03,1.69774e-01
7.46860e-03,1.60290e-01
7.58008e-03,1.51321e-01
7.69323e-03,1.42840e-01
7.80806e-03,1.34821e-01
7.92460e-03,1.27238e-01
8.04289e-03,1.20069e-01
8.16294e-03,1.13291e-01
8.28478e-03,1.06884e-01
8.40845e-03,1.00828e-01
8.53395e-03,9.51028e-02
8.66133e-03,8.96917e-02
8.79062e-03,8.45776e-02
8.92183e-03,7.97443e-02
9.05500e-03,7.51766e-02
9.19016e-03,7.08603e-02
9.32733e-03,6.67817e-02
9.46656e-03,6.29278e-02
9.60786e-03,5.92865e-02
9.75127e-03,5.58462e-02
9.89682e-03,5.25960e-02
1.00445e-02,4.95254e-02
1.01945e-02,4.66248e-02
1.03466e-02,4.38848e-02
1.05011e-02,4.12966e-02
1.06578e-02,3.88519e-02
1.08169e-02,3.65429e-02
1.09784e-02,3.43621e-02
1.11422e-02,3.23025e-02
1.13085e-02,3.03574e-02
1.14773e-02,2.85205e-02
1.16487e-02,2.67859e-02
1.18225e-02,2.51479e-02
1.19990e-02,2.36012e-02
1.21781e-02,2.21408e-02
1.23599e-02,2.07619e-02
1.25444e-02,1.94599e-02
1.27316e-02,1.82307e-02
1.29216e-02,1.70702e-02
1.31145e-02,1.59746e-02
1.33103e-02,1.49403e-02
1.35089e-02,1.39640e-02
1.37106e-02,1.30423e-02
1.39152e-02,1.21722e-02
1.41229e-02,1.13509e-02
1.43337e-02,1.05757e-02
1.45477e-02,9.84402e-03
1.47648e-02,9.15338e-03
1.49852e-02,8.50154e-03
1.52089e-02,7.88631e-03
1.54359e-02,7.30567e-03
1.56663e-02,6.75768e-03
1.59002e-02,6.24052e-03
1.61375e-02,5.75245e-03
1.63784e-02,5.29187e-03
1.66228e-02,4.85722e-03
1.68709e-02,4.44705e-03
1.71228e-02,4.06001e-03
1.73783e-02,3.69478e-03
1.76377e-02,3.35015e-03
1.79010e-02,3.02496e-03
1.81682e-02,2.71811e-03
1.84394e-02,2.42859e-03
1.87146e-02,2.15542e-03
1.89940e-02,1.89768e-03
1.92775e-02,1.65449e-03
1.95652e-02,1.42505e-03
1.98573e-02,1.20858e-03
2.01537e-02,1.00435e-03
2.04545e-02,8.11671e-04
2.07598e-02,6.29892e-04
2.10697e-02,4.58398e-04
2.13842e-02,2.96612e-04
2.17033e-02,1.43985e-04
2.20273e-02,0.00000e+00
