m1=85653.894, m2=18.726, gsp=2.422, rhosp=1149.783
fGW[Hz],dPh[rad]
2.48007e-03,2.10829e+05
2.51813e-03,2.01839e+05
2.55676e-03,1.93205e+05
2.59599e-03,1.84915e+05
2.63583e-03,1.76956e+05
2.67627e-03,1.69315e+05
2.71733e-03,1.61981e+05
2.75903e-03,1.54944e+05
2.80136e-03,1.48191e+05
2.84434e-03,1.41713e+05
2.88798e-03,1.35498e+05
2.93230e-03,1.29538e+05
2.97729e-03,1.23823e+05
3.02297e-03,1.18343e+05
3.06935e-03,1.13090e+05
3.11645e-03,1.08055e+05
3.16427e-03,1.03229e+05
3.21282e-03,9.86050e+04
3.26211e-03,9.41750e+04
3.31217e-03,8.99314e+04
3.36299e-03,8.58671e+04
3.41459e-03,8.19751e+04
3.46698e-03,7.82486e+04
3.52018e-03,7.46811e+04
3.57419e-03,7.12665e+04
3.62903e-03,6.79987e+04
3.68471e-03,6.48718e+04
3.74125e-03,6.18802e+04
3.79865e-03,5.90186e+04
3.85694e-03,5.62817e+04
3.91612e-03,5.36645e+04
3.97621e-03,5.11622e+04
4.03722e-03,4.87701e+04
4.09916e-03,4.64836e+04
4.16206e-03,4.42985e+04
4.22592e-03,4.22106e+04
4.29076e-03,4.02158e+04
4.35659e-03,3.83104e+04
4.42344e-03,3.64906e+04
4.49131e-03,3.47528e+04
4.56023e-03,3.30936e+04
4.63020e-03,3.15096e+04
4.70124e-03,2.99977e+04
4.77337e-03,2.85548e+04
4.84661e-03,2.71780e+04
4.92098e-03,2.58644e+04
4.99649e-03,2.46114e+04
5.07315e-03,2.34162e+04
5.15099e-03,2.22765e+04
5.23002e-03,2.11897e+04
5.31027e-03,2.01537e+04
5.39175e-03,1.91661e+04
5.47448e-03,1.82248e+04
5.55848e-03,1.73277e+04
5.64377e-03,1.64730e+04
5.73036e-03,1.56588e+04
5.81829e-03,1.48831e+04
5.90756e-03,1.41444e+04
5.99820e-03,1.34409e+04
6.09024e-03,1.27710e+04
6.18368e-03,1.21333e+04
6.27856e-03,1.15262e+04
6.37490e-03,1.09483e+04
6.47271e-03,1.03984e+04
6.57203e-03,9.87517e+03
6.67287e-03,9.37732e+03
6.77525e-03,8.90370e+03
6.87921e-03,8.45320e+03
6.98476e-03,8.02473e+03
7.09193e-03,7.61727e+03
7.20075e-03,7.22983e+03
7.31124e-03,6.86148e+03
7.42342e-03,6.51131e+03
7.53732e-03,6.17846e+03
7.65297e-03,5.86211e+03
7.77039e-03,5.56149e+03
7.88962e-03,5.27583e+03
8.01067e-03,5.00442e+03
8.13359e-03,4.74659e+03
8.25839e-03,4.50167e+03
8.38510e-03,4.26904e+03
8.51376e-03,4.04811e+03
8.64439e-03,3.83832e+03
8.77703e-03,3.63911e+03
8.91170e-03,3.44998e+03
9.04844e-03,3.27043e+03
9.18727e-03,3.10000e+03
9.32824e-03,2.93823e+03
9.47137e-03,2.78470e+03
9.61669e-03,2.63900e+03
9.76425e-03,2.50074e+03
9.91407e-03,2.36957e+03
1.00662e-02,2.24511e+03
1.02206e-02,2.12705e+03
1.03775e-02,2.01506e+03
1.05367e-02,1.90883e+03
1.06984e-02,1.80809e+03
1.08625e-02,1.71255e+03
1.10292e-02,1.62195e+03
1.11984e-02,1.53604e+03
1.13702e-02,1.45459e+03
1.15447e-02,1.37736e+03
1.17218e-02,1.30416e+03
1.19017e-02,1.23476e+03
1.20843e-02,1.16899e+03
1.22697e-02,1.10665e+03
1.24580e-02,1.04756e+03
1.26491e-02,9.91567e+02
1.28432e-02,9.38508e+02
1.30403e-02,8.88230e+02
1.32404e-02,8.40593e+02
1.34435e-02,7.95459e+02
1.36498e-02,7.52700e+02
1.38592e-02,7.12194e+02
1.40719e-02,6.73823e+02
1.42878e-02,6.37477e+02
1.45070e-02,6.03051e+02
1.47296e-02,5.70445e+02
1.49556e-02,5.39566e+02
1.51851e-02,5.10322e+02
1.54181e-02,4.82629e+02
1.56546e-02,4.56406e+02
1.58948e-02,4.31575e+02
1.61387e-02,4.08065e+02
1.63864e-02,3.85805e+02
1.66378e-02,3.64731e+02
1.68931e-02,3.44780e+02
1.71523e-02,3.25893e+02
1.74154e-02,3.08013e+02
1.76827e-02,2.91089e+02
1.79540e-02,2.75070e+02
1.82295e-02,2.59907e+02
1.85092e-02,2.45556e+02
1.87932e-02,2.31973e+02
1.90815e-02,2.19118e+02
1.93743e-02,2.06953e+02
1.96716e-02,1.95440e+02
1.99734e-02,1.84546e+02
2.02799e-02,1.74237e+02
2.05910e-02,1.64482e+02
2.09070e-02,1.55252e+02
2.12278e-02,1.46519e+02
2.15535e-02,1.38256e+02
2.18842e-02,1.30438e+02
2.22200e-02,1.23041e+02
2.25609e-02,1.16044e+02
2.29071e-02,1.09424e+02
2.32585e-02,1.03161e+02
2.36154e-02,9.72370e+01
2.39778e-02,9.16328e+01
2.43457e-02,8.63316e+01
2.47192e-02,8.13170e+01
2.50985e-02,7.65738e+01
2.54836e-02,7.20874e+01
2.58746e-02,6.78439e+01
2.62716e-02,6.38303e+01
2.66747e-02,6.00342e+01
2.70840e-02,5.64439e+01
2.74996e-02,5.30483e+01
2.79215e-02,4.98370e+01
2.83499e-02,4.68000e+01
2.87849e-02,4.39278e+01
2.92266e-02,4.12117e+01
2.96750e-02,3.86431e+01
3.01304e-02,3.62141e+01
3.05927e-02,3.39172e+01
3.10621e-02,3.17452e+01
3.15387e-02,2.96914e+01
3.20226e-02,2.77493e+01
3.25139e-02,2.59129e+01
3.30128e-02,2.41765e+01
3.35194e-02,2.25346e+01
3.40337e-02,2.09822e+01
3.45559e-02,1.95144e+01
3.50861e-02,1.81266e+01
3.56244e-02,1.68145e+01
3.61710e-02,1.55739e+01
3.67260e-02,1.44009e+01
3.72895e-02,1.32920e+01
3.78617e-02,1.22436e+01
3.84426e-02,1.12523e+01
3.90325e-02,1.03152e+01
3.96314e-02,9.42932e+00
4.02395e-02,8.59177e+00
4.08569e-02,7.79997e+00
4.14838e-02,7.05143e+00
4.21203e-02,6.34379e+00
4.27666e-02,5.67483e+00
4.34228e-02,5.04244e+00
4.40890e-02,4.44462e+00
4.47655e-02,3.87950e+00
4.54524e-02,3.34528e+00
4.61498e-02,2.84029e+00
4.68579e-02,2.36292e+00
4.75769e-02,1.91168e+00
4.83069e-02,1.48513e+00
4.90481e-02,1.08193e+00
4.98006e-02,7.00798e-01
5.05648e-02,3.40535e-01
5.13406e-02,0.00000e+00
