m1=499779.391, m2=3.881, gsp=2.233, rhosp=5439.272
fGW[Hz],dPh[rad]
2.87912e-03,1.86801e+03
2.89532e-03,1.82766e+03
2.91162e-03,1.78816e+03
2.92801e-03,1.74951e+03
2.94449e-03,1.71169e+03
2.96107e-03,1.67466e+03
2.97774e-03,1.63843e+03
2.99450e-03,1.60297e+03
3.01135e-03,1.56826e+03
3.02830e-03,1.53429e+03
3.04535e-03,1.50104e+03
3.06249e-03,1.46850e+03
3.07973e-03,1.43666e+03
3.09707e-03,1.40549e+03
3.11450e-03,1.37499e+03
3.13203e-03,1.34513e+03
3.14966e-03,1.31591e+03
3.16739e-03,1.28732e+03
3.18522e-03,1.25933e+03
3.20315e-03,1.23194e+03
3.22118e-03,1.20513e+03
3.23932e-03,1.17889e+03
3.25755e-03,1.15321e+03
3.27589e-03,1.12808e+03
3.29433e-03,1.10349e+03
3.31287e-03,1.07941e+03
3.33152e-03,1.05585e+03
3.35027e-03,1.03280e+03
3.36913e-03,1.01023e+03
3.38810e-03,9.88143e+02
3.40717e-03,9.66527e+02
3.42635e-03,9.45372e+02
3.44564e-03,9.24667e+02
3.46503e-03,9.04403e+02
3.48454e-03,8.84571e+02
3.50415e-03,8.65162e+02
3.52388e-03,8.46166e+02
3.54371e-03,8.27575e+02
3.56366e-03,8.09379e+02
3.58372e-03,7.91572e+02
3.60389e-03,7.74143e+02
3.62418e-03,7.57087e+02
3.64458e-03,7.40393e+02
3.66509e-03,7.24055e+02
3.68573e-03,7.08065e+02
3.70647e-03,6.92416e+02
3.72734e-03,6.77101e+02
3.74832e-03,6.62112e+02
3.76942e-03,6.47442e+02
3.79064e-03,6.33084e+02
3.81197e-03,6.19033e+02
3.83343e-03,6.05281e+02
3.85501e-03,5.91822e+02
3.87671e-03,5.78650e+02
3.89853e-03,5.65759e+02
3.92048e-03,5.53142e+02
3.94255e-03,5.40794e+02
3.96474e-03,5.28710e+02
3.98706e-03,5.16883e+02
4.00950e-03,5.05308e+02
4.03207e-03,4.93979e+02
4.05477e-03,4.82892e+02
4.07759e-03,4.72042e+02
4.10054e-03,4.61423e+02
4.12363e-03,4.51030e+02
4.14684e-03,4.40858e+02
4.17018e-03,4.30903e+02
4.19366e-03,4.21161e+02
4.21726e-03,4.11626e+02
4.24100e-03,4.02295e+02
4.26487e-03,3.93162e+02
4.28888e-03,3.84224e+02
4.31302e-03,3.75476e+02
4.33730e-03,3.66915e+02
4.36172e-03,3.58537e+02
4.38627e-03,3.50337e+02
4.41096e-03,3.42312e+02
4.43579e-03,3.34458e+02
4.46076e-03,3.26771e+02
4.48587e-03,3.19248e+02
4.51112e-03,3.11886e+02
4.53651e-03,3.04681e+02
4.56205e-03,2.97629e+02
4.58773e-03,2.90727e+02
4.61355e-03,2.83973e+02
4.63952e-03,2.77363e+02
4.66564e-03,2.70893e+02
4.69190e-03,2.64562e+02
4.71831e-03,2.58366e+02
4.74487e-03,2.52301e+02
4.77158e-03,2.46366e+02
4.79844e-03,2.40558e+02
4.82545e-03,2.34873e+02
4.85261e-03,2.29310e+02
4.87993e-03,2.23865e+02
4.90740e-03,2.18536e+02
4.93502e-03,2.13321e+02
4.96280e-03,2.08217e+02
4.99074e-03,2.03222e+02
5.01883e-03,1.98334e+02
5.04708e-03,1.93549e+02
5.07549e-03,1.88867e+02
5.10406e-03,1.84285e+02
5.13280e-03,1.79800e+02
5.16169e-03,1.75411e+02
5.19074e-03,1.71116e+02
5.21996e-03,1.66912e+02
5.24935e-03,1.62797e+02
5.27889e-03,1.58771e+02
5.30861e-03,1.54830e+02
5.33849e-03,1.50974e+02
5.36854e-03,1.47200e+02
5.39876e-03,1.43506e+02
5.42915e-03,1.39891e+02
5.45971e-03,1.36353e+02
5.49045e-03,1.32890e+02
5.52135e-03,1.29502e+02
5.55243e-03,1.26185e+02
5.58369e-03,1.22940e+02
5.61512e-03,1.19763e+02
5.64673e-03,1.16654e+02
5.67851e-03,1.13612e+02
5.71048e-03,1.10635e+02
5.74262e-03,1.07721e+02
5.77495e-03,1.04869e+02
5.80745e-03,1.02078e+02
5.84015e-03,9.93463e+01
5.87302e-03,9.66732e+01
5.90608e-03,9.40570e+01
5.93932e-03,9.14966e+01
5.97276e-03,8.89908e+01
6.00638e-03,8.65385e+01
6.04019e-03,8.41385e+01
6.07419e-03,8.17897e+01
6.10838e-03,7.94910e+01
6.14277e-03,7.72413e+01
6.17734e-03,7.50396e+01
6.21212e-03,7.28849e+01
6.24708e-03,7.07761e+01
6.28225e-03,6.87124e+01
6.31761e-03,6.66926e+01
6.35318e-03,6.47160e+01
6.38894e-03,6.27815e+01
6.42490e-03,6.08882e+01
6.46107e-03,5.90354e+01
6.49744e-03,5.72221e+01
6.53401e-03,5.54474e+01
6.57079e-03,5.37107e+01
6.60778e-03,5.20109e+01
6.64497e-03,5.03475e+01
6.68238e-03,4.87195e+01
6.71999e-03,4.71263e+01
6.75782e-03,4.55670e+01
6.79586e-03,4.40410e+01
6.83412e-03,4.25476e+01
6.87259e-03,4.10860e+01
6.91127e-03,3.96556e+01
6.95018e-03,3.82558e+01
6.98930e-03,3.68858e+01
7.02864e-03,3.55450e+01
7.06821e-03,3.42328e+01
7.10799e-03,3.29486e+01
7.14801e-03,3.16918e+01
7.18824e-03,3.04619e+01
7.22871e-03,2.92582e+01
7.26940e-03,2.80801e+01
7.31032e-03,2.69272e+01
7.35147e-03,2.57989e+01
7.39285e-03,2.46947e+01
7.43446e-03,2.36140e+01
7.47631e-03,2.25564e+01
7.51840e-03,2.15213e+01
7.56072e-03,2.05084e+01
7.60328e-03,1.95170e+01
7.64608e-03,1.85468e+01
7.68912e-03,1.75973e+01
7.73240e-03,1.66681e+01
7.77593e-03,1.57586e+01
7.81970e-03,1.48686e+01
7.86371e-03,1.39976e+01
7.90798e-03,1.31452e+01
7.95249e-03,1.23109e+01
7.99726e-03,1.14945e+01
8.04228e-03,1.06955e+01
8.08755e-03,9.91350e+00
8.13307e-03,9.14822e+00
8.17885e-03,8.39926e+00
8.22489e-03,7.66628e+00
8.27119e-03,6.94895e+00
8.31775e-03,6.24692e+00
8.36457e-03,5.55987e+00
8.41165e-03,4.88748e+00
8.45900e-03,4.22944e+00
8.50662e-03,3.58545e+00
8.55450e-03,2.95519e+00
8.60266e-03,2.33838e+00
8.65108e-03,1.73474e+00
8.69978e-03,1.14398e+00
8.74875e-03,5.65819e-01
8.79800e-03,0.00000e+00
