m1=1178.472, m2=6.883, gsp=2.288, rhosp=275.239
fGW[Hz],dPh[rad]
1.05468e-02,4.14961e+03
1.08626e-02,3.89502e+03
1.11879e-02,3.65603e+03
1.15229e-02,3.43169e+03
1.18680e-02,3.22109e+03
1.22233e-02,3.02339e+03
1.25894e-02,2.83781e+03
1.29664e-02,2.66360e+03
1.33546e-02,2.50007e+03
1.37545e-02,2.34656e+03
1.41664e-02,2.20246e+03
1.45906e-02,2.06719e+03
1.50275e-02,1.94021e+03
1.54775e-02,1.82102e+03
1.59410e-02,1.70913e+03
1.64184e-02,1.60410e+03
1.69100e-02,1.50551e+03
1.74164e-02,1.41297e+03
1.79379e-02,1.32610e+03
1.84751e-02,1.24456e+03
1.90283e-02,1.16801e+03
1.95981e-02,1.09616e+03
2.01850e-02,1.02872e+03
2.07894e-02,9.65415e+02
2.14119e-02,9.05992e+02
2.20531e-02,8.50215e+02
2.27135e-02,7.97859e+02
2.33936e-02,7.48716e+02
2.40942e-02,7.02589e+02
2.48157e-02,6.59292e+02
2.55588e-02,6.18652e+02
2.63241e-02,5.80508e+02
2.71124e-02,5.44704e+02
2.79243e-02,5.11099e+02
2.87605e-02,4.79557e+02
2.96217e-02,4.49952e+02
3.05087e-02,4.22166e+02
3.14223e-02,3.96086e+02
3.23632e-02,3.71609e+02
3.33323e-02,3.48635e+02
3.43305e-02,3.27074e+02
3.53585e-02,3.06837e+02
3.64173e-02,2.87845e+02
3.75078e-02,2.70021e+02
3.86310e-02,2.53292e+02
3.97878e-02,2.37593e+02
4.09792e-02,2.22859e+02
4.22064e-02,2.09032e+02
4.34702e-02,1.96056e+02
4.47719e-02,1.83879e+02
4.61126e-02,1.72452e+02
4.74935e-02,1.61729e+02
4.89157e-02,1.51666e+02
5.03804e-02,1.42223e+02
5.18891e-02,1.33363e+02
5.34429e-02,1.25049e+02
5.50432e-02,1.17247e+02
5.66915e-02,1.09927e+02
5.83891e-02,1.03059e+02
6.01376e-02,9.66149e+01
6.19384e-02,9.05688e+01
6.37931e-02,8.48962e+01
6.57034e-02,7.95743e+01
6.76709e-02,7.45815e+01
6.96973e-02,6.98976e+01
7.17844e-02,6.55036e+01
7.39340e-02,6.13817e+01
7.61479e-02,5.75151e+01
7.84281e-02,5.38883e+01
8.07767e-02,5.04863e+01
8.31955e-02,4.72955e+01
8.56868e-02,4.43027e+01
8.82527e-02,4.14959e+01
9.08954e-02,3.88636e+01
9.36173e-02,3.63950e+01
9.64206e-02,3.40801e+01
9.93079e-02,3.19093e+01
1.02282e-01,2.98739e+01
1.05345e-01,2.79655e+01
1.08499e-01,2.61762e+01
1.11748e-01,2.44987e+01
1.15094e-01,2.29262e+01
1.18541e-01,2.14520e+01
1.22091e-01,2.00703e+01
1.25746e-01,1.87752e+01
1.29512e-01,1.75614e+01
1.33390e-01,1.64239e+01
1.37385e-01,1.53579e+01
1.41499e-01,1.43591e+01
1.45736e-01,1.34233e+01
1.50100e-01,1.25466e+01
1.54594e-01,1.17253e+01
1.59224e-01,1.09560e+01
1.63992e-01,1.02355e+01
1.68902e-01,9.56067e+00
1.73960e-01,8.92879e+00
1.79169e-01,8.33715e+00
1.84535e-01,7.78324e+00
1.90061e-01,7.26473e+00
1.95752e-01,6.77940e+00
2.01614e-01,6.32519e+00
2.07651e-01,5.90016e+00
2.13869e-01,5.50249e+00
2.20273e-01,5.13046e+00
2.26869e-01,4.78248e+00
2.33663e-01,4.45704e+00
2.40660e-01,4.15273e+00
2.47867e-01,3.86822e+00
2.55289e-01,3.60227e+00
2.62933e-01,3.35371e+00
2.70807e-01,3.12144e+00
2.78916e-01,2.90445e+00
2.87268e-01,2.70175e+00
2.95871e-01,2.51246e+00
3.04730e-01,2.33572e+00
3.13856e-01,2.17074e+00
3.23254e-01,2.01676e+00
3.32934e-01,1.87309e+00
3.42903e-01,1.73907e+00
3.53172e-01,1.61408e+00
3.63747e-01,1.49755e+00
3.74640e-01,1.38893e+00
3.85858e-01,1.28771e+00
3.97413e-01,1.19342e+00
4.09313e-01,1.10561e+00
4.21570e-01,1.02385e+00
4.34194e-01,9.47756e-01
4.47196e-01,8.76957e-01
4.60587e-01,8.11106e-01
4.74379e-01,7.49879e-01
4.88585e-01,6.92971e-01
5.03215e-01,6.40097e-01
5.18284e-01,5.90989e-01
5.33804e-01,5.45397e-01
5.49789e-01,5.03087e-01
5.66252e-01,4.63837e-01
5.83209e-01,4.27442e-01
6.00673e-01,3.93709e-01
6.18660e-01,3.62456e-01
6.37186e-01,3.33515e-01
6.56266e-01,3.06726e-01
6.75918e-01,2.81942e-01
6.96158e-01,2.59023e-01
7.17005e-01,2.37840e-01
7.38475e-01,2.18270e-01
7.60589e-01,2.00199e-01
7.83365e-01,1.83523e-01
8.06822e-01,1.68141e-01
8.30983e-01,1.53960e-01
8.55866e-01,1.40893e-01
8.81495e-01,1.28860e-01
9.07891e-01,1.17785e-01
9.35078e-01,1.07598e-01
9.63079e-01,9.82314e-02
9.91918e-01,8.96254e-02
1.02162e+00,8.17225e-02
1.05221e+00,7.44693e-02
1.08372e+00,6.78164e-02
1.11617e+00,6.17175e-02
1.14960e+00,5.61299e-02
1.18402e+00,5.10136e-02
1.21948e+00,4.63317e-02
1.25599e+00,4.20497e-02
1.29361e+00,3.81359e-02
1.33234e+00,3.45605e-02
1.37224e+00,3.12963e-02
1.41333e+00,2.83179e-02
1.45565e+00,2.56018e-02
1.49924e+00,2.31263e-02
1.54414e+00,2.08714e-02
1.59038e+00,1.88186e-02
1.63800e+00,1.69507e-02
1.68705e+00,1.52521e-02
1.73757e+00,1.37083e-02
1.78960e+00,1.23058e-02
1.84319e+00,1.10324e-02
1.89838e+00,9.87690e-03
1.95523e+00,8.82880e-03
2.01378e+00,7.87862e-03
2.07408e+00,7.01763e-03
2.13619e+00,6.23784e-03
2.20016e+00,5.53190e-03
2.26604e+00,4.89313e-03
2.33390e+00,4.31538e-03
2.40379e+00,3.79305e-03
2.47577e+00,3.32103e-03
2.54990e+00,2.89465e-03
2.62626e+00,2.50964e-03
2.70490e+00,2.16214e-03
2.78590e+00,1.84860e-03
2.86933e+00,1.56580e-03
2.95525e+00,1.31084e-03
3.04374e+00,1.08104e-03
3.13489e+00,8.73987e-04
3.22876e+00,6.87498e-04
3.32545e+00,5.19581e-04
3.42503e+00,3.68431e-04
3.52759e+00,2.32415e-04
3.63322e+00,1.10051e-04
3.74202e+00,0.00000e+00
