m1=31502.182, m2=9.769, gsp=2.416, rhosp=241.451
fGW[Hz],dPh[rad]
4.06494e-03,2.15648e+05
4.13782e-03,2.06226e+05
4.21201e-03,1.97188e+05
4.28753e-03,1.88518e+05
4.36440e-03,1.80203e+05
4.44266e-03,1.72230e+05
4.52231e-03,1.64584e+05
4.60339e-03,1.57254e+05
4.68593e-03,1.50228e+05
4.76995e-03,1.43493e+05
4.85547e-03,1.37039e+05
4.94253e-03,1.30854e+05
5.03115e-03,1.24929e+05
5.12135e-03,1.19252e+05
5.21318e-03,1.13815e+05
5.30665e-03,1.08608e+05
5.40179e-03,1.03622e+05
5.49865e-03,9.88482e+04
5.59723e-03,9.42785e+04
5.69759e-03,8.99047e+04
5.79975e-03,8.57191e+04
5.90373e-03,8.17143e+04
6.00959e-03,7.78829e+04
6.11734e-03,7.42181e+04
6.22702e-03,7.07133e+04
6.33866e-03,6.73619e+04
6.45231e-03,6.41579e+04
6.56800e-03,6.10952e+04
6.68576e-03,5.81682e+04
6.80564e-03,5.53713e+04
6.92766e-03,5.26992e+04
7.05187e-03,5.01467e+04
7.17831e-03,4.77091e+04
7.30701e-03,4.53815e+04
7.43802e-03,4.31593e+04
7.57139e-03,4.10383e+04
7.70714e-03,3.90141e+04
7.84532e-03,3.70828e+04
7.98599e-03,3.52403e+04
8.12917e-03,3.34831e+04
8.27493e-03,3.18074e+04
8.42329e-03,3.02098e+04
8.57432e-03,2.86869e+04
8.72805e-03,2.72356e+04
8.88454e-03,2.58527e+04
9.04384e-03,2.45354e+04
9.20599e-03,2.32807e+04
9.37105e-03,2.20859e+04
9.53907e-03,2.09484e+04
9.71010e-03,1.98657e+04
9.88420e-03,1.88353e+04
1.00614e-02,1.78550e+04
1.02418e-02,1.69224e+04
1.04255e-02,1.60355e+04
1.06124e-02,1.51922e+04
1.08027e-02,1.43905e+04
1.09963e-02,1.36286e+04
1.11935e-02,1.29045e+04
1.13942e-02,1.22166e+04
1.15985e-02,1.15633e+04
1.18064e-02,1.09428e+04
1.20181e-02,1.03537e+04
1.22336e-02,9.79451e+03
1.24530e-02,9.26383e+03
1.26762e-02,8.76030e+03
1.29035e-02,8.28265e+03
1.31349e-02,7.82963e+03
1.33704e-02,7.40006e+03
1.36101e-02,6.99283e+03
1.38541e-02,6.60684e+03
1.41025e-02,6.24106e+03
1.43554e-02,5.89452e+03
1.46128e-02,5.56626e+03
1.48748e-02,5.25539e+03
1.51415e-02,4.96104e+03
1.54129e-02,4.68240e+03
1.56893e-02,4.41868e+03
1.59706e-02,4.16912e+03
1.62569e-02,3.93303e+03
1.65484e-02,3.70971e+03
1.68451e-02,3.49851e+03
1.71472e-02,3.29882e+03
1.74546e-02,3.11005e+03
1.77676e-02,2.93163e+03
1.80861e-02,2.76302e+03
1.84104e-02,2.60373e+03
1.87405e-02,2.45325e+03
1.90765e-02,2.31114e+03
1.94185e-02,2.17694e+03
1.97667e-02,2.05024e+03
2.01211e-02,1.93065e+03
2.04819e-02,1.81778e+03
2.08491e-02,1.71128e+03
2.12229e-02,1.61080e+03
2.16034e-02,1.51602e+03
2.19908e-02,1.42662e+03
2.23851e-02,1.34233e+03
2.27864e-02,1.26285e+03
2.31950e-02,1.18793e+03
2.36109e-02,1.11732e+03
2.40342e-02,1.05078e+03
2.44651e-02,9.88075e+02
2.49038e-02,9.29006e+02
2.53503e-02,8.73365e+02
2.58048e-02,8.20961e+02
2.62675e-02,7.71614e+02
2.67384e-02,7.25150e+02
2.72178e-02,6.81409e+02
2.77059e-02,6.40235e+02
2.82026e-02,6.01484e+02
2.87083e-02,5.65018e+02
2.92230e-02,5.30705e+02
2.97470e-02,4.98424e+02
3.02803e-02,4.68057e+02
3.08232e-02,4.39495e+02
3.13759e-02,4.12634e+02
3.19384e-02,3.87375e+02
3.25111e-02,3.63625e+02
3.30940e-02,3.41296e+02
3.36873e-02,3.20307e+02
3.42913e-02,3.00578e+02
3.49062e-02,2.82036e+02
3.55320e-02,2.64612e+02
3.61691e-02,2.48239e+02
3.68176e-02,2.32856e+02
3.74777e-02,2.18404e+02
3.81497e-02,2.04828e+02
3.88337e-02,1.92077e+02
3.95300e-02,1.80100e+02
4.02387e-02,1.68853e+02
4.09602e-02,1.58292e+02
4.16946e-02,1.48375e+02
4.24422e-02,1.39064e+02
4.32031e-02,1.30323e+02
4.39778e-02,1.22118e+02
4.47663e-02,1.14416e+02
4.55689e-02,1.07187e+02
4.63859e-02,1.00402e+02
4.72176e-02,9.40354e+01
4.80642e-02,8.80606e+01
4.89260e-02,8.24544e+01
4.98032e-02,7.71943e+01
5.06962e-02,7.22593e+01
5.16051e-02,6.76296e+01
5.25304e-02,6.32865e+01
5.34723e-02,5.92126e+01
5.44310e-02,5.53914e+01
5.54069e-02,5.18074e+01
5.64003e-02,4.84461e+01
5.74116e-02,4.52938e+01
5.84409e-02,4.23378e+01
5.94888e-02,3.95658e+01
6.05554e-02,3.69666e+01
6.16411e-02,3.45296e+01
6.27463e-02,3.22447e+01
6.38713e-02,3.01025e+01
6.50165e-02,2.80942e+01
6.61823e-02,2.62116e+01
6.73689e-02,2.44468e+01
6.85768e-02,2.27925e+01
6.98063e-02,2.12419e+01
7.10579e-02,1.97885e+01
7.23320e-02,1.84263e+01
7.36289e-02,1.71496e+01
7.49490e-02,1.59532e+01
7.62928e-02,1.48319e+01
7.76607e-02,1.37811e+01
7.90531e-02,1.27964e+01
8.04705e-02,1.18737e+01
8.19133e-02,1.10091e+01
8.33820e-02,1.01990e+01
8.48770e-02,9.43996e+00
8.63988e-02,8.72876e+00
8.79479e-02,8.06243e+00
8.95248e-02,7.43815e+00
9.11300e-02,6.85328e+00
9.27639e-02,6.30535e+00
9.44271e-02,5.79205e+00
9.61201e-02,5.31119e+00
9.78435e-02,4.86073e+00
9.95978e-02,4.43877e+00
1.01384e-01,4.04351e+00
1.03201e-01,3.67326e+00
1.05052e-01,3.32646e+00
1.06935e-01,3.00162e+00
1.08853e-01,2.69736e+00
1.10804e-01,2.41239e+00
1.12791e-01,2.14548e+00
1.14813e-01,1.89549e+00
1.16872e-01,1.66136e+00
1.18967e-01,1.44208e+00
1.21100e-01,1.23672e+00
1.23272e-01,1.04440e+00
1.25482e-01,8.64284e-01
1.27732e-01,6.95607e-01
1.30022e-01,5.37646e-01
1.32353e-01,3.89720e-01
1.34726e-01,2.51194e-01
1.37142e-01,1.21474e-01
1.39601e-01,0.00000e+00
