m1=11254.899, m2=23.309, gsp=2.068, rhosp=22.233
fGW[Hz],dPh[rad]
3.79550e-03,5.23958e+01
3.88494e-03,4.96288e+01
3.97649e-03,4.70065e+01
4.07020e-03,4.45213e+01
4.16612e-03,4.21662e+01
4.26429e-03,3.99344e+01
4.36478e-03,3.78195e+01
4.46764e-03,3.58153e+01
4.57292e-03,3.39162e+01
4.68068e-03,3.21165e+01
4.79099e-03,3.04112e+01
4.90389e-03,2.87954e+01
5.01945e-03,2.72643e+01
5.13774e-03,2.58136e+01
5.25881e-03,2.44390e+01
5.38273e-03,2.31367e+01
5.50958e-03,2.19027e+01
5.63941e-03,2.07337e+01
5.77231e-03,1.96261e+01
5.90834e-03,1.85768e+01
6.04757e-03,1.75827e+01
6.19008e-03,1.66409e+01
6.33595e-03,1.57488e+01
6.48526e-03,1.49037e+01
6.63809e-03,1.41032e+01
6.79452e-03,1.33449e+01
6.95463e-03,1.26266e+01
7.11852e-03,1.19463e+01
7.28627e-03,1.13019e+01
7.45797e-03,1.06916e+01
7.63372e-03,1.01137e+01
7.81362e-03,9.56629e+00
7.99775e-03,9.04791e+00
8.18622e-03,8.55703e+00
8.37913e-03,8.09219e+00
8.57658e-03,7.65204e+00
8.77869e-03,7.23527e+00
8.98557e-03,6.84067e+00
9.19731e-03,6.46707e+00
9.41405e-03,6.11338e+00
9.63590e-03,5.77854e+00
9.86297e-03,5.46156e+00
1.00954e-02,5.16152e+00
1.03333e-02,4.87751e+00
1.05768e-02,4.60870e+00
1.08261e-02,4.35429e+00
1.10812e-02,4.11352e+00
1.13423e-02,3.88567e+00
1.16096e-02,3.67006e+00
1.18832e-02,3.46605e+00
1.21632e-02,3.27303e+00
1.24498e-02,3.09041e+00
1.27432e-02,2.91765e+00
1.30435e-02,2.75423e+00
1.33509e-02,2.59965e+00
1.36655e-02,2.45344e+00
1.39875e-02,2.31517e+00
1.43172e-02,2.18441e+00
1.46545e-02,2.06077e+00
1.49999e-02,1.94386e+00
1.53534e-02,1.83334e+00
1.57152e-02,1.72885e+00
1.60855e-02,1.63009e+00
1.64646e-02,1.53674e+00
1.68526e-02,1.44852e+00
1.72497e-02,1.36516e+00
1.76562e-02,1.28639e+00
1.80723e-02,1.21197e+00
1.84981e-02,1.14167e+00
1.89341e-02,1.07527e+00
1.93802e-02,1.01255e+00
1.98370e-02,9.53332e-01
2.03044e-02,8.97413e-01
2.07829e-02,8.44620e-01
2.12727e-02,7.94786e-01
2.17739e-02,7.47750e-01
2.22871e-02,7.03362e-01
2.28123e-02,6.61478e-01
2.33498e-02,6.21963e-01
2.39001e-02,5.84689e-01
2.44633e-02,5.49534e-01
2.50398e-02,5.16383e-01
2.56299e-02,4.85127e-01
2.62338e-02,4.55662e-01
2.68520e-02,4.27890e-01
2.74848e-02,4.01720e-01
2.81325e-02,3.77062e-01
2.87955e-02,3.53834e-01
2.94740e-02,3.31957e-01
3.01686e-02,3.11357e-01
3.08795e-02,2.91962e-01
3.16072e-02,2.73707e-01
3.23521e-02,2.56527e-01
3.31144e-02,2.40363e-01
3.38948e-02,2.25158e-01
3.46935e-02,2.10859e-01
3.55111e-02,1.97414e-01
3.63479e-02,1.84775e-01
3.72045e-02,1.72898e-01
3.80812e-02,1.61738e-01
3.89786e-02,1.51255e-01
3.98972e-02,1.41411e-01
4.08374e-02,1.32168e-01
4.17997e-02,1.23494e-01
4.27847e-02,1.15354e-01
4.37930e-02,1.07718e-01
4.48250e-02,1.00556e-01
4.58813e-02,9.38421e-02
4.69625e-02,8.75490e-02
4.80692e-02,8.16522e-02
4.92019e-02,7.61285e-02
5.03614e-02,7.09558e-02
5.15482e-02,6.61133e-02
5.27629e-02,6.15814e-02
5.40063e-02,5.73414e-02
5.52790e-02,5.33759e-02
5.65817e-02,4.96682e-02
5.79150e-02,4.62028e-02
5.92798e-02,4.29648e-02
6.06768e-02,3.99404e-02
6.21066e-02,3.71164e-02
6.35702e-02,3.44805e-02
6.50683e-02,3.20210e-02
6.66016e-02,2.97268e-02
6.81711e-02,2.75877e-02
6.97776e-02,2.55937e-02
7.14219e-02,2.37358e-02
7.31050e-02,2.20053e-02
7.48277e-02,2.03940e-02
7.65911e-02,1.88942e-02
7.83960e-02,1.74987e-02
8.02434e-02,1.62008e-02
8.21344e-02,1.49940e-02
8.40699e-02,1.38724e-02
8.60510e-02,1.28303e-02
8.80788e-02,1.18624e-02
9.01544e-02,1.09639e-02
9.22790e-02,1.01299e-02
9.44536e-02,9.35616e-03
9.66794e-02,8.63858e-03
9.89577e-02,7.97332e-03
1.01290e-01,7.35678e-03
1.03677e-01,6.78560e-03
1.06120e-01,6.25662e-03
1.08620e-01,5.76689e-03
1.11180e-01,5.31366e-03
1.13800e-01,4.89436e-03
1.16482e-01,4.50657e-03
1.19227e-01,4.14805e-03
1.22036e-01,3.81671e-03
1.24912e-01,3.51057e-03
1.27856e-01,3.22781e-03
1.30869e-01,2.96674e-03
1.33953e-01,2.72577e-03
1.37109e-01,2.50342e-03
1.40341e-01,2.29831e-03
1.43648e-01,2.10916e-03
1.47033e-01,1.93479e-03
1.50498e-01,1.77408e-03
1.54044e-01,1.62602e-03
1.57674e-01,1.48964e-03
1.61390e-01,1.36405e-03
1.65193e-01,1.24844e-03
1.69086e-01,1.14204e-03
1.73071e-01,1.04414e-03
1.77149e-01,9.54085e-04
1.81324e-01,8.71270e-04
1.85597e-01,7.95131e-04
1.89970e-01,7.25146e-04
1.94447e-01,6.60834e-04
1.99029e-01,6.01747e-04
2.03719e-01,5.47474e-04
2.08520e-01,4.97634e-04
2.13434e-01,4.51874e-04
2.18464e-01,4.09869e-04
2.23612e-01,3.71319e-04
2.28881e-01,3.35947e-04
2.34275e-01,3.03497e-04
2.39796e-01,2.73733e-04
2.45446e-01,2.46439e-04
2.51231e-01,2.21413e-04
2.57151e-01,1.98471e-04
2.63211e-01,1.77444e-04
2.69413e-01,1.58174e-04
2.75762e-01,1.40518e-04
2.82261e-01,1.24342e-04
2.88912e-01,1.09526e-04
2.95720e-01,9.59565e-05
3.02689e-01,8.35306e-05
3.09822e-01,7.21536e-05
3.17123e-01,6.17383e-05
3.24596e-01,5.22047e-05
3.32246e-01,4.34791e-05
3.40075e-01,3.54942e-05
3.48089e-01,2.81879e-05
3.56292e-01,2.15033e-05
3.64688e-01,1.53882e-05
3.73282e-01,9.79460e-06
3.82079e-01,4.67865e-06
3.91082e-01,0.00000e+00
