m1=206479.134, m2=37.881, gsp=2.446, rhosp=1362.791
fGW[Hz],dPh[rad]
1.52825e-03,1.75628e+05
1.54861e-03,1.68502e+05
1.56925e-03,1.61650e+05
1.59016e-03,1.55061e+05
1.61135e-03,1.48726e+05
1.63283e-03,1.42635e+05
1.65459e-03,1.36781e+05
1.67664e-03,1.31154e+05
1.69898e-03,1.25746e+05
1.72162e-03,1.20550e+05
1.74456e-03,1.15557e+05
1.76781e-03,1.10761e+05
1.79137e-03,1.06154e+05
1.81525e-03,1.01728e+05
1.83944e-03,9.74785e+04
1.86395e-03,9.33976e+04
1.88879e-03,8.94794e+04
1.91396e-03,8.57177e+04
1.93947e-03,8.21068e+04
1.96531e-03,7.86409e+04
1.99150e-03,7.53146e+04
2.01804e-03,7.21227e+04
2.04494e-03,6.90600e+04
2.07219e-03,6.61216e+04
2.09980e-03,6.33029e+04
2.12779e-03,6.05991e+04
2.15614e-03,5.80059e+04
2.18488e-03,5.55191e+04
2.21399e-03,5.31345e+04
2.24350e-03,5.08481e+04
2.27340e-03,4.86562e+04
2.30369e-03,4.65550e+04
2.33439e-03,4.45410e+04
2.36550e-03,4.26108e+04
2.39703e-03,4.07611e+04
2.42897e-03,3.89887e+04
2.46134e-03,3.72904e+04
2.49414e-03,3.56635e+04
2.52738e-03,3.41050e+04
2.56106e-03,3.26122e+04
2.59519e-03,3.11825e+04
2.62977e-03,2.98133e+04
2.66482e-03,2.85022e+04
2.70033e-03,2.72468e+04
2.73632e-03,2.60449e+04
2.77278e-03,2.48943e+04
2.80974e-03,2.37929e+04
2.84718e-03,2.27387e+04
2.88512e-03,2.17298e+04
2.92357e-03,2.07642e+04
2.96253e-03,1.98403e+04
3.00201e-03,1.89563e+04
3.04202e-03,1.81105e+04
3.08256e-03,1.73014e+04
3.12364e-03,1.65274e+04
3.16527e-03,1.57871e+04
3.20745e-03,1.50790e+04
3.25019e-03,1.44018e+04
3.29351e-03,1.37542e+04
3.33740e-03,1.31350e+04
3.38187e-03,1.25429e+04
3.42694e-03,1.19768e+04
3.47261e-03,1.14357e+04
3.51889e-03,1.09183e+04
3.56578e-03,1.04239e+04
3.61330e-03,9.95123e+03
3.66145e-03,9.49951e+03
3.71025e-03,9.06783e+03
3.75969e-03,8.65530e+03
3.80980e-03,8.26111e+03
3.86057e-03,7.88448e+03
3.91202e-03,7.52463e+03
3.96415e-03,7.18084e+03
4.01698e-03,6.85242e+03
4.07051e-03,6.53870e+03
4.12476e-03,6.23904e+03
4.17972e-03,5.95282e+03
4.23543e-03,5.67946e+03
4.29187e-03,5.41840e+03
4.34906e-03,5.16910e+03
4.40702e-03,4.93103e+03
4.46575e-03,4.70371e+03
4.52527e-03,4.48666e+03
4.58557e-03,4.27943e+03
4.64668e-03,4.08159e+03
4.70861e-03,3.89272e+03
4.77135e-03,3.71242e+03
4.83494e-03,3.54031e+03
4.89937e-03,3.37603e+03
4.96466e-03,3.21923e+03
5.03083e-03,3.06957e+03
5.09787e-03,2.92674e+03
5.16581e-03,2.79043e+03
5.23465e-03,2.66035e+03
5.30441e-03,2.53622e+03
5.37510e-03,2.41778e+03
5.44673e-03,2.30476e+03
5.51931e-03,2.19693e+03
5.59287e-03,2.09404e+03
5.66740e-03,1.99588e+03
5.74293e-03,1.90224e+03
5.81946e-03,1.81291e+03
5.89701e-03,1.72768e+03
5.97560e-03,1.64639e+03
6.05523e-03,1.56885e+03
6.13593e-03,1.49488e+03
6.21770e-03,1.42433e+03
6.30056e-03,1.35705e+03
6.38452e-03,1.29287e+03
6.46961e-03,1.23167e+03
6.55583e-03,1.17330e+03
6.64319e-03,1.11764e+03
6.73172e-03,1.06455e+03
6.82143e-03,1.01393e+03
6.91234e-03,9.65667e+02
7.00446e-03,9.19642e+02
7.09780e-03,8.75758e+02
7.19239e-03,8.33914e+02
7.28824e-03,7.94019e+02
7.38537e-03,7.55982e+02
7.48379e-03,7.19717e+02
7.58352e-03,6.85144e+02
7.68458e-03,6.52183e+02
7.78699e-03,6.20761e+02
7.89076e-03,5.90807e+02
7.99592e-03,5.62251e+02
8.10248e-03,5.35031e+02
8.21046e-03,5.09084e+02
8.31987e-03,4.84351e+02
8.43075e-03,4.60776e+02
8.54310e-03,4.38305e+02
8.65695e-03,4.16887e+02
8.77232e-03,3.96473e+02
8.88922e-03,3.77016e+02
9.00768e-03,3.58472e+02
9.12772e-03,3.40799e+02
9.24936e-03,3.23955e+02
9.37263e-03,3.07903e+02
9.49753e-03,2.92605e+02
9.62410e-03,2.78025e+02
9.75235e-03,2.64132e+02
9.88232e-03,2.50892e+02
1.00140e-02,2.38275e+02
1.01475e-02,2.26253e+02
1.02827e-02,2.14796e+02
1.04197e-02,2.03879e+02
1.05586e-02,1.93476e+02
1.06993e-02,1.83564e+02
1.08419e-02,1.74119e+02
1.09864e-02,1.65120e+02
1.11328e-02,1.56545e+02
1.12811e-02,1.48375e+02
1.14315e-02,1.40591e+02
1.15838e-02,1.33174e+02
1.17382e-02,1.26108e+02
1.18946e-02,1.19375e+02
1.20531e-02,1.12961e+02
1.22138e-02,1.06850e+02
1.23765e-02,1.01028e+02
1.25415e-02,9.54808e+01
1.27086e-02,9.01964e+01
1.28780e-02,8.51621e+01
1.30496e-02,8.03660e+01
1.32235e-02,7.57970e+01
1.33997e-02,7.14443e+01
1.35783e-02,6.72978e+01
1.37592e-02,6.33477e+01
1.39426e-02,5.95848e+01
1.41284e-02,5.60002e+01
1.43167e-02,5.25856e+01
1.45075e-02,4.93328e+01
1.47008e-02,4.62342e+01
1.48967e-02,4.32827e+01
1.50952e-02,4.04711e+01
1.52964e-02,3.77929e+01
1.55002e-02,3.52419e+01
1.57068e-02,3.28119e+01
1.59161e-02,3.04972e+01
1.61282e-02,2.82925e+01
1.63432e-02,2.61924e+01
1.65610e-02,2.41921e+01
1.67817e-02,2.22868e+01
1.70053e-02,2.04721e+01
1.72319e-02,1.87435e+01
1.74616e-02,1.70971e+01
1.76943e-02,1.55290e+01
1.79301e-02,1.40354e+01
1.81690e-02,1.26128e+01
1.84111e-02,1.12578e+01
1.86565e-02,9.96729e+00
1.89051e-02,8.73815e+00
1.91571e-02,7.56747e+00
1.94124e-02,6.45249e+00
1.96711e-02,5.39055e+00
1.99332e-02,4.37915e+00
2.01989e-02,3.41588e+00
2.04680e-02,2.49845e+00
2.07408e-02,1.62470e+00
2.10172e-02,7.92540e-01
2.12973e-02,0.00000e+00
