m1=29735.656, m2=3.150, gsp=2.442, rhosp=124.066
fGW[Hz],dPh[rad]
6.30421e-03,5.51306e+05
6.40496e-03,5.25858e+05
6.50732e-03,5.01508e+05
6.61132e-03,4.78213e+05
6.71698e-03,4.55931e+05
6.82433e-03,4.34621e+05
6.93339e-03,4.14245e+05
7.04420e-03,3.94765e+05
7.15677e-03,3.76144e+05
7.27115e-03,3.58348e+05
7.38735e-03,3.41343e+05
7.50541e-03,3.25097e+05
7.62536e-03,3.09578e+05
7.74723e-03,2.94757e+05
7.87104e-03,2.80604e+05
7.99683e-03,2.67092e+05
8.12463e-03,2.54193e+05
8.25447e-03,2.41883e+05
8.38639e-03,2.30135e+05
8.52042e-03,2.18927e+05
8.65659e-03,2.08236e+05
8.79494e-03,1.98038e+05
8.93549e-03,1.88314e+05
9.07829e-03,1.79042e+05
9.22338e-03,1.70204e+05
9.37078e-03,1.61779e+05
9.52054e-03,1.53751e+05
9.67270e-03,1.46102e+05
9.82728e-03,1.38815e+05
9.98433e-03,1.31873e+05
1.01439e-02,1.25263e+05
1.03060e-02,1.18968e+05
1.04707e-02,1.12975e+05
1.06381e-02,1.07271e+05
1.08081e-02,1.01842e+05
1.09808e-02,9.66751e+04
1.11563e-02,9.17594e+04
1.13346e-02,8.70830e+04
1.15157e-02,8.26351e+04
1.16998e-02,7.84049e+04
1.18867e-02,7.43826e+04
1.20767e-02,7.05584e+04
1.22697e-02,6.69232e+04
1.24658e-02,6.34681e+04
1.26650e-02,6.01846e+04
1.28674e-02,5.70646e+04
1.30731e-02,5.41005e+04
1.32820e-02,5.12849e+04
1.34943e-02,4.86106e+04
1.37099e-02,4.60709e+04
1.39290e-02,4.36595e+04
1.41516e-02,4.13700e+04
1.43778e-02,3.91967e+04
1.46076e-02,3.71338e+04
1.48410e-02,3.51761e+04
1.50782e-02,3.33185e+04
1.53192e-02,3.15559e+04
1.55640e-02,2.98838e+04
1.58128e-02,2.82977e+04
1.60655e-02,2.67934e+04
1.63222e-02,2.53667e+04
1.65831e-02,2.40140e+04
1.68481e-02,2.27314e+04
1.71173e-02,2.15155e+04
1.73909e-02,2.03630e+04
1.76688e-02,1.92706e+04
1.79512e-02,1.82353e+04
1.82381e-02,1.72543e+04
1.85296e-02,1.63248e+04
1.88257e-02,1.54442e+04
1.91266e-02,1.46100e+04
1.94322e-02,1.38198e+04
1.97428e-02,1.30714e+04
2.00583e-02,1.23626e+04
2.03789e-02,1.16915e+04
2.07046e-02,1.10560e+04
2.10355e-02,1.04543e+04
2.13716e-02,9.88474e+03
2.17132e-02,9.34558e+03
2.20602e-02,8.83525e+03
2.24128e-02,8.35225e+03
2.27709e-02,7.89517e+03
2.31349e-02,7.46263e+03
2.35046e-02,7.05337e+03
2.38802e-02,6.66615e+03
2.42619e-02,6.29981e+03
2.46496e-02,5.95326e+03
2.50435e-02,5.62545e+03
2.54438e-02,5.31540e+03
2.58504e-02,5.02215e+03
2.62635e-02,4.74482e+03
2.66833e-02,4.48256e+03
2.71097e-02,4.23457e+03
2.75430e-02,4.00009e+03
2.79831e-02,3.77839e+03
2.84304e-02,3.56880e+03
2.88847e-02,3.37066e+03
2.93463e-02,3.18336e+03
2.98153e-02,3.00632e+03
3.02918e-02,2.83898e+03
3.07759e-02,2.68082e+03
3.12678e-02,2.53135e+03
3.17675e-02,2.39009e+03
3.22752e-02,2.25661e+03
3.27910e-02,2.13048e+03
3.33150e-02,2.01130e+03
3.38475e-02,1.89870e+03
3.43884e-02,1.79231e+03
3.49380e-02,1.69180e+03
3.54963e-02,1.59684e+03
3.60636e-02,1.50715e+03
3.66400e-02,1.42242e+03
3.72255e-02,1.34238e+03
3.78205e-02,1.26679e+03
3.84249e-02,1.19539e+03
3.90390e-02,1.12796e+03
3.96629e-02,1.06427e+03
4.02967e-02,1.00413e+03
4.09408e-02,9.47332e+02
4.15950e-02,8.93697e+02
4.22598e-02,8.43052e+02
4.29352e-02,7.95229e+02
4.36213e-02,7.50075e+02
4.43185e-02,7.07440e+02
4.50268e-02,6.67187e+02
4.57464e-02,6.29183e+02
4.64774e-02,5.93303e+02
4.72202e-02,5.59431e+02
4.79749e-02,5.27454e+02
4.87416e-02,4.97267e+02
4.95206e-02,4.68771e+02
5.03120e-02,4.41872e+02
5.11160e-02,4.16482e+02
5.19329e-02,3.92515e+02
5.27629e-02,3.69893e+02
5.36061e-02,3.48542e+02
5.44628e-02,3.28389e+02
5.53332e-02,3.09369e+02
5.62176e-02,2.91418e+02
5.71160e-02,2.74477e+02
5.80288e-02,2.58488e+02
5.89562e-02,2.43399e+02
5.98984e-02,2.29159e+02
6.08557e-02,2.15721e+02
6.18282e-02,2.03040e+02
6.28163e-02,1.91074e+02
6.38202e-02,1.79782e+02
6.48402e-02,1.69127e+02
6.58764e-02,1.59073e+02
6.69292e-02,1.49586e+02
6.79989e-02,1.40634e+02
6.90856e-02,1.32188e+02
7.01897e-02,1.24218e+02
7.13114e-02,1.16699e+02
7.24511e-02,1.09604e+02
7.36090e-02,1.02911e+02
7.47853e-02,9.65954e+01
7.59805e-02,9.06371e+01
7.71948e-02,8.50158e+01
7.84285e-02,7.97124e+01
7.96819e-02,7.47091e+01
8.09553e-02,6.99889e+01
8.22491e-02,6.55359e+01
8.35636e-02,6.13350e+01
8.48991e-02,5.73719e+01
8.62559e-02,5.36333e+01
8.76344e-02,5.01064e+01
8.90349e-02,4.67794e+01
9.04578e-02,4.36409e+01
9.19035e-02,4.06802e+01
9.33722e-02,3.78874e+01
9.48645e-02,3.52530e+01
9.63805e-02,3.27679e+01
9.79208e-02,3.04237e+01
9.94858e-02,2.82126e+01
1.01076e-01,2.61268e+01
1.02691e-01,2.41594e+01
1.04332e-01,2.23037e+01
1.06000e-01,2.05533e+01
1.07694e-01,1.89022e+01
1.09415e-01,1.73449e+01
1.11163e-01,1.58760e+01
1.12940e-01,1.44905e+01
1.14745e-01,1.31837e+01
1.16579e-01,1.19511e+01
1.18442e-01,1.07885e+01
1.20335e-01,9.69202e+00
1.22258e-01,8.65781e+00
1.24212e-01,7.68237e+00
1.26197e-01,6.76236e+00
1.28214e-01,5.89464e+00
1.30263e-01,5.07625e+00
1.32344e-01,4.30439e+00
1.34459e-01,3.57640e+00
1.36608e-01,2.88981e+00
1.38791e-01,2.24226e+00
1.41010e-01,1.63154e+00
1.43263e-01,1.05555e+00
1.45553e-01,5.12326e-01
1.47879e-01,0.00000e+00
