m1=14402.985, m2=30.018, gsp=2.331, rhosp=16.647
fGW[Hz],dPh[rad]
3.24560e-03,6.18093e+03
3.32058e-03,5.88293e+03
3.39729e-03,5.59911e+03
3.47577e-03,5.32879e+03
3.55607e-03,5.07134e+03
3.63822e-03,4.82613e+03
3.72227e-03,4.59261e+03
3.80826e-03,4.37021e+03
3.89624e-03,4.15841e+03
3.98625e-03,3.95670e+03
4.07834e-03,3.76462e+03
4.17256e-03,3.58170e+03
4.26896e-03,3.40751e+03
4.36758e-03,3.24164e+03
4.46848e-03,3.08369e+03
4.57171e-03,2.93330e+03
4.67732e-03,2.79009e+03
4.78538e-03,2.65374e+03
4.89593e-03,2.52391e+03
5.00904e-03,2.40031e+03
5.12476e-03,2.28262e+03
5.24315e-03,2.17058e+03
5.36427e-03,2.06392e+03
5.48820e-03,1.96237e+03
5.61499e-03,1.86571e+03
5.74471e-03,1.77369e+03
5.87742e-03,1.68609e+03
6.01320e-03,1.60271e+03
6.15212e-03,1.52335e+03
6.29424e-03,1.44782e+03
6.43965e-03,1.37593e+03
6.58842e-03,1.30751e+03
6.74063e-03,1.24239e+03
6.89635e-03,1.18042e+03
7.05567e-03,1.12146e+03
7.21867e-03,1.06535e+03
7.38543e-03,1.01196e+03
7.55605e-03,9.61157e+02
7.73061e-03,9.12825e+02
7.90920e-03,8.66844e+02
8.09192e-03,8.23101e+02
8.27886e-03,7.81490e+02
8.47012e-03,7.41908e+02
8.66579e-03,7.04260e+02
8.86599e-03,6.68452e+02
9.07081e-03,6.34397e+02
9.28037e-03,6.02011e+02
9.49476e-03,5.71215e+02
9.71411e-03,5.41932e+02
9.93852e-03,5.14089e+02
1.01681e-02,4.87619e+02
1.04030e-02,4.62454e+02
1.06434e-02,4.38534e+02
1.08892e-02,4.15797e+02
1.11408e-02,3.94187e+02
1.13982e-02,3.73650e+02
1.16615e-02,3.54134e+02
1.19309e-02,3.35590e+02
1.22065e-02,3.17972e+02
1.24885e-02,3.01234e+02
1.27770e-02,2.85334e+02
1.30722e-02,2.70233e+02
1.33742e-02,2.55890e+02
1.36832e-02,2.42270e+02
1.39993e-02,2.29338e+02
1.43227e-02,2.17059e+02
1.46536e-02,2.05403e+02
1.49921e-02,1.94340e+02
1.53384e-02,1.83839e+02
1.56928e-02,1.73875e+02
1.60553e-02,1.64420e+02
1.64262e-02,1.55450e+02
1.68057e-02,1.46942e+02
1.71940e-02,1.38872e+02
1.75912e-02,1.31219e+02
1.79976e-02,1.23963e+02
1.84133e-02,1.17084e+02
1.88387e-02,1.10563e+02
1.92739e-02,1.04383e+02
1.97192e-02,9.85277e+01
2.01748e-02,9.29799e+01
2.06408e-02,8.77248e+01
2.11177e-02,8.27477e+01
2.16055e-02,7.80349e+01
2.21047e-02,7.35731e+01
2.26153e-02,6.93499e+01
2.31378e-02,6.53531e+01
2.36723e-02,6.15714e+01
2.42192e-02,5.79940e+01
2.47787e-02,5.46106e+01
2.53512e-02,5.14113e+01
2.59368e-02,4.83868e+01
2.65360e-02,4.55281e+01
2.71490e-02,4.28269e+01
2.77762e-02,4.02749e+01
2.84179e-02,3.78646e+01
2.90744e-02,3.55886e+01
2.97461e-02,3.34400e+01
3.04333e-02,3.14122e+01
3.11364e-02,2.94988e+01
3.18557e-02,2.76940e+01
3.25916e-02,2.59919e+01
3.33445e-02,2.43872e+01
3.41149e-02,2.28748e+01
3.49030e-02,2.14496e+01
3.57093e-02,2.01072e+01
3.65343e-02,1.88430e+01
3.73783e-02,1.76528e+01
3.82418e-02,1.65326e+01
3.91253e-02,1.54787e+01
4.00291e-02,1.44874e+01
4.09539e-02,1.35553e+01
4.19000e-02,1.26792e+01
4.28680e-02,1.18559e+01
4.38583e-02,1.10825e+01
4.48715e-02,1.03562e+01
4.59081e-02,9.67434e+00
4.69687e-02,9.03448e+00
4.80538e-02,8.43420e+00
4.91639e-02,7.87124e+00
5.02997e-02,7.34346e+00
5.14617e-02,6.84884e+00
5.26506e-02,6.38544e+00
5.38669e-02,5.95145e+00
5.51113e-02,5.54514e+00
5.63845e-02,5.16488e+00
5.76871e-02,4.80912e+00
5.90198e-02,4.47640e+00
6.03833e-02,4.16535e+00
6.17783e-02,3.87464e+00
6.32055e-02,3.60304e+00
6.46656e-02,3.34940e+00
6.61595e-02,3.11260e+00
6.76879e-02,2.89160e+00
6.92517e-02,2.68542e+00
7.08515e-02,2.49313e+00
7.24883e-02,2.31386e+00
7.41630e-02,2.14679e+00
7.58763e-02,1.99113e+00
7.76292e-02,1.84617e+00
7.94225e-02,1.71120e+00
8.12574e-02,1.58559e+00
8.31346e-02,1.46872e+00
8.50551e-02,1.36002e+00
8.70201e-02,1.25895e+00
8.90304e-02,1.16501e+00
9.10872e-02,1.07772e+00
9.31915e-02,9.96639e-01
9.53444e-02,9.21347e-01
9.75470e-02,8.51451e-01
9.98006e-02,7.86586e-01
1.02106e-01,7.26408e-01
1.04465e-01,6.70593e-01
1.06878e-01,6.18841e-01
1.09347e-01,5.70871e-01
1.11874e-01,5.26417e-01
1.14458e-01,4.85234e-01
1.17102e-01,4.47092e-01
1.19808e-01,4.11775e-01
1.22575e-01,3.79083e-01
1.25407e-01,3.48828e-01
1.28304e-01,3.20836e-01
1.31268e-01,2.94944e-01
1.34301e-01,2.71001e-01
1.37404e-01,2.48864e-01
1.40578e-01,2.28403e-01
1.43825e-01,2.09494e-01
1.47148e-01,1.92025e-01
1.50548e-01,1.75888e-01
1.54025e-01,1.60986e-01
1.57584e-01,1.47226e-01
1.61224e-01,1.34524e-01
1.64949e-01,1.22801e-01
1.68759e-01,1.11983e-01
1.72658e-01,1.02002e-01
1.76647e-01,9.27961e-02
1.80728e-01,8.43054e-02
1.84903e-01,7.64760e-02
1.89175e-01,6.92577e-02
1.93545e-01,6.26039e-02
1.98016e-01,5.64713e-02
2.02591e-01,5.08201e-02
2.07271e-01,4.56132e-02
2.12059e-01,4.08164e-02
2.16958e-01,3.63980e-02
2.21971e-01,3.23288e-02
2.27098e-01,2.85816e-02
2.32345e-01,2.51314e-02
2.37713e-01,2.19551e-02
2.43204e-01,1.90312e-02
2.48823e-01,1.63401e-02
2.54571e-01,1.38635e-02
2.60452e-01,1.15845e-02
2.66469e-01,9.48763e-03
2.72625e-01,7.55850e-03
2.78923e-01,5.78389e-03
2.85367e-01,4.15156e-03
2.91959e-01,2.65026e-03
2.98704e-01,1.26960e-03
3.05605e-01,0.00000e+00
