m1=8364.342, m2=24.257, gsp=2.383, rhosp=369.760
fGW[Hz],dPh[rad]
4.02760e-03,2.64166e+04
4.12745e-03,2.50890e+04
4.22976e-03,2.38276e+04
4.33462e-03,2.26290e+04
4.44207e-03,2.14903e+04
4.55219e-03,2.04083e+04
4.66504e-03,1.93803e+04
4.78068e-03,1.84036e+04
4.89919e-03,1.74756e+04
5.02064e-03,1.65940e+04
5.14510e-03,1.57563e+04
5.27265e-03,1.49605e+04
5.40335e-03,1.42045e+04
5.53730e-03,1.34862e+04
5.67457e-03,1.28039e+04
5.81524e-03,1.21556e+04
5.95940e-03,1.15398e+04
6.10713e-03,1.09548e+04
6.25852e-03,1.03990e+04
6.41367e-03,9.87105e+03
6.57266e-03,9.36954e+03
6.73560e-03,8.89315e+03
6.90257e-03,8.44062e+03
7.07368e-03,8.01078e+03
7.24903e-03,7.60249e+03
7.42874e-03,7.21468e+03
7.61289e-03,6.84633e+03
7.80161e-03,6.49646e+03
7.99501e-03,6.16417e+03
8.19321e-03,5.84858e+03
8.39631e-03,5.54885e+03
8.60445e-03,5.26419e+03
8.81775e-03,4.99385e+03
9.03634e-03,4.73713e+03
9.26035e-03,4.49333e+03
9.48991e-03,4.26182e+03
9.72516e-03,4.04198e+03
9.96625e-03,3.83324e+03
1.02133e-02,3.63503e+03
1.04665e-02,3.44684e+03
1.07260e-02,3.26816e+03
1.09918e-02,3.09851e+03
1.12643e-02,2.93746e+03
1.15436e-02,2.78456e+03
1.18297e-02,2.63941e+03
1.21230e-02,2.50162e+03
1.24235e-02,2.37083e+03
1.27315e-02,2.24669e+03
1.30471e-02,2.12886e+03
1.33705e-02,2.01703e+03
1.37020e-02,1.91089e+03
1.40416e-02,1.81017e+03
1.43897e-02,1.71459e+03
1.47464e-02,1.62389e+03
1.51120e-02,1.53783e+03
1.54866e-02,1.45617e+03
1.58705e-02,1.37871e+03
1.62640e-02,1.30521e+03
1.66671e-02,1.23550e+03
1.70803e-02,1.16937e+03
1.75037e-02,1.10664e+03
1.79376e-02,1.04715e+03
1.83823e-02,9.90736e+02
1.88380e-02,9.37236e+02
1.93050e-02,8.86507e+02
1.97835e-02,8.38408e+02
2.02740e-02,7.92808e+02
2.07766e-02,7.49581e+02
2.12916e-02,7.08606e+02
2.18194e-02,6.69769e+02
2.23603e-02,6.32964e+02
2.29146e-02,5.98086e+02
2.34827e-02,5.65038e+02
2.40648e-02,5.33728e+02
2.46613e-02,5.04067e+02
2.52727e-02,4.75971e+02
2.58992e-02,4.49362e+02
2.65412e-02,4.24163e+02
2.71992e-02,4.00302e+02
2.78734e-02,3.77712e+02
2.85644e-02,3.56327e+02
2.92725e-02,3.36087e+02
2.99981e-02,3.16931e+02
3.07418e-02,2.98806e+02
3.15039e-02,2.81657e+02
3.22848e-02,2.65435e+02
3.30852e-02,2.50092e+02
3.39053e-02,2.35583e+02
3.47458e-02,2.21864e+02
3.56072e-02,2.08895e+02
3.64899e-02,1.96638e+02
3.73944e-02,1.85054e+02
3.83214e-02,1.74110e+02
3.92714e-02,1.63771e+02
4.02449e-02,1.54007e+02
4.12426e-02,1.44787e+02
4.22650e-02,1.36082e+02
4.33127e-02,1.27866e+02
4.43864e-02,1.20113e+02
4.54867e-02,1.12798e+02
4.66143e-02,1.05899e+02
4.77699e-02,9.93927e+01
4.89541e-02,9.32587e+01
5.01676e-02,8.74771e+01
5.14113e-02,8.20291e+01
5.26858e-02,7.68967e+01
5.39918e-02,7.20629e+01
5.53303e-02,6.75116e+01
5.67019e-02,6.32275e+01
5.81075e-02,5.91961e+01
5.95480e-02,5.54035e+01
6.10241e-02,5.18366e+01
6.25369e-02,4.84832e+01
6.40872e-02,4.53312e+01
6.56759e-02,4.23696e+01
6.73039e-02,3.95878e+01
6.89724e-02,3.69757e+01
7.06822e-02,3.45237e+01
7.24344e-02,3.22229e+01
7.42300e-02,3.00646e+01
7.60701e-02,2.80407e+01
7.79559e-02,2.61436e+01
7.98884e-02,2.43658e+01
8.18688e-02,2.27006e+01
8.38983e-02,2.11413e+01
8.59781e-02,1.96818e+01
8.81094e-02,1.83161e+01
9.02936e-02,1.70388e+01
9.25320e-02,1.58446e+01
9.48258e-02,1.47285e+01
9.71765e-02,1.36857e+01
9.95855e-02,1.27120e+01
1.02054e-01,1.18030e+01
1.04584e-01,1.09547e+01
1.07177e-01,1.01635e+01
1.09834e-01,9.42586e+00
1.12556e-01,8.73833e+00
1.15347e-01,8.09781e+00
1.18206e-01,7.50132e+00
1.21136e-01,6.94606e+00
1.24139e-01,6.42939e+00
1.27216e-01,5.94882e+00
1.30370e-01,5.50201e+00
1.33602e-01,5.08676e+00
1.36914e-01,4.70099e+00
1.40308e-01,4.34275e+00
1.43786e-01,4.01021e+00
1.47351e-01,3.70165e+00
1.51003e-01,3.41546e+00
1.54747e-01,3.15011e+00
1.58583e-01,2.90418e+00
1.62514e-01,2.67634e+00
1.66543e-01,2.46534e+00
1.70671e-01,2.27000e+00
1.74902e-01,2.08924e+00
1.79238e-01,1.92202e+00
1.83681e-01,1.76740e+00
1.88234e-01,1.62446e+00
1.92901e-01,1.49238e+00
1.97683e-01,1.37037e+00
2.02583e-01,1.25770e+00
2.07605e-01,1.15370e+00
2.12752e-01,1.05772e+00
2.18026e-01,9.69186e-01
2.23430e-01,8.87537e-01
2.28969e-01,8.12264e-01
2.34645e-01,7.42891e-01
2.40462e-01,6.78974e-01
2.46423e-01,6.20101e-01
2.52532e-01,5.65891e-01
2.58792e-01,5.15988e-01
2.65207e-01,4.70062e-01
2.71782e-01,4.27810e-01
2.78519e-01,3.88946e-01
2.85423e-01,3.53208e-01
2.92499e-01,3.20353e-01
2.99750e-01,2.90157e-01
3.07180e-01,2.62410e-01
3.14795e-01,2.36921e-01
3.22599e-01,2.13509e-01
3.30596e-01,1.92012e-01
3.38792e-01,1.72277e-01
3.47190e-01,1.54162e-01
3.55797e-01,1.37539e-01
3.64617e-01,1.22288e-01
3.73656e-01,1.08298e-01
3.82918e-01,9.54666e-02
3.92411e-01,8.37009e-02
4.02138e-01,7.29139e-02
4.12107e-01,6.30260e-02
4.22323e-01,5.39637e-02
4.32793e-01,4.56594e-02
4.43521e-01,3.80509e-02
4.54516e-01,3.10809e-02
4.65783e-01,2.46968e-02
4.77330e-01,1.88501e-02
4.89163e-01,1.34964e-02
5.01289e-01,8.59469e-03
5.13716e-01,4.10740e-03
5.26451e-01,0.00000e+00
