m1=27064.195, m2=4.021, gsp=2.382, rhosp=23.096
fGW[Hz],dPh[rad]
5.88987e-03,1.25168e+05
5.98888e-03,1.19417e+05
6.08955e-03,1.13911e+05
6.19191e-03,1.08641e+05
6.29600e-03,1.03598e+05
6.40183e-03,9.87725e+04
6.50944e-03,9.41563e+04
6.61887e-03,8.97409e+04
6.73013e-03,8.55182e+04
6.84326e-03,8.14806e+04
6.95829e-03,7.76206e+04
7.07526e-03,7.39310e+04
7.19419e-03,7.04050e+04
7.31512e-03,6.70358e+04
7.43809e-03,6.38171e+04
7.56312e-03,6.07427e+04
7.69025e-03,5.78066e+04
7.81952e-03,5.50032e+04
7.95096e-03,5.23269e+04
8.08462e-03,4.97724e+04
8.22052e-03,4.73346e+04
8.35870e-03,4.50086e+04
8.49921e-03,4.27897e+04
8.64208e-03,4.06734e+04
8.78735e-03,3.86553e+04
8.93506e-03,3.67312e+04
9.08525e-03,3.48970e+04
9.23797e-03,3.31489e+04
9.39326e-03,3.14832e+04
9.55116e-03,2.98962e+04
9.71171e-03,2.83846e+04
9.87496e-03,2.69450e+04
1.00410e-02,2.55742e+04
1.02097e-02,2.42692e+04
1.03814e-02,2.30271e+04
1.05559e-02,2.18451e+04
1.07333e-02,2.07204e+04
1.09137e-02,1.96505e+04
1.10972e-02,1.86330e+04
1.12837e-02,1.76653e+04
1.14734e-02,1.67453e+04
1.16663e-02,1.58708e+04
1.18624e-02,1.50396e+04
1.20618e-02,1.42498e+04
1.22645e-02,1.34995e+04
1.24707e-02,1.27867e+04
1.26803e-02,1.21098e+04
1.28935e-02,1.14671e+04
1.31102e-02,1.08568e+04
1.33306e-02,1.02776e+04
1.35547e-02,9.72791e+03
1.37825e-02,9.20630e+03
1.40142e-02,8.71145e+03
1.42498e-02,8.24206e+03
1.44893e-02,7.79690e+03
1.47329e-02,7.37479e+03
1.49805e-02,6.97460e+03
1.52323e-02,6.59526e+03
1.54884e-02,6.23574e+03
1.57487e-02,5.89506e+03
1.60135e-02,5.57228e+03
1.62826e-02,5.26652e+03
1.65564e-02,4.97692e+03
1.68347e-02,4.70268e+03
1.71176e-02,4.44301e+03
1.74054e-02,4.19718e+03
1.76980e-02,3.96449e+03
1.79955e-02,3.74426e+03
1.82980e-02,3.53587e+03
1.86055e-02,3.33871e+03
1.89183e-02,3.15219e+03
1.92363e-02,2.97576e+03
1.95597e-02,2.80891e+03
1.98885e-02,2.65114e+03
2.02228e-02,2.50197e+03
2.05627e-02,2.36095e+03
2.09084e-02,2.22766e+03
2.12598e-02,2.10168e+03
2.16172e-02,1.98263e+03
2.19806e-02,1.87015e+03
2.23501e-02,1.76388e+03
2.27257e-02,1.66350e+03
2.31078e-02,1.56869e+03
2.34962e-02,1.47915e+03
2.38912e-02,1.39459e+03
2.42928e-02,1.31476e+03
2.47011e-02,1.23939e+03
2.51163e-02,1.16824e+03
2.55385e-02,1.10108e+03
2.59678e-02,1.03771e+03
2.64043e-02,9.77896e+02
2.68482e-02,9.21461e+02
2.72995e-02,8.68216e+02
2.77584e-02,8.17985e+02
2.82250e-02,7.70602e+02
2.86994e-02,7.25909e+02
2.91819e-02,6.83759e+02
2.96724e-02,6.44009e+02
3.01712e-02,6.06528e+02
3.06784e-02,5.71187e+02
3.11940e-02,5.37868e+02
3.17184e-02,5.06458e+02
3.22516e-02,4.76851e+02
3.27937e-02,4.48943e+02
3.33450e-02,4.22641e+02
3.39055e-02,3.97854e+02
3.44754e-02,3.74496e+02
3.50549e-02,3.52487e+02
3.56442e-02,3.31749e+02
3.62434e-02,3.12212e+02
3.68526e-02,2.93807e+02
3.74721e-02,2.76469e+02
3.81020e-02,2.60137e+02
3.87425e-02,2.44755e+02
3.93937e-02,2.30268e+02
4.00559e-02,2.16624e+02
4.07292e-02,2.03776e+02
4.14139e-02,1.91678e+02
4.21100e-02,1.80286e+02
4.28179e-02,1.69560e+02
4.35376e-02,1.59462e+02
4.42695e-02,1.49955e+02
4.50136e-02,1.41006e+02
4.57703e-02,1.32581e+02
4.65397e-02,1.24651e+02
4.73220e-02,1.17187e+02
4.81175e-02,1.10162e+02
4.89263e-02,1.03550e+02
4.97487e-02,9.73272e+01
5.05850e-02,9.14714e+01
5.14353e-02,8.59609e+01
5.22999e-02,8.07757e+01
5.31791e-02,7.58965e+01
5.40730e-02,7.13057e+01
5.49819e-02,6.69864e+01
5.59062e-02,6.29225e+01
5.68459e-02,5.90992e+01
5.78015e-02,5.55024e+01
5.87731e-02,5.21188e+01
5.97611e-02,4.89358e+01
6.07656e-02,4.59416e+01
6.17871e-02,4.31252e+01
6.28257e-02,4.04760e+01
6.38818e-02,3.79843e+01
6.49556e-02,3.56407e+01
6.60475e-02,3.34364e+01
6.71577e-02,3.13634e+01
6.82866e-02,2.94138e+01
6.94345e-02,2.75803e+01
7.06017e-02,2.58560e+01
7.17884e-02,2.42345e+01
7.29952e-02,2.27097e+01
7.42222e-02,2.12759e+01
7.54699e-02,1.99276e+01
7.67385e-02,1.86599e+01
7.80284e-02,1.74678e+01
7.93401e-02,1.63470e+01
8.06737e-02,1.52932e+01
8.20298e-02,1.43023e+01
8.34087e-02,1.33707e+01
8.48108e-02,1.24949e+01
8.62364e-02,1.16715e+01
8.76860e-02,1.08973e+01
8.91600e-02,1.01696e+01
9.06588e-02,9.48536e+00
9.21827e-02,8.84216e+00
9.37323e-02,8.23751e+00
9.53079e-02,7.66911e+00
9.69099e-02,7.13478e+00
9.85390e-02,6.63251e+00
1.00195e-01,6.16036e+00
1.01880e-01,5.71655e+00
1.03592e-01,5.29938e+00
1.05334e-01,4.90725e+00
1.07104e-01,4.53866e+00
1.08905e-01,4.19221e+00
1.10735e-01,3.86658e+00
1.12597e-01,3.56050e+00
1.14489e-01,3.27283e+00
1.16414e-01,3.00244e+00
1.18371e-01,2.74831e+00
1.20360e-01,2.50946e+00
1.22384e-01,2.28498e+00
1.24441e-01,2.07399e+00
1.26533e-01,1.87570e+00
1.28660e-01,1.68934e+00
1.30822e-01,1.51420e+00
1.33022e-01,1.34960e+00
1.35258e-01,1.19491e+00
1.37531e-01,1.04953e+00
1.39843e-01,9.12902e-01
1.42194e-01,7.84505e-01
1.44584e-01,6.63841e-01
1.47014e-01,5.50446e-01
1.49486e-01,4.43884e-01
1.51998e-01,3.43742e-01
1.54553e-01,2.49635e-01
1.57151e-01,1.61199e-01
1.59793e-01,7.80948e-02
1.62479e-01,0.00000e+00
