m1=1592.827, m2=3.802, gsp=2.149, rhosp=205.223
fGW[Hz],dPh[rad]
1.22152e-02,6.92028e+02
1.25526e-02,6.50911e+02
1.28993e-02,6.12228e+02
1.32556e-02,5.75835e+02
1.36217e-02,5.41597e+02
1.39979e-02,5.09386e+02
1.43845e-02,4.79084e+02
1.47818e-02,4.50575e+02
1.51901e-02,4.23756e+02
1.56096e-02,3.98526e+02
1.60407e-02,3.74790e+02
1.64838e-02,3.52461e+02
1.69390e-02,3.31456e+02
1.74069e-02,3.11696e+02
1.78876e-02,2.93107e+02
1.83817e-02,2.75620e+02
1.88894e-02,2.59170e+02
1.94111e-02,2.43697e+02
1.99472e-02,2.29141e+02
2.04981e-02,2.15448e+02
2.10643e-02,2.02569e+02
2.16460e-02,1.90454e+02
2.22439e-02,1.79058e+02
2.28582e-02,1.68339e+02
2.34896e-02,1.58256e+02
2.41383e-02,1.48773e+02
2.48050e-02,1.39853e+02
2.54901e-02,1.31463e+02
2.61941e-02,1.23573e+02
2.69176e-02,1.16151e+02
2.76610e-02,1.09171e+02
2.84250e-02,1.02606e+02
2.92101e-02,9.64320e+01
3.00168e-02,9.06256e+01
3.08459e-02,8.51651e+01
3.16978e-02,8.00298e+01
3.25733e-02,7.52007e+01
3.34729e-02,7.06594e+01
3.43974e-02,6.63891e+01
3.53474e-02,6.23735e+01
3.63237e-02,5.85977e+01
3.73269e-02,5.50473e+01
3.83579e-02,5.17091e+01
3.94173e-02,4.85703e+01
4.05060e-02,4.56193e+01
4.16247e-02,4.28449e+01
4.27743e-02,4.02365e+01
4.39557e-02,3.77843e+01
4.51697e-02,3.54791e+01
4.64173e-02,3.33122e+01
4.76993e-02,3.12752e+01
4.90167e-02,2.93605e+01
5.03705e-02,2.75608e+01
5.17617e-02,2.58693e+01
5.31913e-02,2.42796e+01
5.46604e-02,2.27855e+01
5.61701e-02,2.13815e+01
5.77215e-02,2.00621e+01
5.93157e-02,1.88222e+01
6.09539e-02,1.76573e+01
6.26374e-02,1.65628e+01
6.43674e-02,1.55344e+01
6.61452e-02,1.45684e+01
6.79721e-02,1.36609e+01
6.98494e-02,1.28084e+01
7.17786e-02,1.20077e+01
7.37611e-02,1.12557e+01
7.57983e-02,1.05494e+01
7.78918e-02,9.88617e+00
8.00431e-02,9.26339e+00
8.22538e-02,8.67865e+00
8.45256e-02,8.12967e+00
8.68601e-02,7.61430e+00
8.92591e-02,7.13053e+00
9.17244e-02,6.67647e+00
9.42577e-02,6.25032e+00
9.68611e-02,5.85042e+00
9.95363e-02,5.47519e+00
1.02285e-01,5.12313e+00
1.05110e-01,4.79287e+00
1.08013e-01,4.48307e+00
1.10997e-01,4.19252e+00
1.14062e-01,3.92004e+00
1.17213e-01,3.66454e+00
1.20450e-01,3.42500e+00
1.23777e-01,3.20046e+00
1.27195e-01,2.98999e+00
1.30708e-01,2.79276e+00
1.34318e-01,2.60795e+00
1.38028e-01,2.43480e+00
1.41840e-01,2.27262e+00
1.45758e-01,2.12073e+00
1.49784e-01,1.97849e+00
1.53921e-01,1.84533e+00
1.58172e-01,1.72068e+00
1.62540e-01,1.60403e+00
1.67029e-01,1.49488e+00
1.71643e-01,1.39276e+00
1.76383e-01,1.29726e+00
1.81255e-01,1.20795e+00
1.86261e-01,1.12445e+00
1.91405e-01,1.04641e+00
1.96692e-01,9.73485e-01
2.02124e-01,9.05354e-01
2.07707e-01,8.41720e-01
2.13444e-01,7.82301e-01
2.19339e-01,7.26833e-01
2.25397e-01,6.75066e-01
2.31622e-01,6.26769e-01
2.38019e-01,5.81721e-01
2.44593e-01,5.39716e-01
2.51348e-01,5.00561e-01
2.58290e-01,4.64073e-01
2.65424e-01,4.30083e-01
2.72755e-01,3.98428e-01
2.80288e-01,3.68960e-01
2.88030e-01,3.41536e-01
2.95985e-01,3.16023e-01
3.04160e-01,2.92298e-01
3.12560e-01,2.70242e-01
3.21193e-01,2.49747e-01
3.30064e-01,2.30708e-01
3.39180e-01,2.13030e-01
3.48548e-01,1.96622e-01
3.58175e-01,1.81399e-01
3.68067e-01,1.67281e-01
3.78233e-01,1.54194e-01
3.88679e-01,1.42067e-01
3.99414e-01,1.30835e-01
4.10446e-01,1.20437e-01
4.21782e-01,1.10814e-01
4.33431e-01,1.01914e-01
4.45402e-01,9.36855e-02
4.57704e-01,8.60816e-02
4.70345e-01,7.90581e-02
4.83336e-01,7.25739e-02
4.96685e-01,6.65905e-02
5.10403e-01,6.10718e-02
5.24500e-01,5.59842e-02
5.38986e-01,5.12963e-02
5.53873e-01,4.69789e-02
5.69170e-01,4.30047e-02
5.84890e-01,3.93481e-02
6.01044e-01,3.59855e-02
6.17645e-01,3.28947e-02
6.34703e-01,3.00553e-02
6.52233e-01,2.74480e-02
6.70248e-01,2.50550e-02
6.88759e-01,2.28599e-02
7.07782e-01,2.08472e-02
7.27331e-01,1.90027e-02
7.47419e-01,1.73131e-02
7.68062e-01,1.57663e-02
7.89275e-01,1.43508e-02
8.11074e-01,1.30560e-02
8.33476e-01,1.18723e-02
8.56495e-01,1.07906e-02
8.80151e-01,9.80251e-03
9.04460e-01,8.90043e-03
9.29441e-01,8.07722e-03
9.55111e-01,7.32630e-03
9.81490e-01,6.64163e-03
1.00860e+00,6.01762e-03
1.03645e+00,5.44913e-03
1.06508e+00,4.93145e-03
1.09450e+00,4.46023e-03
1.12473e+00,4.03145e-03
1.15579e+00,3.64145e-03
1.18771e+00,3.28686e-03
1.22052e+00,2.96459e-03
1.25423e+00,2.67178e-03
1.28887e+00,2.40585e-03
1.32446e+00,2.16441e-03
1.36104e+00,1.94528e-03
1.39864e+00,1.74646e-03
1.43726e+00,1.56613e-03
1.47696e+00,1.40262e-03
1.51775e+00,1.25440e-03
1.55967e+00,1.12008e-03
1.60275e+00,9.98404e-04
1.64702e+00,8.88201e-04
1.69251e+00,7.88419e-04
1.73925e+00,6.98096e-04
1.78729e+00,6.16356e-04
1.83665e+00,5.42402e-04
1.88738e+00,4.75507e-04
1.93951e+00,4.15012e-04
1.99307e+00,3.60318e-04
2.04812e+00,3.10877e-04
2.10469e+00,2.66195e-04
2.16282e+00,2.25821e-04
2.22255e+00,1.89348e-04
2.28394e+00,1.56405e-04
2.34702e+00,1.26655e-04
2.41184e+00,9.97940e-05
2.47845e+00,7.55448e-05
2.54691e+00,5.36573e-05
2.61725e+00,3.39044e-05
2.68954e+00,1.60807e-05
2.76382e+00,0.00000e+00
