m1=1280.012, m2=20.470, gsp=2.477, rhosp=69.557
fGW[Hz],dPh[rad]
6.87389e-03,2.97695e+04
7.09220e-03,2.79503e+04
7.31746e-03,2.62422e+04
7.54986e-03,2.46385e+04
7.78965e-03,2.31327e+04
8.03705e-03,2.17188e+04
8.29231e-03,2.03914e+04
8.55568e-03,1.91450e+04
8.82741e-03,1.79747e+04
9.10777e-03,1.68760e+04
9.39703e-03,1.58443e+04
9.69549e-03,1.48757e+04
1.00034e-02,1.39662e+04
1.03211e-02,1.31123e+04
1.06489e-02,1.23105e+04
1.09871e-02,1.15577e+04
1.13361e-02,1.08510e+04
1.16961e-02,1.01873e+04
1.20676e-02,9.56428e+03
1.24509e-02,8.97927e+03
1.28463e-02,8.43001e+03
1.32543e-02,7.91430e+03
1.36753e-02,7.43010e+03
1.41096e-02,6.97549e+03
1.45578e-02,6.54865e+03
1.50201e-02,6.14789e+03
1.54972e-02,5.77162e+03
1.59894e-02,5.41835e+03
1.64972e-02,5.08666e+03
1.70211e-02,4.77524e+03
1.75617e-02,4.48285e+03
1.81195e-02,4.20833e+03
1.86950e-02,3.95059e+03
1.92888e-02,3.70860e+03
1.99014e-02,3.48141e+03
2.05334e-02,3.26810e+03
2.11856e-02,3.06783e+03
2.18585e-02,2.87980e+03
2.25527e-02,2.70327e+03
2.32690e-02,2.53753e+03
2.40080e-02,2.38192e+03
2.47705e-02,2.23583e+03
2.55572e-02,2.09868e+03
2.63689e-02,1.96991e+03
2.72064e-02,1.84901e+03
2.80705e-02,1.73551e+03
2.89620e-02,1.62895e+03
2.98819e-02,1.52891e+03
3.08309e-02,1.43499e+03
3.18101e-02,1.34682e+03
3.28204e-02,1.26404e+03
3.38628e-02,1.18633e+03
3.49383e-02,1.11337e+03
3.60480e-02,1.04488e+03
3.71929e-02,9.80582e+02
3.83741e-02,9.20220e+02
3.95929e-02,8.63554e+02
4.08504e-02,8.10358e+02
4.21478e-02,7.60420e+02
4.34865e-02,7.13540e+02
4.48676e-02,6.69533e+02
4.62926e-02,6.28222e+02
4.77629e-02,5.89443e+02
4.92799e-02,5.53041e+02
5.08450e-02,5.18870e+02
5.24599e-02,4.86794e+02
5.41260e-02,4.56686e+02
5.58451e-02,4.28424e+02
5.76187e-02,4.01897e+02
5.94487e-02,3.76997e+02
6.13368e-02,3.53626e+02
6.32849e-02,3.31689e+02
6.52949e-02,3.11100e+02
6.73686e-02,2.91775e+02
6.95083e-02,2.73638e+02
7.17159e-02,2.56616e+02
7.39936e-02,2.40640e+02
7.63437e-02,2.25647e+02
7.87684e-02,2.11576e+02
8.12701e-02,1.98371e+02
8.38513e-02,1.85980e+02
8.65144e-02,1.74351e+02
8.92622e-02,1.63439e+02
9.20972e-02,1.53200e+02
9.50222e-02,1.43592e+02
9.80401e-02,1.34577e+02
1.01154e-01,1.26118e+02
1.04367e-01,1.18182e+02
1.07681e-01,1.10736e+02
1.11101e-01,1.03751e+02
1.14630e-01,9.71979e+01
1.18271e-01,9.10503e+01
1.22027e-01,8.52836e+01
1.25903e-01,7.98743e+01
1.29901e-01,7.48005e+01
1.34027e-01,7.00416e+01
1.38284e-01,6.55784e+01
1.42676e-01,6.13927e+01
1.47207e-01,5.74673e+01
1.51882e-01,5.37865e+01
1.56706e-01,5.03350e+01
1.61683e-01,4.70989e+01
1.66819e-01,4.40649e+01
1.72117e-01,4.12206e+01
1.77583e-01,3.85542e+01
1.83223e-01,3.60550e+01
1.89043e-01,3.37125e+01
1.95047e-01,3.15171e+01
2.01241e-01,2.94598e+01
2.07633e-01,2.75321e+01
2.14227e-01,2.57259e+01
2.21031e-01,2.40337e+01
2.28051e-01,2.24486e+01
2.35294e-01,2.09639e+01
2.42767e-01,1.95734e+01
2.50478e-01,1.82713e+01
2.58433e-01,1.70521e+01
2.66641e-01,1.59106e+01
2.75110e-01,1.48422e+01
2.83847e-01,1.38421e+01
2.92862e-01,1.29063e+01
3.02164e-01,1.20306e+01
3.11760e-01,1.12114e+01
3.21662e-01,1.04452e+01
3.31878e-01,9.72854e+00
3.42419e-01,9.05847e+00
3.53294e-01,8.43203e+00
3.64515e-01,7.84650e+00
3.76092e-01,7.29932e+00
3.88037e-01,6.78809e+00
4.00361e-01,6.31054e+00
4.13077e-01,5.86456e+00
4.26196e-01,5.44815e+00
4.39732e-01,5.05947e+00
4.53698e-01,4.69674e+00
4.68108e-01,4.35833e+00
4.82975e-01,4.04269e+00
4.98315e-01,3.74837e+00
5.14141e-01,3.47403e+00
5.30471e-01,3.21837e+00
5.47319e-01,2.98020e+00
5.64702e-01,2.75840e+00
5.82637e-01,2.55192e+00
6.01141e-01,2.35976e+00
6.20234e-01,2.18099e+00
6.39933e-01,2.01476e+00
6.60257e-01,1.86022e+00
6.81227e-01,1.71663e+00
7.02863e-01,1.58326e+00
7.25187e-01,1.45944e+00
7.48219e-01,1.34453e+00
7.71982e-01,1.23794e+00
7.96501e-01,1.13912e+00
8.21798e-01,1.04754e+00
8.47899e-01,9.62710e-01
8.74828e-01,8.84177e-01
9.02613e-01,8.11509e-01
9.31280e-01,7.44303e-01
9.60858e-01,6.82183e-01
9.91375e-01,6.24796e-01
1.02286e+00,5.71810e-01
1.05535e+00,5.22916e-01
1.08887e+00,4.77825e-01
1.12345e+00,4.36265e-01
1.15913e+00,3.97983e-01
1.19594e+00,3.62742e-01
1.23393e+00,3.30320e-01
1.27312e+00,3.00511e-01
1.31355e+00,2.73122e-01
1.35527e+00,2.47972e-01
1.39832e+00,2.24893e-01
1.44273e+00,2.03728e-01
1.48855e+00,1.84332e-01
1.53583e+00,1.66568e-01
1.58460e+00,1.50310e-01
1.63493e+00,1.35439e-01
1.68686e+00,1.21847e-01
1.74043e+00,1.09431e-01
1.79571e+00,9.80980e-02
1.85274e+00,8.77595e-02
1.91159e+00,7.83348e-02
1.97230e+00,6.97485e-02
2.03494e+00,6.19311e-02
2.09957e+00,5.48184e-02
2.16625e+00,4.83509e-02
2.23505e+00,4.24739e-02
2.30604e+00,3.71366e-02
2.37928e+00,3.22926e-02
2.45485e+00,2.78988e-02
2.53281e+00,2.39158e-02
2.61326e+00,2.03073e-02
2.69626e+00,1.70399e-02
2.78189e+00,1.40830e-02
2.87024e+00,1.14087e-02
2.96140e+00,8.99118e-03
3.05546e+00,6.80696e-03
3.15250e+00,4.83454e-03
3.25263e+00,3.05426e-03
3.35593e+00,1.44821e-03
3.46252e+00,0.00000e+00
