m1=1899.663, m2=3.830, gsp=2.500, rhosp=701.985
fGW[Hz],dPh[rad]
1.16560e-02,6.46719e+05
1.19701e-02,6.12872e+05
1.22927e-02,5.80784e+05
1.26240e-02,5.50365e+05
1.29642e-02,5.21527e+05
1.33136e-02,4.94189e+05
1.36724e-02,4.68273e+05
1.40409e-02,4.43705e+05
1.44193e-02,4.20415e+05
1.48079e-02,3.98338e+05
1.52070e-02,3.77410e+05
1.56169e-02,3.57571e+05
1.60377e-02,3.38765e+05
1.64700e-02,3.20939e+05
1.69139e-02,3.04041e+05
1.73697e-02,2.88024e+05
1.78378e-02,2.72841e+05
1.83186e-02,2.58450e+05
1.88123e-02,2.44810e+05
1.93193e-02,2.31880e+05
1.98399e-02,2.19626e+05
2.03746e-02,2.08011e+05
2.09238e-02,1.97002e+05
2.14877e-02,1.86568e+05
2.20668e-02,1.76679e+05
2.26615e-02,1.67307e+05
2.32722e-02,1.58424e+05
2.38994e-02,1.50006e+05
2.45435e-02,1.42029e+05
2.52050e-02,1.34468e+05
2.58843e-02,1.27304e+05
2.65819e-02,1.20515e+05
2.72983e-02,1.14081e+05
2.80340e-02,1.07985e+05
2.87896e-02,1.02208e+05
2.95655e-02,9.67347e+04
3.03623e-02,9.15485e+04
3.11805e-02,8.66347e+04
3.20209e-02,8.19790e+04
3.28839e-02,7.75682e+04
3.37701e-02,7.33894e+04
3.46803e-02,6.94306e+04
3.56149e-02,6.56803e+04
3.65748e-02,6.21277e+04
3.75605e-02,5.87625e+04
3.85728e-02,5.55749e+04
3.96123e-02,5.25557e+04
4.06799e-02,4.96961e+04
4.17763e-02,4.69878e+04
4.29022e-02,4.44228e+04
4.40584e-02,4.19938e+04
4.52458e-02,3.96936e+04
4.64652e-02,3.75156e+04
4.77175e-02,3.54533e+04
4.90035e-02,3.35007e+04
5.03242e-02,3.16520e+04
5.16805e-02,2.99019e+04
5.30733e-02,2.82452e+04
5.45037e-02,2.66770e+04
5.59726e-02,2.51927e+04
5.74811e-02,2.37878e+04
5.90302e-02,2.24583e+04
6.06211e-02,2.12002e+04
6.22549e-02,2.00098e+04
6.39328e-02,1.88834e+04
6.56558e-02,1.78178e+04
6.74253e-02,1.68097e+04
6.92424e-02,1.58561e+04
7.11086e-02,1.49542e+04
7.30250e-02,1.41013e+04
7.49931e-02,1.32947e+04
7.70142e-02,1.25321e+04
7.90898e-02,1.18111e+04
8.12213e-02,1.11295e+04
8.34103e-02,1.04852e+04
8.56582e-02,9.87632e+03
8.79668e-02,9.30093e+03
9.03376e-02,8.75726e+03
9.27722e-02,8.24365e+03
9.52725e-02,7.75848e+03
9.78402e-02,7.30026e+03
1.00477e-01,6.86754e+03
1.03185e-01,6.45898e+03
1.05966e-01,6.07329e+03
1.08822e-01,5.70924e+03
1.11755e-01,5.36569e+03
1.14766e-01,5.04152e+03
1.17859e-01,4.73571e+03
1.21036e-01,4.44728e+03
1.24298e-01,4.17527e+03
1.27648e-01,3.91882e+03
1.31088e-01,3.67708e+03
1.34621e-01,3.44926e+03
1.38249e-01,3.23460e+03
1.41975e-01,3.03238e+03
1.45801e-01,2.84194e+03
1.49731e-01,2.66262e+03
1.53766e-01,2.49383e+03
1.57910e-01,2.33498e+03
1.62166e-01,2.18553e+03
1.66537e-01,2.04495e+03
1.71025e-01,1.91277e+03
1.75634e-01,1.78851e+03
1.80368e-01,1.67173e+03
1.85229e-01,1.56201e+03
1.90221e-01,1.45897e+03
1.95347e-01,1.36222e+03
2.00612e-01,1.27141e+03
2.06019e-01,1.18621e+03
2.11571e-01,1.10629e+03
2.17273e-01,1.03135e+03
2.23129e-01,9.61109e+02
2.29142e-01,8.95296e+02
2.35318e-01,8.33654e+02
2.41660e-01,7.75941e+02
2.48173e-01,7.21927e+02
2.54861e-01,6.71394e+02
2.61730e-01,6.24138e+02
2.68784e-01,5.79963e+02
2.76027e-01,5.38687e+02
2.83467e-01,5.00134e+02
2.91106e-01,4.64142e+02
2.98952e-01,4.30554e+02
3.07009e-01,3.99223e+02
3.15283e-01,3.70011e+02
3.23780e-01,3.42786e+02
3.32506e-01,3.17425e+02
3.41467e-01,2.93812e+02
3.50670e-01,2.71836e+02
3.60121e-01,2.51392e+02
3.69826e-01,2.32384e+02
3.79794e-01,2.14718e+02
3.90029e-01,1.98307e+02
4.00541e-01,1.83070e+02
4.11336e-01,1.68930e+02
4.22422e-01,1.55813e+02
4.33806e-01,1.43652e+02
4.45498e-01,1.32382e+02
4.57504e-01,1.21943e+02
4.69834e-01,1.12279e+02
4.82496e-01,1.03335e+02
4.95500e-01,9.50634e+01
5.08854e-01,8.74158e+01
5.22568e-01,8.03489e+01
5.36652e-01,7.38216e+01
5.51115e-01,6.77956e+01
5.65968e-01,6.22350e+01
5.81221e-01,5.71060e+01
5.96886e-01,5.23774e+01
6.12972e-01,4.80198e+01
6.29492e-01,4.40059e+01
6.46457e-01,4.03102e+01
6.63880e-01,3.69089e+01
6.81772e-01,3.37800e+01
7.00146e-01,3.09027e+01
7.19016e-01,2.82580e+01
7.38394e-01,2.58280e+01
7.58294e-01,2.35962e+01
7.78731e-01,2.15472e+01
7.99718e-01,1.96668e+01
8.21271e-01,1.79417e+01
8.43405e-01,1.63597e+01
8.66135e-01,1.49094e+01
8.89478e-01,1.35803e+01
9.13450e-01,1.23627e+01
9.38068e-01,1.12477e+01
9.63350e-01,1.02269e+01
9.89313e-01,9.29266e+00
1.01598e+00,8.43790e+00
1.04336e+00,7.65609e+00
1.07148e+00,6.94123e+00
1.10035e+00,6.28776e+00
1.13001e+00,5.69058e+00
1.16046e+00,5.14498e+00
1.19174e+00,4.64664e+00
1.22386e+00,4.19159e+00
1.25684e+00,3.77615e+00
1.29071e+00,3.39699e+00
1.32550e+00,3.05100e+00
1.36122e+00,2.73535e+00
1.39791e+00,2.44746e+00
1.43558e+00,2.18492e+00
1.47427e+00,1.94557e+00
1.51401e+00,1.72738e+00
1.55481e+00,1.52854e+00
1.59671e+00,1.34735e+00
1.63975e+00,1.18228e+00
1.68394e+00,1.03192e+00
1.72932e+00,8.94980e-01
1.77593e+00,7.70285e-01
1.82379e+00,6.56756e-01
1.87294e+00,5.53409e-01
1.92342e+00,4.59343e-01
1.97526e+00,3.73737e-01
2.02849e+00,2.95840e-01
2.08316e+00,2.24967e-01
2.13930e+00,1.60493e-01
2.19696e+00,1.01847e-01
2.25617e+00,4.85074e-02
2.31698e+00,0.00000e+00
