m1=31637.236, m2=94.111, gsp=2.103, rhosp=74.923
fGW[Hz],dPh[rad]
1.73703e-03,7.49624e+01
1.77571e-03,7.12416e+01
1.81526e-03,6.77034e+01
1.85570e-03,6.43390e+01
1.89703e-03,6.11399e+01
1.93928e-03,5.80980e+01
1.98247e-03,5.52056e+01
2.02663e-03,5.24554e+01
2.07177e-03,4.98405e+01
2.11791e-03,4.73542e+01
2.16508e-03,4.49903e+01
2.21331e-03,4.27428e+01
2.26260e-03,4.06059e+01
2.31300e-03,3.85744e+01
2.36451e-03,3.66430e+01
2.41718e-03,3.48069e+01
2.47102e-03,3.30613e+01
2.52605e-03,3.14019e+01
2.58231e-03,2.98244e+01
2.63983e-03,2.83248e+01
2.69863e-03,2.68994e+01
2.75873e-03,2.55444e+01
2.82018e-03,2.42564e+01
2.88299e-03,2.30322e+01
2.94720e-03,2.18687e+01
3.01285e-03,2.07627e+01
3.07995e-03,1.97117e+01
3.14855e-03,1.87127e+01
3.21868e-03,1.77633e+01
3.29037e-03,1.68611e+01
3.36365e-03,1.60037e+01
3.43857e-03,1.51890e+01
3.51516e-03,1.44148e+01
3.59345e-03,1.36791e+01
3.67349e-03,1.29801e+01
3.75531e-03,1.23160e+01
3.83895e-03,1.16850e+01
3.92445e-03,1.10855e+01
4.01186e-03,1.05160e+01
4.10122e-03,9.97501e+00
4.19256e-03,9.46108e+00
4.28594e-03,8.97290e+00
4.38140e-03,8.50921e+00
4.47899e-03,8.06880e+00
4.57875e-03,7.65052e+00
4.68073e-03,7.25327e+00
4.78499e-03,6.87603e+00
4.89156e-03,6.51781e+00
5.00051e-03,6.17765e+00
5.11189e-03,5.85468e+00
5.22574e-03,5.54804e+00
5.34214e-03,5.25693e+00
5.46112e-03,4.98057e+00
5.58275e-03,4.71823e+00
5.70710e-03,4.46923e+00
5.83421e-03,4.23289e+00
5.96416e-03,4.00860e+00
6.09700e-03,3.79574e+00
6.23279e-03,3.59376e+00
6.37162e-03,3.40211e+00
6.51353e-03,3.22029e+00
6.65861e-03,3.04779e+00
6.80691e-03,2.88416e+00
6.95852e-03,2.72895e+00
7.11351e-03,2.58174e+00
7.27195e-03,2.44213e+00
7.43391e-03,2.30975e+00
7.59949e-03,2.18423e+00
7.76875e-03,2.06522e+00
7.94178e-03,1.95241e+00
8.11867e-03,1.84548e+00
8.29949e-03,1.74413e+00
8.48435e-03,1.64808e+00
8.67332e-03,1.55707e+00
8.86650e-03,1.47084e+00
9.06398e-03,1.38915e+00
9.26586e-03,1.31177e+00
9.47224e-03,1.23849e+00
9.68321e-03,1.16909e+00
9.89889e-03,1.10337e+00
1.01194e-02,1.04116e+00
1.03448e-02,9.82273e-01
1.05752e-02,9.26537e-01
1.08107e-02,8.73793e-01
1.10515e-02,8.23887e-01
1.12976e-02,7.76675e-01
1.15493e-02,7.32018e-01
1.18065e-02,6.89784e-01
1.20695e-02,6.49849e-01
1.23383e-02,6.12094e-01
1.26131e-02,5.76406e-01
1.28940e-02,5.42678e-01
1.31812e-02,5.10809e-01
1.34748e-02,4.80700e-01
1.37749e-02,4.52262e-01
1.40817e-02,4.25405e-01
1.43954e-02,4.00048e-01
1.47160e-02,3.76110e-01
1.50438e-02,3.53519e-01
1.53788e-02,3.32201e-01
1.57214e-02,3.12091e-01
1.60715e-02,2.93123e-01
1.64295e-02,2.75237e-01
1.67954e-02,2.58375e-01
1.71695e-02,2.42482e-01
1.75519e-02,2.27505e-01
1.79428e-02,2.13397e-01
1.83425e-02,2.00108e-01
1.87510e-02,1.87595e-01
1.91687e-02,1.75816e-01
1.95956e-02,1.64731e-01
2.00320e-02,1.54300e-01
2.04782e-02,1.44489e-01
2.09343e-02,1.35263e-01
2.14006e-02,1.26589e-01
2.18772e-02,1.18437e-01
2.23645e-02,1.10777e-01
2.28626e-02,1.03582e-01
2.33719e-02,9.68251e-02
2.38924e-02,9.04821e-02
2.44246e-02,8.45291e-02
2.49686e-02,7.89438e-02
2.55247e-02,7.37051e-02
2.60932e-02,6.87929e-02
2.66744e-02,6.41884e-02
2.72685e-02,5.98735e-02
2.78758e-02,5.58314e-02
2.84967e-02,5.20459e-02
2.91314e-02,4.85019e-02
2.97802e-02,4.51851e-02
3.04435e-02,4.20818e-02
3.11216e-02,3.91793e-02
3.18148e-02,3.64653e-02
3.25234e-02,3.39286e-02
3.32478e-02,3.15583e-02
3.39883e-02,2.93441e-02
3.47453e-02,2.72765e-02
3.55192e-02,2.53464e-02
3.63103e-02,2.35453e-02
3.71190e-02,2.18650e-02
3.79458e-02,2.02979e-02
3.87909e-02,1.88370e-02
3.96549e-02,1.74754e-02
4.05382e-02,1.62068e-02
4.14411e-02,1.50252e-02
4.23641e-02,1.39251e-02
4.33076e-02,1.29011e-02
4.42722e-02,1.19482e-02
4.52583e-02,1.10618e-02
4.62663e-02,1.02375e-02
4.72968e-02,9.47124e-03
4.83503e-02,8.75908e-03
4.94272e-02,8.09743e-03
5.05280e-02,7.48288e-03
5.16534e-02,6.91226e-03
5.28039e-02,6.38257e-03
5.39800e-02,5.89103e-03
5.51823e-02,5.43502e-03
5.64114e-02,5.01209e-03
5.76678e-02,4.61995e-03
5.89522e-02,4.25646e-03
6.02653e-02,3.91961e-03
6.16076e-02,3.60755e-03
6.29797e-02,3.31851e-03
6.43825e-02,3.05088e-03
6.58165e-02,2.80312e-03
6.72824e-02,2.57383e-03
6.87810e-02,2.36167e-03
7.03129e-02,2.16542e-03
7.18790e-02,1.98392e-03
7.34799e-02,1.81611e-03
7.51165e-02,1.66098e-03
7.67896e-02,1.51762e-03
7.84999e-02,1.38515e-03
8.02483e-02,1.26278e-03
8.20357e-02,1.14976e-03
8.38629e-02,1.04540e-03
8.57307e-02,9.49052e-04
8.76402e-02,8.60120e-04
8.95922e-02,7.78049e-04
9.15877e-02,7.02324e-04
9.36276e-02,6.32466e-04
9.57130e-02,5.68034e-04
9.78448e-02,5.08615e-04
1.00024e-01,4.53830e-04
1.02252e-01,4.03325e-04
1.04529e-01,3.56773e-04
1.06857e-01,3.13871e-04
1.09238e-01,2.74341e-04
1.11671e-01,2.37921e-04
1.14158e-01,2.04372e-04
1.16700e-01,1.73473e-04
1.19300e-01,1.45017e-04
1.21957e-01,1.18816e-04
1.24673e-01,9.46933e-05
1.27450e-01,7.24872e-05
1.30289e-01,5.20479e-05
1.33191e-01,3.32372e-05
1.36157e-01,1.59272e-05
1.39190e-01,0.00000e+00
