m1=554174.207, m2=48.763, gsp=2.105, rhosp=52.639
fGW[Hz],dPh[rad]
1.08610e-03,1.19184e+02
1.09701e-03,1.14817e+02
1.10802e-03,1.10608e+02
1.11915e-03,1.06550e+02
1.13039e-03,1.02638e+02
1.14175e-03,9.88668e+01
1.15321e-03,9.52317e+01
1.16479e-03,9.17276e+01
1.17649e-03,8.83502e+01
1.18831e-03,8.50949e+01
1.20024e-03,8.19573e+01
1.21230e-03,7.89334e+01
1.22447e-03,7.60191e+01
1.23677e-03,7.32106e+01
1.24919e-03,7.05040e+01
1.26174e-03,6.78958e+01
1.27441e-03,6.53825e+01
1.28721e-03,6.29607e+01
1.30014e-03,6.06272e+01
1.31320e-03,5.83787e+01
1.32639e-03,5.62123e+01
1.33971e-03,5.41250e+01
1.35316e-03,5.21141e+01
1.36675e-03,5.01767e+01
1.38048e-03,4.83102e+01
1.39434e-03,4.65121e+01
1.40835e-03,4.47799e+01
1.42249e-03,4.31113e+01
1.43678e-03,4.15040e+01
1.45121e-03,3.99557e+01
1.46578e-03,3.84643e+01
1.48051e-03,3.70278e+01
1.49537e-03,3.56443e+01
1.51039e-03,3.43117e+01
1.52556e-03,3.30282e+01
1.54088e-03,3.17921e+01
1.55636e-03,3.06016e+01
1.57199e-03,2.94551e+01
1.58778e-03,2.83510e+01
1.60373e-03,2.72877e+01
1.61983e-03,2.62638e+01
1.63610e-03,2.52777e+01
1.65253e-03,2.43283e+01
1.66913e-03,2.34140e+01
1.68589e-03,2.25337e+01
1.70283e-03,2.16860e+01
1.71993e-03,2.08698e+01
1.73720e-03,2.00840e+01
1.75465e-03,1.93273e+01
1.77227e-03,1.85988e+01
1.79007e-03,1.78975e+01
1.80805e-03,1.72222e+01
1.82621e-03,1.65721e+01
1.84455e-03,1.59463e+01
1.86308e-03,1.53438e+01
1.88179e-03,1.47637e+01
1.90069e-03,1.42054e+01
1.91978e-03,1.36679e+01
1.93906e-03,1.31504e+01
1.95853e-03,1.26524e+01
1.97820e-03,1.21729e+01
1.99807e-03,1.17114e+01
2.01814e-03,1.12672e+01
2.03841e-03,1.08396e+01
2.05888e-03,1.04280e+01
2.07956e-03,1.00319e+01
2.10044e-03,9.65059e+00
2.12154e-03,9.28362e+00
2.14284e-03,8.93042e+00
2.16437e-03,8.59048e+00
2.18610e-03,8.26331e+00
2.20806e-03,7.94844e+00
2.23024e-03,7.64540e+00
2.25263e-03,7.35376e+00
2.27526e-03,7.07309e+00
2.29811e-03,6.80299e+00
2.32119e-03,6.54306e+00
2.34450e-03,6.29291e+00
2.36805e-03,6.05219e+00
2.39183e-03,5.82054e+00
2.41586e-03,5.59763e+00
2.44012e-03,5.38312e+00
2.46463e-03,5.17671e+00
2.48938e-03,4.97809e+00
2.51438e-03,4.78696e+00
2.53963e-03,4.60305e+00
2.56514e-03,4.42609e+00
2.59090e-03,4.25582e+00
2.61692e-03,4.09198e+00
2.64321e-03,3.93434e+00
2.66975e-03,3.78266e+00
2.69657e-03,3.63671e+00
2.72365e-03,3.49629e+00
2.75100e-03,3.36119e+00
2.77863e-03,3.23120e+00
2.80654e-03,3.10614e+00
2.83473e-03,2.98581e+00
2.86320e-03,2.87004e+00
2.89195e-03,2.75866e+00
2.92100e-03,2.65150e+00
2.95034e-03,2.54841e+00
2.97997e-03,2.44923e+00
3.00990e-03,2.35381e+00
3.04012e-03,2.26201e+00
3.07066e-03,2.17370e+00
3.10150e-03,2.08874e+00
3.13265e-03,2.00700e+00
3.16411e-03,1.92837e+00
3.19589e-03,1.85273e+00
3.22799e-03,1.77996e+00
3.26041e-03,1.70996e+00
3.29315e-03,1.64262e+00
3.32622e-03,1.57784e+00
3.35963e-03,1.51552e+00
3.39337e-03,1.45558e+00
3.42745e-03,1.39791e+00
3.46188e-03,1.34244e+00
3.49665e-03,1.28909e+00
3.53176e-03,1.23776e+00
3.56724e-03,1.18839e+00
3.60306e-03,1.14089e+00
3.63925e-03,1.09521e+00
3.67580e-03,1.05127e+00
3.71272e-03,1.00900e+00
3.75001e-03,9.68342e-01
3.78767e-03,9.29234e-01
3.82571e-03,8.91618e-01
3.86413e-03,8.55435e-01
3.90294e-03,8.20633e-01
3.94214e-03,7.87158e-01
3.98173e-03,7.54960e-01
4.02172e-03,7.23990e-01
4.06211e-03,6.94202e-01
4.10291e-03,6.65552e-01
4.14412e-03,6.37994e-01
4.18574e-03,6.11489e-01
4.22778e-03,5.85996e-01
4.27024e-03,5.61476e-01
4.31313e-03,5.37893e-01
4.35644e-03,5.15211e-01
4.40020e-03,4.93395e-01
4.44439e-03,4.72413e-01
4.48903e-03,4.52233e-01
4.53411e-03,4.32824e-01
4.57965e-03,4.14156e-01
4.62564e-03,3.96203e-01
4.67210e-03,3.78935e-01
4.71903e-03,3.62328e-01
4.76642e-03,3.46356e-01
4.81429e-03,3.30995e-01
4.86264e-03,3.16221e-01
4.91148e-03,3.02013e-01
4.96081e-03,2.88348e-01
5.01063e-03,2.75206e-01
5.06095e-03,2.62567e-01
5.11178e-03,2.50412e-01
5.16312e-03,2.38721e-01
5.21498e-03,2.27479e-01
5.26735e-03,2.16666e-01
5.32026e-03,2.06268e-01
5.37369e-03,1.96268e-01
5.42766e-03,1.86651e-01
5.48217e-03,1.77402e-01
5.53723e-03,1.68507e-01
5.59284e-03,1.59953e-01
5.64901e-03,1.51727e-01
5.70575e-03,1.43815e-01
5.76305e-03,1.36207e-01
5.82094e-03,1.28891e-01
5.87940e-03,1.21854e-01
5.93845e-03,1.15088e-01
5.99809e-03,1.08581e-01
6.05833e-03,1.02323e-01
6.11917e-03,9.63049e-02
6.18063e-03,9.05176e-02
6.24271e-03,8.49522e-02
6.30540e-03,7.96002e-02
6.36873e-03,7.44534e-02
6.43269e-03,6.95040e-02
6.49730e-03,6.47444e-02
6.56256e-03,6.01673e-02
6.62847e-03,5.57657e-02
6.69504e-03,5.15330e-02
6.76228e-03,4.74627e-02
6.83019e-03,4.35485e-02
6.89879e-03,3.97844e-02
6.96808e-03,3.61648e-02
7.03806e-03,3.26840e-02
7.10875e-03,2.93369e-02
7.18014e-03,2.61181e-02
7.25226e-03,2.30229e-02
7.32509e-03,2.00465e-02
7.39866e-03,1.71843e-02
7.47297e-03,1.44319e-02
7.54802e-03,1.17852e-02
7.62383e-03,9.24012e-03
7.70040e-03,6.79272e-03
7.77774e-03,4.43928e-03
7.85585e-03,2.17620e-03
7.93475e-03,0.00000e+00
