m1=5698.190, m2=8.559, gsp=2.300, rhosp=366.528
fGW[Hz],dPh[rad]
6.55093e-03,1.42843e+04
6.70984e-03,1.35573e+04
6.87261e-03,1.28669e+04
7.03932e-03,1.22111e+04
7.21008e-03,1.15884e+04
7.38498e-03,1.09970e+04
7.56413e-03,1.04354e+04
7.74762e-03,9.90206e+03
7.93556e-03,9.39558e+03
8.12805e-03,8.91463e+03
8.32522e-03,8.45792e+03
8.52717e-03,8.02424e+03
8.73403e-03,7.61245e+03
8.94589e-03,7.22143e+03
9.16290e-03,6.85017e+03
9.38517e-03,6.49765e+03
9.61284e-03,6.16296e+03
9.84602e-03,5.84518e+03
1.00849e-02,5.54349e+03
1.03295e-02,5.25706e+03
1.05801e-02,4.98515e+03
1.08367e-02,4.72701e+03
1.10996e-02,4.48195e+03
1.13688e-02,4.24934e+03
1.16446e-02,4.02852e+03
1.19271e-02,3.81893e+03
1.22164e-02,3.61999e+03
1.25128e-02,3.43117e+03
1.28163e-02,3.25195e+03
1.31272e-02,3.08187e+03
1.34456e-02,2.92046e+03
1.37718e-02,2.76728e+03
1.41059e-02,2.62192e+03
1.44481e-02,2.48399e+03
1.47985e-02,2.35311e+03
1.51575e-02,2.22893e+03
1.55252e-02,2.11111e+03
1.59018e-02,1.99933e+03
1.62875e-02,1.89329e+03
1.66826e-02,1.79270e+03
1.70873e-02,1.69728e+03
1.75018e-02,1.60678e+03
1.79264e-02,1.52094e+03
1.83612e-02,1.43953e+03
1.88066e-02,1.36232e+03
1.92629e-02,1.28911e+03
1.97301e-02,1.21969e+03
2.02087e-02,1.15387e+03
2.06990e-02,1.09147e+03
2.12011e-02,1.03231e+03
2.17154e-02,9.76228e+02
2.22421e-02,9.23074e+02
2.27817e-02,8.72695e+02
2.33343e-02,8.24951e+02
2.39003e-02,7.79708e+02
2.44801e-02,7.36839e+02
2.50739e-02,6.96223e+02
2.56822e-02,6.57745e+02
2.63052e-02,6.21296e+02
2.69433e-02,5.86774e+02
2.75969e-02,5.54079e+02
2.82663e-02,5.23118e+02
2.89520e-02,4.93803e+02
2.96543e-02,4.66049e+02
3.03736e-02,4.39776e+02
3.11104e-02,4.14908e+02
3.18651e-02,3.91374e+02
3.26381e-02,3.69104e+02
3.34298e-02,3.48034e+02
3.42408e-02,3.28101e+02
3.50714e-02,3.09247e+02
3.59221e-02,2.91416e+02
3.67935e-02,2.74555e+02
3.76860e-02,2.58614e+02
3.86002e-02,2.43545e+02
3.95366e-02,2.29302e+02
4.04956e-02,2.15844e+02
4.14780e-02,2.03128e+02
4.24841e-02,1.91115e+02
4.35147e-02,1.79770e+02
4.45703e-02,1.69057e+02
4.56515e-02,1.58942e+02
4.67589e-02,1.49395e+02
4.78931e-02,1.40385e+02
4.90549e-02,1.31884e+02
5.02449e-02,1.23864e+02
5.14637e-02,1.16301e+02
5.27121e-02,1.09169e+02
5.39908e-02,1.02446e+02
5.53005e-02,9.61097e+01
5.66420e-02,9.01394e+01
5.80160e-02,8.45153e+01
5.94233e-02,7.92187e+01
6.08648e-02,7.42319e+01
6.23412e-02,6.95378e+01
6.38535e-02,6.51206e+01
6.54024e-02,6.09650e+01
6.69889e-02,5.70567e+01
6.86140e-02,5.33820e+01
7.02784e-02,4.99280e+01
7.19832e-02,4.66823e+01
7.37293e-02,4.36334e+01
7.55178e-02,4.07701e+01
7.73497e-02,3.80820e+01
7.92261e-02,3.55593e+01
8.11479e-02,3.31924e+01
8.31164e-02,3.09726e+01
8.51326e-02,2.88913e+01
8.71977e-02,2.69406e+01
8.93130e-02,2.51129e+01
9.14795e-02,2.34011e+01
9.36986e-02,2.17983e+01
9.59715e-02,2.02982e+01
9.82996e-02,1.88947e+01
1.00684e-01,1.75820e+01
1.03126e-01,1.63547e+01
1.05628e-01,1.52077e+01
1.08190e-01,1.41362e+01
1.10815e-01,1.31355e+01
1.13503e-01,1.22013e+01
1.16256e-01,1.13295e+01
1.19076e-01,1.05163e+01
1.21965e-01,9.75797e+00
1.24924e-01,9.05115e+00
1.27954e-01,8.39257e+00
1.31058e-01,7.77918e+00
1.34237e-01,7.20809e+00
1.37493e-01,6.67660e+00
1.40829e-01,6.18214e+00
1.44245e-01,5.72232e+00
1.47744e-01,5.29487e+00
1.51328e-01,4.89767e+00
1.54999e-01,4.52872e+00
1.58759e-01,4.18614e+00
1.62610e-01,3.86816e+00
1.66554e-01,3.57313e+00
1.70594e-01,3.29950e+00
1.74733e-01,3.04580e+00
1.78971e-01,2.81068e+00
1.83313e-01,2.59285e+00
1.87760e-01,2.39111e+00
1.92314e-01,2.20434e+00
1.96979e-01,2.03149e+00
2.01758e-01,1.87159e+00
2.06652e-01,1.72370e+00
2.11665e-01,1.58698e+00
2.16799e-01,1.46063e+00
2.22058e-01,1.34389e+00
2.27445e-01,1.23607e+00
2.32962e-01,1.13652e+00
2.38613e-01,1.04464e+00
2.44402e-01,9.59857e-01
2.50330e-01,8.81653e-01
2.56403e-01,8.09536e-01
2.62623e-01,7.43053e-01
2.68993e-01,6.81780e-01
2.75518e-01,6.25327e-01
2.82202e-01,5.73327e-01
2.89047e-01,5.25443e-01
2.96059e-01,4.81360e-01
3.03241e-01,4.40787e-01
3.10597e-01,4.03454e-01
3.18131e-01,3.69111e-01
3.25848e-01,3.37526e-01
3.33753e-01,3.08485e-01
3.41849e-01,2.81787e-01
3.50141e-01,2.57251e-01
3.58635e-01,2.34706e-01
3.67335e-01,2.13994e-01
3.76245e-01,1.94971e-01
3.85372e-01,1.77502e-01
3.94721e-01,1.61463e-01
4.04296e-01,1.46740e-01
4.14103e-01,1.33229e-01
4.24148e-01,1.20830e-01
4.34437e-01,1.09455e-01
4.44976e-01,9.90206e-02
4.55770e-01,8.94509e-02
4.66826e-01,8.06755e-02
4.78150e-01,7.26297e-02
4.89749e-01,6.52540e-02
5.01629e-01,5.84935e-02
5.13797e-01,5.22978e-02
5.26261e-01,4.66204e-02
5.39027e-01,4.14188e-02
5.52102e-01,3.66535e-02
5.65495e-01,3.22887e-02
5.79213e-01,2.82910e-02
5.93263e-01,2.46301e-02
6.07655e-01,2.12778e-02
6.22395e-01,1.82087e-02
6.37493e-01,1.53989e-02
6.52957e-01,1.28269e-02
6.68796e-01,1.04728e-02
6.85020e-01,8.31830e-03
7.01637e-01,6.34667e-03
7.18657e-01,4.54253e-03
7.36090e-01,2.89181e-03
7.53946e-01,1.38158e-03
7.72235e-01,0.00000e+00
