m1=8157.837, m2=14.761, gsp=2.369, rhosp=715.952
fGW[Hz],dPh[rad]
4.88197e-03,3.97916e+04
4.99877e-03,3.78342e+04
5.11837e-03,3.59718e+04
5.24083e-03,3.41998e+04
5.36621e-03,3.25140e+04
5.49460e-03,3.09102e+04
5.62606e-03,2.93843e+04
5.76067e-03,2.79327e+04
5.89849e-03,2.65517e+04
6.03962e-03,2.52379e+04
6.18411e-03,2.39881e+04
6.33207e-03,2.27992e+04
6.48357e-03,2.16683e+04
6.63869e-03,2.05924e+04
6.79752e-03,1.95691e+04
6.96015e-03,1.85957e+04
7.12668e-03,1.76698e+04
7.29718e-03,1.67892e+04
7.47177e-03,1.59516e+04
7.65054e-03,1.51549e+04
7.83358e-03,1.43972e+04
8.02100e-03,1.36766e+04
8.21290e-03,1.29913e+04
8.40940e-03,1.23396e+04
8.61059e-03,1.17198e+04
8.81660e-03,1.11304e+04
9.02754e-03,1.05700e+04
9.24353e-03,1.00371e+04
9.46468e-03,9.53040e+03
9.69113e-03,9.04862e+03
9.92299e-03,8.59055e+03
1.01604e-02,8.15506e+03
1.04035e-02,7.74103e+03
1.06524e-02,7.34744e+03
1.09073e-02,6.97328e+03
1.11682e-02,6.61762e+03
1.14354e-02,6.27955e+03
1.17090e-02,5.95822e+03
1.19892e-02,5.65281e+03
1.22760e-02,5.36256e+03
1.25697e-02,5.08672e+03
1.28704e-02,4.82459e+03
1.31784e-02,4.57551e+03
1.34937e-02,4.33883e+03
1.38165e-02,4.11396e+03
1.41471e-02,3.90032e+03
1.44855e-02,3.69736e+03
1.48321e-02,3.50456e+03
1.51870e-02,3.32142e+03
1.55503e-02,3.14747e+03
1.59224e-02,2.98227e+03
1.63033e-02,2.82537e+03
1.66934e-02,2.67639e+03
1.70928e-02,2.53492e+03
1.75017e-02,2.40061e+03
1.79205e-02,2.27310e+03
1.83492e-02,2.15205e+03
1.87882e-02,2.03716e+03
1.92377e-02,1.92811e+03
1.96980e-02,1.82462e+03
2.01693e-02,1.72641e+03
2.06518e-02,1.63323e+03
2.11459e-02,1.54483e+03
2.16519e-02,1.46097e+03
2.21699e-02,1.38143e+03
2.27003e-02,1.30599e+03
2.32434e-02,1.23445e+03
2.37995e-02,1.16661e+03
2.43689e-02,1.10230e+03
2.49520e-02,1.04134e+03
2.55489e-02,9.83562e+02
2.61602e-02,9.28804e+02
2.67861e-02,8.76919e+02
2.74270e-02,8.27762e+02
2.80832e-02,7.81198e+02
2.87551e-02,7.37095e+02
2.94430e-02,6.95332e+02
3.01475e-02,6.55789e+02
3.08687e-02,6.18355e+02
3.16073e-02,5.82925e+02
3.23635e-02,5.49396e+02
3.31378e-02,5.17672e+02
3.39306e-02,4.87662e+02
3.47424e-02,4.59278e+02
3.55737e-02,4.32439e+02
3.64248e-02,4.07064e+02
3.72962e-02,3.83079e+02
3.81886e-02,3.60412e+02
3.91022e-02,3.38996e+02
4.00378e-02,3.18767e+02
4.09957e-02,2.99662e+02
4.19765e-02,2.81623e+02
4.29808e-02,2.64596e+02
4.40091e-02,2.48527e+02
4.50621e-02,2.33366e+02
4.61402e-02,2.19066e+02
4.72441e-02,2.05581e+02
4.83744e-02,1.92868e+02
4.95318e-02,1.80886e+02
5.07169e-02,1.69596e+02
5.19303e-02,1.58961e+02
5.31727e-02,1.48946e+02
5.44449e-02,1.39518e+02
5.57475e-02,1.30645e+02
5.70813e-02,1.22297e+02
5.84470e-02,1.14445e+02
5.98453e-02,1.07062e+02
6.12771e-02,1.00122e+02
6.27432e-02,9.36010e+01
6.42444e-02,8.74753e+01
6.57814e-02,8.17230e+01
6.73553e-02,7.63231e+01
6.89667e-02,7.12557e+01
7.06168e-02,6.65021e+01
7.23063e-02,6.20443e+01
7.40363e-02,5.78654e+01
7.58076e-02,5.39493e+01
7.76213e-02,5.02809e+01
7.94784e-02,4.68457e+01
8.13800e-02,4.36300e+01
8.33270e-02,4.06210e+01
8.53206e-02,3.78063e+01
8.73619e-02,3.51744e+01
8.94521e-02,3.27144e+01
9.15923e-02,3.04159e+01
9.37836e-02,2.82691e+01
9.60274e-02,2.62647e+01
9.83249e-02,2.43939e+01
1.00677e-01,2.26487e+01
1.03086e-01,2.10210e+01
1.05552e-01,1.95036e+01
1.08078e-01,1.80896e+01
1.10664e-01,1.67723e+01
1.13311e-01,1.55457e+01
1.16022e-01,1.44039e+01
1.18798e-01,1.33415e+01
1.21640e-01,1.23532e+01
1.24551e-01,1.14343e+01
1.27531e-01,1.05802e+01
1.30582e-01,9.78667e+00
1.33706e-01,9.04959e+00
1.36905e-01,8.36522e+00
1.40180e-01,7.73003e+00
1.43534e-01,7.14069e+00
1.46968e-01,6.59407e+00
1.50485e-01,6.08725e+00
1.54085e-01,5.61749e+00
1.57772e-01,5.18222e+00
1.61546e-01,4.77906e+00
1.65411e-01,4.40574e+00
1.69369e-01,4.06017e+00
1.73421e-01,3.74039e+00
1.77570e-01,3.44457e+00
1.81819e-01,3.17099e+00
1.86169e-01,2.91806e+00
1.90623e-01,2.68428e+00
1.95183e-01,2.46827e+00
1.99853e-01,2.26874e+00
2.04635e-01,2.08447e+00
2.09531e-01,1.91436e+00
2.14544e-01,1.75734e+00
2.19677e-01,1.61246e+00
2.24933e-01,1.47880e+00
2.30314e-01,1.35553e+00
2.35825e-01,1.24187e+00
2.41467e-01,1.13709e+00
2.47244e-01,1.04053e+00
2.53159e-01,9.51551e-01
2.59216e-01,8.69585e-01
2.65418e-01,7.94094e-01
2.71768e-01,7.24580e-01
2.78270e-01,6.60583e-01
2.84928e-01,6.01677e-01
2.91745e-01,5.47468e-01
2.98725e-01,4.97590e-01
3.05872e-01,4.51705e-01
3.13190e-01,4.09502e-01
3.20683e-01,3.70692e-01
3.28356e-01,3.35007e-01
3.36212e-01,3.02203e-01
3.44256e-01,2.72050e-01
3.52492e-01,2.44338e-01
3.60926e-01,2.18875e-01
3.69561e-01,1.95480e-01
3.78403e-01,1.73989e-01
3.87456e-01,1.54250e-01
3.96726e-01,1.36122e-01
4.06218e-01,1.19476e-01
4.15937e-01,1.04192e-01
4.25888e-01,9.01606e-02
4.36078e-01,7.72809e-02
4.46511e-01,6.54595e-02
4.57194e-01,5.46106e-02
4.68132e-01,4.46553e-02
4.79332e-01,3.55208e-02
4.90801e-01,2.71403e-02
5.02543e-01,1.94524e-02
5.14567e-01,1.24003e-02
5.26878e-01,5.93213e-03
5.39483e-01,0.00000e+00
