m1=51481.676, m2=3.968, gsp=2.126, rhosp=89.332
fGW[Hz],dPh[rad]
5.04005e-03,1.21373e+03
5.11223e-03,1.15631e+03
5.18546e-03,1.10149e+03
5.25973e-03,1.04915e+03
5.33507e-03,9.99187e+02
5.41148e-03,9.51504e+02
5.48899e-03,9.06000e+02
5.56761e-03,8.62582e+02
5.64736e-03,8.21159e+02
5.72824e-03,7.81644e+02
5.81029e-03,7.43955e+02
5.89351e-03,7.08011e+02
5.97792e-03,6.73736e+02
6.06355e-03,6.41056e+02
6.15040e-03,6.09902e+02
6.23849e-03,5.80204e+02
6.32784e-03,5.51900e+02
6.41848e-03,5.24925e+02
6.51041e-03,4.99222e+02
6.60366e-03,4.74733e+02
6.69825e-03,4.51404e+02
6.79419e-03,4.29182e+02
6.89150e-03,4.08016e+02
6.99021e-03,3.87860e+02
7.09033e-03,3.68667e+02
7.19189e-03,3.50393e+02
7.29490e-03,3.32996e+02
7.39938e-03,3.16436e+02
7.50536e-03,3.00674e+02
7.61286e-03,2.85673e+02
7.72190e-03,2.71398e+02
7.83251e-03,2.57816e+02
7.94469e-03,2.44894e+02
8.05849e-03,2.32601e+02
8.17391e-03,2.20908e+02
8.29098e-03,2.09787e+02
8.40974e-03,1.99210e+02
8.53019e-03,1.89153e+02
8.65237e-03,1.79590e+02
8.77630e-03,1.70498e+02
8.90200e-03,1.61855e+02
9.02951e-03,1.53639e+02
9.15884e-03,1.45830e+02
9.29002e-03,1.38409e+02
9.42308e-03,1.31356e+02
9.55805e-03,1.24654e+02
9.69495e-03,1.18287e+02
9.83382e-03,1.12237e+02
9.97467e-03,1.06490e+02
1.01175e-02,1.01031e+02
1.02625e-02,9.58464e+01
1.04094e-02,9.09220e+01
1.05585e-02,8.62454e+01
1.07098e-02,8.18045e+01
1.08632e-02,7.75878e+01
1.10188e-02,7.35842e+01
1.11766e-02,6.97834e+01
1.13367e-02,6.61751e+01
1.14990e-02,6.27501e+01
1.16637e-02,5.94991e+01
1.18308e-02,5.64136e+01
1.20003e-02,5.34853e+01
1.21721e-02,5.07064e+01
1.23465e-02,4.80695e+01
1.25233e-02,4.55675e+01
1.27027e-02,4.31936e+01
1.28846e-02,4.09413e+01
1.30692e-02,3.88047e+01
1.32564e-02,3.67779e+01
1.34463e-02,3.48554e+01
1.36388e-02,3.30319e+01
1.38342e-02,3.13023e+01
1.40323e-02,2.96621e+01
1.42333e-02,2.81065e+01
1.44372e-02,2.66315e+01
1.46440e-02,2.52327e+01
1.48537e-02,2.39065e+01
1.50665e-02,2.26490e+01
1.52823e-02,2.14568e+01
1.55012e-02,2.03266e+01
1.57232e-02,1.92551e+01
1.59484e-02,1.82394e+01
1.61768e-02,1.72766e+01
1.64085e-02,1.63640e+01
1.66436e-02,1.54991e+01
1.68820e-02,1.46793e+01
1.71238e-02,1.39023e+01
1.73690e-02,1.31660e+01
1.76178e-02,1.24683e+01
1.78701e-02,1.18071e+01
1.81261e-02,1.11805e+01
1.83857e-02,1.05869e+01
1.86491e-02,1.00244e+01
1.89162e-02,9.49143e+00
1.91871e-02,8.98649e+00
1.94619e-02,8.50812e+00
1.97407e-02,8.05494e+00
2.00234e-02,7.62562e+00
2.03102e-02,7.21893e+00
2.06011e-02,6.83369e+00
2.08962e-02,6.46877e+00
2.11955e-02,6.12313e+00
2.14991e-02,5.79574e+00
2.18070e-02,5.48566e+00
2.21194e-02,5.19198e+00
2.24362e-02,4.91384e+00
2.27576e-02,4.65043e+00
2.30835e-02,4.40097e+00
2.34141e-02,4.16473e+00
2.37495e-02,3.94101e+00
2.40897e-02,3.72917e+00
2.44347e-02,3.52856e+00
2.47847e-02,3.33861e+00
2.51397e-02,3.15875e+00
2.54998e-02,2.98845e+00
2.58650e-02,2.82720e+00
2.62355e-02,2.67453e+00
2.66113e-02,2.52999e+00
2.69924e-02,2.39313e+00
2.73790e-02,2.26357e+00
2.77712e-02,2.14091e+00
2.81690e-02,2.02478e+00
2.85724e-02,1.91485e+00
2.89817e-02,1.81078e+00
2.93968e-02,1.71226e+00
2.98178e-02,1.61900e+00
3.02449e-02,1.53072e+00
3.06781e-02,1.44716e+00
3.11175e-02,1.36806e+00
3.15632e-02,1.29318e+00
3.20153e-02,1.22231e+00
3.24739e-02,1.15523e+00
3.29390e-02,1.09174e+00
3.34108e-02,1.03164e+00
3.38893e-02,9.74760e-01
3.43747e-02,9.20925e-01
3.48671e-02,8.69973e-01
3.53665e-02,8.21750e-01
3.58731e-02,7.76110e-01
3.63869e-02,7.32916e-01
3.69080e-02,6.92038e-01
3.74367e-02,6.53351e-01
3.79729e-02,6.16739e-01
3.85168e-02,5.82091e-01
3.90685e-02,5.49302e-01
3.96280e-02,5.18272e-01
4.01956e-02,4.88909e-01
4.07714e-02,4.61121e-01
4.13553e-02,4.34826e-01
4.19477e-02,4.09943e-01
4.25485e-02,3.86396e-01
4.31579e-02,3.64115e-01
4.37761e-02,3.43031e-01
4.44031e-02,3.23081e-01
4.50391e-02,3.04203e-01
4.56842e-02,2.86339e-01
4.63385e-02,2.69437e-01
4.70023e-02,2.53444e-01
4.76755e-02,2.38311e-01
4.83583e-02,2.23992e-01
4.90510e-02,2.10444e-01
4.97535e-02,1.97625e-01
5.04662e-02,1.85496e-01
5.11890e-02,1.74020e-01
5.19222e-02,1.63162e-01
5.26659e-02,1.52889e-01
5.34202e-02,1.43169e-01
5.41854e-02,1.33972e-01
5.49615e-02,1.25271e-01
5.57487e-02,1.17039e-01
5.65472e-02,1.09250e-01
5.73571e-02,1.01882e-01
5.81787e-02,9.49099e-02
5.90120e-02,8.83140e-02
5.98572e-02,8.20737e-02
6.07145e-02,7.61699e-02
6.15842e-02,7.05844e-02
6.24662e-02,6.53002e-02
6.33609e-02,6.03009e-02
6.42685e-02,5.55713e-02
6.51890e-02,5.10969e-02
6.61227e-02,4.68638e-02
6.70698e-02,4.28591e-02
6.80304e-02,3.90706e-02
6.90049e-02,3.54864e-02
6.99932e-02,3.20957e-02
7.09957e-02,2.88881e-02
7.20126e-02,2.58535e-02
7.30441e-02,2.29828e-02
7.40903e-02,2.02671e-02
7.51515e-02,1.76979e-02
7.62279e-02,1.52675e-02
7.73197e-02,1.29684e-02
7.84272e-02,1.07934e-02
7.95505e-02,8.73587e-03
8.06899e-02,6.78947e-03
8.18457e-02,4.94820e-03
8.30179e-02,3.20640e-03
8.42070e-02,1.55869e-03
8.54131e-02,0.00000e+00
