m1=28663.791, m2=6.212, gsp=2.401, rhosp=865.272
fGW[Hz],dPh[rad]
4.93195e-03,2.87731e+05
5.01788e-03,2.74859e+05
5.10531e-03,2.62522e+05
5.19427e-03,2.50699e+05
5.28477e-03,2.39370e+05
5.37685e-03,2.28516e+05
5.47053e-03,2.18118e+05
5.56585e-03,2.08160e+05
5.66282e-03,1.98623e+05
5.76149e-03,1.89492e+05
5.86188e-03,1.80751e+05
5.96401e-03,1.72383e+05
6.06792e-03,1.64375e+05
6.17365e-03,1.56712e+05
6.28122e-03,1.49381e+05
6.39066e-03,1.42368e+05
6.50201e-03,1.35661e+05
6.61529e-03,1.29247e+05
6.73056e-03,1.23115e+05
6.84783e-03,1.17253e+05
6.96714e-03,1.11651e+05
7.08853e-03,1.06297e+05
7.21204e-03,1.01182e+05
7.33770e-03,9.62964e+04
7.46555e-03,9.16299e+04
7.59562e-03,8.71739e+04
7.72797e-03,8.29197e+04
7.86261e-03,7.88588e+04
7.99961e-03,7.49833e+04
8.13899e-03,7.12853e+04
8.28080e-03,6.77574e+04
8.42508e-03,6.43924e+04
8.57188e-03,6.11835e+04
8.72123e-03,5.81239e+04
8.87318e-03,5.52073e+04
9.02779e-03,5.24275e+04
9.18508e-03,4.97787e+04
9.34512e-03,4.72552e+04
9.50794e-03,4.48515e+04
9.67361e-03,4.25624e+04
9.84215e-03,4.03828e+04
1.00136e-02,3.83080e+04
1.01881e-02,3.63333e+04
1.03656e-02,3.44543e+04
1.05462e-02,3.26666e+04
1.07300e-02,3.09662e+04
1.09169e-02,2.93491e+04
1.11072e-02,2.78116e+04
1.13007e-02,2.63500e+04
1.14976e-02,2.49609e+04
1.16979e-02,2.36410e+04
1.19017e-02,2.23870e+04
1.21091e-02,2.11959e+04
1.23201e-02,2.00647e+04
1.25347e-02,1.89908e+04
1.27531e-02,1.79713e+04
1.29753e-02,1.70037e+04
1.32014e-02,1.60855e+04
1.34314e-02,1.52145e+04
1.36655e-02,1.43883e+04
1.39036e-02,1.36048e+04
1.41458e-02,1.28619e+04
1.43923e-02,1.21576e+04
1.46430e-02,1.14901e+04
1.48982e-02,1.08576e+04
1.51578e-02,1.02583e+04
1.54219e-02,9.69065e+03
1.56906e-02,9.15304e+03
1.59639e-02,8.64396e+03
1.62421e-02,8.16201e+03
1.65251e-02,7.70581e+03
1.68130e-02,7.27407e+03
1.71060e-02,6.86555e+03
1.74040e-02,6.47907e+03
1.77072e-02,6.11350e+03
1.80158e-02,5.76778e+03
1.83297e-02,5.44088e+03
1.86490e-02,5.13182e+03
1.89740e-02,4.83969e+03
1.93046e-02,4.56360e+03
1.96409e-02,4.30272e+03
1.99831e-02,4.05624e+03
2.03313e-02,3.82340e+03
2.06855e-02,3.60350e+03
2.10460e-02,3.39584e+03
2.14127e-02,3.19976e+03
2.17857e-02,3.01466e+03
2.21653e-02,2.83993e+03
2.25515e-02,2.67504e+03
2.29445e-02,2.51944e+03
2.33442e-02,2.37262e+03
2.37510e-02,2.23413e+03
2.41648e-02,2.10349e+03
2.45858e-02,1.98029e+03
2.50142e-02,1.86411e+03
2.54500e-02,1.75456e+03
2.58935e-02,1.65129e+03
2.63446e-02,1.55395e+03
2.68036e-02,1.46220e+03
2.72707e-02,1.37574e+03
2.77458e-02,1.29426e+03
2.82292e-02,1.21750e+03
2.87211e-02,1.14519e+03
2.92215e-02,1.07707e+03
2.97307e-02,1.01292e+03
3.02487e-02,9.52499e+02
3.07757e-02,8.95607e+02
3.13119e-02,8.42040e+02
3.18575e-02,7.91610e+02
3.24126e-02,7.44137e+02
3.29773e-02,6.99452e+02
3.35519e-02,6.57396e+02
3.41365e-02,6.17817e+02
3.47313e-02,5.80574e+02
3.53364e-02,5.45531e+02
3.59521e-02,5.12562e+02
3.65785e-02,4.81547e+02
3.72158e-02,4.52371e+02
3.78643e-02,4.24929e+02
3.85240e-02,3.99120e+02
3.91952e-02,3.74847e+02
3.98781e-02,3.52022e+02
4.05729e-02,3.30560e+02
4.12799e-02,3.10381e+02
4.19991e-02,2.91409e+02
4.27309e-02,2.73574e+02
4.34754e-02,2.56809e+02
4.42329e-02,2.41050e+02
4.50036e-02,2.26239e+02
4.57877e-02,2.12318e+02
4.65855e-02,1.99236e+02
4.73972e-02,1.86942e+02
4.82230e-02,1.75390e+02
4.90632e-02,1.64536e+02
4.99181e-02,1.54338e+02
5.07878e-02,1.44757e+02
5.16727e-02,1.35755e+02
5.25731e-02,1.27300e+02
5.34891e-02,1.19357e+02
5.44210e-02,1.11896e+02
5.53693e-02,1.04888e+02
5.63340e-02,9.83068e+01
5.73155e-02,9.21255e+01
5.83142e-02,8.63204e+01
5.93302e-02,8.08690e+01
6.03639e-02,7.57499e+01
6.14157e-02,7.09430e+01
6.24858e-02,6.64295e+01
6.35745e-02,6.21917e+01
6.46822e-02,5.82128e+01
6.58092e-02,5.44772e+01
6.69558e-02,5.09702e+01
6.81224e-02,4.76778e+01
6.93094e-02,4.45871e+01
7.05170e-02,4.16858e+01
7.17456e-02,3.89623e+01
7.29957e-02,3.64060e+01
7.42675e-02,3.40065e+01
7.55615e-02,3.17543e+01
7.68781e-02,2.96405e+01
7.82176e-02,2.76566e+01
7.95804e-02,2.57947e+01
8.09670e-02,2.40473e+01
8.23777e-02,2.24074e+01
8.38130e-02,2.08685e+01
8.52734e-02,1.94243e+01
8.67591e-02,1.80691e+01
8.82708e-02,1.67975e+01
8.98088e-02,1.56042e+01
9.13735e-02,1.44846e+01
9.29656e-02,1.34340e+01
9.45854e-02,1.24482e+01
9.62334e-02,1.15234e+01
9.79101e-02,1.06556e+01
9.96161e-02,9.84142e+00
1.01352e-01,9.07756e+00
1.03118e-01,8.36092e+00
1.04914e-01,7.68859e+00
1.06742e-01,7.05784e+00
1.08602e-01,6.46611e+00
1.10494e-01,5.91099e+00
1.12420e-01,5.39023e+00
1.14378e-01,4.90171e+00
1.16371e-01,4.44344e+00
1.18399e-01,4.01356e+00
1.20462e-01,3.61031e+00
1.22561e-01,3.23204e+00
1.24696e-01,2.87722e+00
1.26869e-01,2.54440e+00
1.29079e-01,2.23221e+00
1.31328e-01,1.93938e+00
1.33616e-01,1.66472e+00
1.35944e-01,1.40710e+00
1.38313e-01,1.16546e+00
1.40723e-01,9.38819e-01
1.43175e-01,7.26246e-01
1.45670e-01,5.26870e-01
1.48208e-01,3.39873e-01
1.50790e-01,1.64490e-01
1.53417e-01,0.00000e+00
