m1=162789.662, m2=15.425, gsp=2.351, rhosp=166.748
fGW[Hz],dPh[rad]
2.27156e-03,3.10788e+04
2.30000e-03,2.97869e+04
2.32879e-03,2.85467e+04
2.35794e-03,2.73564e+04
2.38746e-03,2.62139e+04
2.41735e-03,2.51175e+04
2.44761e-03,2.40654e+04
2.47825e-03,2.30559e+04
2.50928e-03,2.20873e+04
2.54069e-03,2.11581e+04
2.57250e-03,2.02667e+04
2.60471e-03,1.94116e+04
2.63731e-03,1.85916e+04
2.67033e-03,1.78050e+04
2.70376e-03,1.70508e+04
2.73761e-03,1.63275e+04
2.77188e-03,1.56340e+04
2.80658e-03,1.49692e+04
2.84172e-03,1.43317e+04
2.87729e-03,1.37207e+04
2.91331e-03,1.31350e+04
2.94978e-03,1.25735e+04
2.98671e-03,1.20355e+04
3.02410e-03,1.15198e+04
3.06196e-03,1.10257e+04
3.10029e-03,1.05522e+04
3.13911e-03,1.00985e+04
3.17841e-03,9.66389e+03
3.21820e-03,9.24748e+03
3.25848e-03,8.84858e+03
3.29928e-03,8.46647e+03
3.34058e-03,8.10048e+03
3.38240e-03,7.74994e+03
3.42475e-03,7.41422e+03
3.46762e-03,7.09272e+03
3.51103e-03,6.78485e+03
3.55499e-03,6.49005e+03
3.59949e-03,6.20779e+03
3.64455e-03,5.93754e+03
3.69018e-03,5.67881e+03
3.73638e-03,5.43113e+03
3.78315e-03,5.19402e+03
3.83051e-03,4.96707e+03
3.87847e-03,4.74984e+03
3.92702e-03,4.54192e+03
3.97618e-03,4.34293e+03
4.02596e-03,4.15250e+03
4.07636e-03,3.97026e+03
4.12739e-03,3.79588e+03
4.17906e-03,3.62902e+03
4.23138e-03,3.46936e+03
4.28435e-03,3.31660e+03
4.33799e-03,3.17046e+03
4.39230e-03,3.03064e+03
4.44728e-03,2.89689e+03
4.50296e-03,2.76895e+03
4.55933e-03,2.64656e+03
4.61641e-03,2.52950e+03
4.67420e-03,2.41753e+03
4.73272e-03,2.31044e+03
4.79197e-03,2.20802e+03
4.85196e-03,2.11007e+03
4.91270e-03,2.01640e+03
4.97420e-03,1.92683e+03
5.03647e-03,1.84118e+03
5.09952e-03,1.75928e+03
5.16337e-03,1.68097e+03
5.22801e-03,1.60609e+03
5.29346e-03,1.53451e+03
5.35972e-03,1.46607e+03
5.42682e-03,1.40064e+03
5.49476e-03,1.33809e+03
5.56355e-03,1.27829e+03
5.63320e-03,1.22113e+03
5.70372e-03,1.16650e+03
5.77513e-03,1.11427e+03
5.84742e-03,1.06435e+03
5.92063e-03,1.01664e+03
5.99475e-03,9.71034e+02
6.06980e-03,9.27450e+02
6.14578e-03,8.85796e+02
6.22272e-03,8.45988e+02
6.30062e-03,8.07946e+02
6.37950e-03,7.71592e+02
6.45937e-03,7.36851e+02
6.54023e-03,7.03654e+02
6.62211e-03,6.71933e+02
6.70501e-03,6.41623e+02
6.78895e-03,6.12661e+02
6.87394e-03,5.84989e+02
6.96000e-03,5.58550e+02
7.04713e-03,5.33289e+02
7.13535e-03,5.09155e+02
7.22468e-03,4.86098e+02
7.31512e-03,4.64070e+02
7.40670e-03,4.43025e+02
7.49942e-03,4.22922e+02
7.59331e-03,4.03717e+02
7.68837e-03,3.85370e+02
7.78462e-03,3.67845e+02
7.88208e-03,3.51105e+02
7.98075e-03,3.35114e+02
8.08066e-03,3.19839e+02
8.18182e-03,3.05250e+02
8.28425e-03,2.91314e+02
8.38796e-03,2.78004e+02
8.49297e-03,2.65291e+02
8.59929e-03,2.53149e+02
8.70695e-03,2.41552e+02
8.81595e-03,2.30476e+02
8.92632e-03,2.19898e+02
9.03807e-03,2.09796e+02
9.15121e-03,2.00148e+02
9.26578e-03,1.90934e+02
9.38177e-03,1.82135e+02
9.49922e-03,1.73732e+02
9.61815e-03,1.65708e+02
9.73855e-03,1.58045e+02
9.86047e-03,1.50727e+02
9.98391e-03,1.43739e+02
1.01089e-02,1.37067e+02
1.02355e-02,1.30695e+02
1.03636e-02,1.24611e+02
1.04933e-02,1.18802e+02
1.06247e-02,1.13255e+02
1.07577e-02,1.07958e+02
1.08924e-02,1.02901e+02
1.10287e-02,9.80719e+01
1.11668e-02,9.34613e+01
1.13066e-02,8.90591e+01
1.14482e-02,8.48560e+01
1.15915e-02,8.08430e+01
1.17366e-02,7.70116e+01
1.18835e-02,7.33535e+01
1.20323e-02,6.98610e+01
1.21829e-02,6.65267e+01
1.23354e-02,6.33433e+01
1.24899e-02,6.03041e+01
1.26462e-02,5.74026e+01
1.28045e-02,5.46325e+01
1.29648e-02,5.19880e+01
1.31272e-02,4.94634e+01
1.32915e-02,4.70532e+01
1.34579e-02,4.47523e+01
1.36264e-02,4.25558e+01
1.37970e-02,4.04589e+01
1.39697e-02,3.84572e+01
1.41446e-02,3.65463e+01
1.43216e-02,3.47221e+01
1.45009e-02,3.29808e+01
1.46825e-02,3.13185e+01
1.48663e-02,2.97317e+01
1.50524e-02,2.82169e+01
1.52408e-02,2.67710e+01
1.54316e-02,2.53908e+01
1.56248e-02,2.40733e+01
1.58204e-02,2.28156e+01
1.60185e-02,2.16151e+01
1.62190e-02,2.04692e+01
1.64221e-02,1.93754e+01
1.66276e-02,1.83314e+01
1.68358e-02,1.73348e+01
1.70466e-02,1.63835e+01
1.72600e-02,1.54755e+01
1.74761e-02,1.46089e+01
1.76948e-02,1.37816e+01
1.79164e-02,1.29920e+01
1.81407e-02,1.22384e+01
1.83678e-02,1.15190e+01
1.85977e-02,1.08324e+01
1.88305e-02,1.01770e+01
1.90663e-02,9.55154e+00
1.93050e-02,8.95451e+00
1.95466e-02,8.38468e+00
1.97913e-02,7.84079e+00
2.00391e-02,7.32169e+00
2.02900e-02,6.82623e+00
2.05440e-02,6.35334e+00
2.08012e-02,5.90200e+00
2.10616e-02,5.47123e+00
2.13253e-02,5.06009e+00
2.15922e-02,4.66769e+00
2.18625e-02,4.29317e+00
2.21362e-02,3.93573e+00
2.24134e-02,3.59458e+00
2.26939e-02,3.26898e+00
2.29780e-02,2.95823e+00
2.32657e-02,2.66166e+00
2.35570e-02,2.37860e+00
2.38519e-02,2.10846e+00
2.41505e-02,1.85063e+00
2.44528e-02,1.60457e+00
2.47589e-02,1.36973e+00
2.50689e-02,1.14561e+00
2.53827e-02,9.31706e-01
2.57005e-02,7.27565e-01
2.60222e-02,5.32739e-01
2.63480e-02,3.46803e-01
2.66779e-02,1.69352e-01
2.70119e-02,0.00000e+00
