m1=1140.814, m2=7.099, gsp=2.290, rhosp=112.826
fGW[Hz],dPh[rad]
1.05111e-02,3.31481e+03
1.08278e-02,3.11043e+03
1.11541e-02,2.91862e+03
1.14901e-02,2.73863e+03
1.18364e-02,2.56973e+03
1.21930e-02,2.41123e+03
1.25604e-02,2.26249e+03
1.29389e-02,2.12291e+03
1.33287e-02,1.99193e+03
1.37303e-02,1.86902e+03
1.41441e-02,1.75368e+03
1.45702e-02,1.64544e+03
1.50093e-02,1.54387e+03
1.54615e-02,1.44856e+03
1.59274e-02,1.35912e+03
1.64073e-02,1.27520e+03
1.69017e-02,1.19644e+03
1.74110e-02,1.12254e+03
1.79356e-02,1.05319e+03
1.84760e-02,9.88113e+02
1.90327e-02,9.27049e+02
1.96062e-02,8.69749e+02
2.01970e-02,8.15980e+02
2.08055e-02,7.65526e+02
2.14325e-02,7.18182e+02
2.20782e-02,6.73757e+02
2.27435e-02,6.32072e+02
2.34288e-02,5.92957e+02
2.41347e-02,5.56254e+02
2.48620e-02,5.21814e+02
2.56111e-02,4.89499e+02
2.63828e-02,4.59177e+02
2.71777e-02,4.30726e+02
2.79967e-02,4.04030e+02
2.88402e-02,3.78982e+02
2.97092e-02,3.55479e+02
3.06044e-02,3.33427e+02
3.15266e-02,3.12736e+02
3.24765e-02,2.93323e+02
3.34551e-02,2.75108e+02
3.44631e-02,2.58018e+02
3.55016e-02,2.41984e+02
3.65713e-02,2.26940e+02
3.76732e-02,2.12826e+02
3.88084e-02,1.99583e+02
3.99778e-02,1.87160e+02
4.11823e-02,1.75504e+02
4.24232e-02,1.64569e+02
4.37015e-02,1.54310e+02
4.50183e-02,1.44686e+02
4.63748e-02,1.35657e+02
4.77721e-02,1.27187e+02
4.92116e-02,1.19241e+02
5.06944e-02,1.11787e+02
5.22219e-02,1.04795e+02
5.37954e-02,9.82357e+01
5.54164e-02,9.20830e+01
5.70861e-02,8.63117e+01
5.88062e-02,8.08983e+01
6.05782e-02,7.58206e+01
6.24035e-02,7.10580e+01
6.42838e-02,6.65910e+01
6.62208e-02,6.24013e+01
6.82161e-02,5.84719e+01
7.02715e-02,5.47866e+01
7.23889e-02,5.13304e+01
7.45701e-02,4.80892e+01
7.68170e-02,4.50497e+01
7.91317e-02,4.21994e+01
8.15160e-02,3.95266e+01
8.39722e-02,3.70203e+01
8.65024e-02,3.46703e+01
8.91089e-02,3.24669e+01
9.17939e-02,3.04011e+01
9.45598e-02,2.84643e+01
9.74090e-02,2.66485e+01
1.00344e-01,2.49463e+01
1.03368e-01,2.33506e+01
1.06482e-01,2.18548e+01
1.09691e-01,2.04528e+01
1.12996e-01,1.91387e+01
1.16401e-01,1.79072e+01
1.19908e-01,1.67530e+01
1.23521e-01,1.56713e+01
1.27243e-01,1.46578e+01
1.31077e-01,1.37081e+01
1.35026e-01,1.28183e+01
1.39095e-01,1.19847e+01
1.43286e-01,1.12038e+01
1.47604e-01,1.04722e+01
1.52051e-01,9.78704e+00
1.56633e-01,9.14531e+00
1.61352e-01,8.54432e+00
1.66214e-01,7.98155e+00
1.71222e-01,7.45462e+00
1.76381e-01,6.96128e+00
1.81696e-01,6.49944e+00
1.87171e-01,6.06714e+00
1.92811e-01,5.66254e+00
1.98620e-01,5.28389e+00
2.04605e-01,4.92958e+00
2.10770e-01,4.59808e+00
2.17121e-01,4.28797e+00
2.23663e-01,3.99790e+00
2.30402e-01,3.72662e+00
2.37345e-01,3.47294e+00
2.44496e-01,3.23576e+00
2.51863e-01,3.01404e+00
2.59452e-01,2.80681e+00
2.67270e-01,2.61315e+00
2.75323e-01,2.43220e+00
2.83619e-01,2.26316e+00
2.92165e-01,2.10528e+00
3.00969e-01,1.95784e+00
3.10037e-01,1.82019e+00
3.19379e-01,1.69170e+00
3.29003e-01,1.57179e+00
3.38916e-01,1.45991e+00
3.49128e-01,1.35555e+00
3.59648e-01,1.25823e+00
3.70485e-01,1.16749e+00
3.81648e-01,1.08291e+00
3.93147e-01,1.00409e+00
4.04994e-01,9.30664e-01
4.17197e-01,8.62280e-01
4.29768e-01,7.98612e-01
4.42717e-01,7.39350e-01
4.56057e-01,6.84209e-01
4.69799e-01,6.32918e-01
4.83954e-01,5.85225e-01
4.98537e-01,5.40892e-01
5.13558e-01,4.99698e-01
5.29033e-01,4.61434e-01
5.44973e-01,4.25906e-01
5.61394e-01,3.92930e-01
5.78310e-01,3.62336e-01
5.95735e-01,3.33963e-01
6.13685e-01,3.07660e-01
6.32177e-01,2.83288e-01
6.51225e-01,2.60715e-01
6.70848e-01,2.39817e-01
6.91061e-01,2.20479e-01
7.11884e-01,2.02593e-01
7.33334e-01,1.86058e-01
7.55431e-01,1.70780e-01
7.78193e-01,1.56669e-01
8.01641e-01,1.43644e-01
8.25796e-01,1.31628e-01
8.50678e-01,1.20547e-01
8.76311e-01,1.10335e-01
9.02715e-01,1.00928e-01
9.29916e-01,9.22683e-02
9.57935e-01,8.43007e-02
9.86799e-01,7.69738e-02
1.01653e+00,7.02402e-02
1.04716e+00,6.40552e-02
1.07872e+00,5.83775e-02
1.11122e+00,5.31685e-02
1.14470e+00,4.83923e-02
1.17919e+00,4.40156e-02
1.21472e+00,4.00072e-02
1.25133e+00,3.63385e-02
1.28903e+00,3.29825e-02
1.32787e+00,2.99145e-02
1.36788e+00,2.71113e-02
1.40910e+00,2.45517e-02
1.45156e+00,2.22158e-02
1.49529e+00,2.00854e-02
1.54035e+00,1.81435e-02
1.58676e+00,1.63744e-02
1.63457e+00,1.47636e-02
1.68383e+00,1.32979e-02
1.73456e+00,1.19649e-02
1.78683e+00,1.07533e-02
1.84067e+00,9.65259e-03
1.89613e+00,8.65318e-03
1.95326e+00,7.74623e-03
2.01212e+00,6.92361e-03
2.07275e+00,6.17786e-03
2.13520e+00,5.50214e-03
2.19954e+00,4.89017e-03
2.26581e+00,4.33621e-03
2.33409e+00,3.83500e-03
2.40442e+00,3.38171e-03
2.47686e+00,2.97196e-03
2.55150e+00,2.60172e-03
2.62838e+00,2.26732e-03
2.70757e+00,1.96543e-03
2.78916e+00,1.69300e-03
2.87320e+00,1.44724e-03
2.95977e+00,1.22563e-03
3.04896e+00,1.02587e-03
3.14083e+00,8.45873e-04
3.23546e+00,6.83740e-04
3.33295e+00,5.37747e-04
3.43338e+00,4.06331e-04
3.53683e+00,2.88074e-04
3.64340e+00,1.81690e-04
3.75318e+00,8.60169e-05
3.86627e+00,0.00000e+00
