m1=3169.623, m2=9.092, gsp=2.389, rhosp=16.415
fGW[Hz],dPh[rad]
7.41669e-03,2.27731e+04
7.61431e-03,2.15543e+04
7.81718e-03,2.04003e+04
8.02546e-03,1.93078e+04
8.23930e-03,1.82735e+04
8.45882e-03,1.72942e+04
8.68420e-03,1.63671e+04
8.91559e-03,1.54894e+04
9.15313e-03,1.46585e+04
9.39701e-03,1.38718e+04
9.64739e-03,1.31271e+04
9.90443e-03,1.24221e+04
1.01683e-02,1.17546e+04
1.04393e-02,1.11228e+04
1.07174e-02,1.05246e+04
1.10030e-02,9.95834e+03
1.12961e-02,9.42229e+03
1.15971e-02,8.91485e+03
1.19061e-02,8.43450e+03
1.22233e-02,7.97978e+03
1.25490e-02,7.54935e+03
1.28833e-02,7.14191e+03
1.32266e-02,6.75623e+03
1.35790e-02,6.39116e+03
1.39408e-02,6.04560e+03
1.43123e-02,5.71852e+03
1.46936e-02,5.40893e+03
1.50851e-02,5.11590e+03
1.54870e-02,4.83855e+03
1.58997e-02,4.57604e+03
1.63233e-02,4.32760e+03
1.67582e-02,4.09245e+03
1.72047e-02,3.86991e+03
1.76631e-02,3.65930e+03
1.81338e-02,3.45998e+03
1.86169e-02,3.27135e+03
1.91129e-02,3.09284e+03
1.96222e-02,2.92392e+03
2.01450e-02,2.76406e+03
2.06818e-02,2.61280e+03
2.12328e-02,2.46967e+03
2.17985e-02,2.33424e+03
2.23793e-02,2.20610e+03
2.29756e-02,2.08485e+03
2.35878e-02,1.97014e+03
2.42163e-02,1.86161e+03
2.48615e-02,1.75894e+03
2.55239e-02,1.66180e+03
2.62039e-02,1.56991e+03
2.69021e-02,1.48299e+03
2.76189e-02,1.40077e+03
2.83548e-02,1.32299e+03
2.91103e-02,1.24943e+03
2.98859e-02,1.17985e+03
3.06822e-02,1.11405e+03
3.14997e-02,1.05182e+03
3.23390e-02,9.92970e+02
3.32006e-02,9.37320e+02
3.40852e-02,8.84699e+02
3.49934e-02,8.34944e+02
3.59257e-02,7.87902e+02
3.68830e-02,7.43428e+02
3.78657e-02,7.01385e+02
3.88746e-02,6.61641e+02
3.99103e-02,6.24074e+02
4.09737e-02,5.88566e+02
4.20654e-02,5.55008e+02
4.31862e-02,5.23294e+02
4.43369e-02,4.93326e+02
4.55182e-02,4.65009e+02
4.67310e-02,4.38255e+02
4.79761e-02,4.12979e+02
4.92544e-02,3.89103e+02
5.05667e-02,3.66550e+02
5.19140e-02,3.45249e+02
5.32972e-02,3.25133e+02
5.47173e-02,3.06137e+02
5.61752e-02,2.88202e+02
5.76719e-02,2.71270e+02
5.92085e-02,2.55286e+02
6.07861e-02,2.40199e+02
6.24057e-02,2.25960e+02
6.40684e-02,2.12524e+02
6.57755e-02,1.99847e+02
6.75280e-02,1.87888e+02
6.93272e-02,1.76606e+02
7.11744e-02,1.65967e+02
7.30708e-02,1.55934e+02
7.50177e-02,1.46474e+02
7.70165e-02,1.37556e+02
7.90685e-02,1.29151e+02
8.11752e-02,1.21230e+02
8.33380e-02,1.13766e+02
8.55585e-02,1.06735e+02
8.78381e-02,1.00113e+02
9.01785e-02,9.38765e+01
9.25812e-02,8.80048e+01
9.50480e-02,8.24776e+01
9.75805e-02,7.72757e+01
1.00180e-01,7.23811e+01
1.02850e-01,6.77767e+01
1.05590e-01,6.34462e+01
1.08403e-01,5.93743e+01
1.11292e-01,5.55465e+01
1.14257e-01,5.19490e+01
1.17301e-01,4.85689e+01
1.20427e-01,4.53938e+01
1.23635e-01,4.24122e+01
1.26929e-01,3.96130e+01
1.30311e-01,3.69858e+01
1.33783e-01,3.45208e+01
1.37348e-01,3.22086e+01
1.41007e-01,3.00405e+01
1.44764e-01,2.80080e+01
1.48621e-01,2.61034e+01
1.52581e-01,2.43192e+01
1.56647e-01,2.26483e+01
1.60820e-01,2.10841e+01
1.65105e-01,1.96203e+01
1.69504e-01,1.82509e+01
1.74021e-01,1.69704e+01
1.78657e-01,1.57733e+01
1.83418e-01,1.46547e+01
1.88305e-01,1.36098e+01
1.93322e-01,1.26343e+01
1.98473e-01,1.17237e+01
2.03761e-01,1.08742e+01
2.09190e-01,1.00820e+01
2.14764e-01,9.34357e+00
2.20486e-01,8.65548e+00
2.26360e-01,8.01461e+00
2.32392e-01,7.41798e+00
2.38583e-01,6.86277e+00
2.44940e-01,6.34635e+00
2.51466e-01,5.86622e+00
2.58167e-01,5.42003e+00
2.65045e-01,5.00557e+00
2.72107e-01,4.62075e+00
2.79357e-01,4.26363e+00
2.86800e-01,3.93237e+00
2.94442e-01,3.62523e+00
3.02287e-01,3.34058e+00
3.10341e-01,3.07692e+00
3.18610e-01,2.83279e+00
3.27099e-01,2.60687e+00
3.35814e-01,2.39788e+00
3.44762e-01,2.20466e+00
3.53948e-01,2.02609e+00
3.63378e-01,1.86114e+00
3.73060e-01,1.70884e+00
3.83000e-01,1.56829e+00
3.93205e-01,1.43863e+00
4.03681e-01,1.31909e+00
4.14437e-01,1.20890e+00
4.25479e-01,1.10740e+00
4.36816e-01,1.01394e+00
4.48454e-01,9.27909e-01
4.60403e-01,8.48760e-01
4.72670e-01,7.75972e-01
4.85264e-01,7.09060e-01
4.98193e-01,6.47576e-01
5.11467e-01,5.91103e-01
5.25095e-01,5.39252e-01
5.39086e-01,4.91664e-01
5.53449e-01,4.48005e-01
5.68195e-01,4.07966e-01
5.83334e-01,3.71260e-01
5.98877e-01,3.37622e-01
6.14833e-01,3.06807e-01
6.31215e-01,2.78587e-01
6.48033e-01,2.52753e-01
6.65300e-01,2.29111e-01
6.83026e-01,2.07482e-01
7.01224e-01,1.87700e-01
7.19908e-01,1.69614e-01
7.39089e-01,1.53083e-01
7.58782e-01,1.37978e-01
7.78999e-01,1.24180e-01
7.99754e-01,1.11579e-01
8.21063e-01,1.00074e-01
8.42940e-01,8.95735e-02
8.65399e-01,7.99914e-02
8.88457e-01,7.12497e-02
9.12129e-01,6.32767e-02
9.36432e-01,5.60064e-02
9.61382e-01,4.93784e-02
9.86997e-01,4.33373e-02
1.01330e+00,3.78323e-02
1.04029e+00,3.28168e-02
1.06801e+00,2.82482e-02
1.09647e+00,2.40875e-02
1.12568e+00,2.02989e-02
1.15567e+00,1.68499e-02
1.18647e+00,1.37104e-02
1.21808e+00,1.08533e-02
1.25053e+00,8.25346e-03
1.28385e+00,5.88816e-03
1.31806e+00,3.73656e-03
1.35318e+00,1.77963e-03
1.38923e+00,0.00000e+00
