m1=11795.162, m2=5.783, gsp=2.253, rhosp=1695.520
fGW[Hz],dPh[rad]
6.32558e-03,2.06194e+04
6.45650e-03,1.96453e+04
6.59013e-03,1.87155e+04
6.72652e-03,1.78278e+04
6.86574e-03,1.69806e+04
7.00784e-03,1.61720e+04
7.15288e-03,1.54003e+04
7.30092e-03,1.46638e+04
7.45203e-03,1.39610e+04
7.60626e-03,1.32904e+04
7.76369e-03,1.26506e+04
7.92437e-03,1.20402e+04
8.08838e-03,1.14579e+04
8.25579e-03,1.09024e+04
8.42666e-03,1.03726e+04
8.60106e-03,9.86735e+03
8.77908e-03,9.38547e+03
8.96078e-03,8.92597e+03
9.14624e-03,8.48784e+03
9.33554e-03,8.07013e+03
9.52875e-03,7.67192e+03
9.72597e-03,7.29235e+03
9.92727e-03,6.93056e+03
1.01327e-02,6.58577e+03
1.03424e-02,6.25721e+03
1.05565e-02,5.94415e+03
1.07750e-02,5.64589e+03
1.09980e-02,5.36177e+03
1.12256e-02,5.09114e+03
1.14580e-02,4.83339e+03
1.16951e-02,4.58795e+03
1.19372e-02,4.35424e+03
1.21842e-02,4.13175e+03
1.24364e-02,3.91995e+03
1.26938e-02,3.71836e+03
1.29565e-02,3.52652e+03
1.32247e-02,3.34398e+03
1.34984e-02,3.17030e+03
1.37778e-02,3.00510e+03
1.40629e-02,2.84797e+03
1.43540e-02,2.69854e+03
1.46511e-02,2.55646e+03
1.49543e-02,2.42139e+03
1.52638e-02,2.29300e+03
1.55797e-02,2.17099e+03
1.59022e-02,2.05505e+03
1.62313e-02,1.94490e+03
1.65672e-02,1.84027e+03
1.69101e-02,1.74090e+03
1.72601e-02,1.64655e+03
1.76173e-02,1.55698e+03
1.79820e-02,1.47196e+03
1.83541e-02,1.39128e+03
1.87340e-02,1.31472e+03
1.91217e-02,1.24210e+03
1.95175e-02,1.17323e+03
1.99214e-02,1.10792e+03
2.03338e-02,1.04600e+03
2.07546e-02,9.87313e+02
2.11842e-02,9.31700e+02
2.16226e-02,8.79012e+02
2.20701e-02,8.29105e+02
2.25269e-02,7.81844e+02
2.29931e-02,7.37098e+02
2.34690e-02,6.94744e+02
2.39548e-02,6.54663e+02
2.44506e-02,6.16742e+02
2.49566e-02,5.80874e+02
2.54731e-02,5.46955e+02
2.60004e-02,5.14888e+02
2.65385e-02,4.84580e+02
2.70877e-02,4.55941e+02
2.76484e-02,4.28885e+02
2.82206e-02,4.03333e+02
2.88047e-02,3.79207e+02
2.94009e-02,3.56433e+02
3.00094e-02,3.34942e+02
3.06305e-02,3.14666e+02
3.12644e-02,2.95541e+02
3.19115e-02,2.77509e+02
3.25720e-02,2.60509e+02
3.32461e-02,2.44489e+02
3.39342e-02,2.29396e+02
3.46365e-02,2.15179e+02
3.53534e-02,2.01792e+02
3.60851e-02,1.89190e+02
3.68320e-02,1.77331e+02
3.75943e-02,1.66173e+02
3.83724e-02,1.55677e+02
3.91665e-02,1.45809e+02
3.99772e-02,1.36532e+02
4.08046e-02,1.27813e+02
4.16491e-02,1.19622e+02
4.25111e-02,1.11929e+02
4.33910e-02,1.04705e+02
4.42890e-02,9.79232e+01
4.52057e-02,9.15590e+01
4.61413e-02,8.55881e+01
4.70963e-02,7.99878e+01
4.80710e-02,7.47364e+01
4.90659e-02,6.98137e+01
5.00814e-02,6.52002e+01
5.11180e-02,6.08778e+01
5.21760e-02,5.68292e+01
5.32558e-02,5.30380e+01
5.43581e-02,4.94889e+01
5.54831e-02,4.61671e+01
5.66314e-02,4.30591e+01
5.78035e-02,4.01518e+01
5.89999e-02,3.74329e+01
6.02210e-02,3.48909e+01
6.14674e-02,3.25148e+01
6.27396e-02,3.02944e+01
6.40381e-02,2.82200e+01
6.53635e-02,2.62824e+01
6.67163e-02,2.44731e+01
6.80971e-02,2.27840e+01
6.95065e-02,2.12074e+01
7.09451e-02,1.97362e+01
7.24134e-02,1.83636e+01
7.39122e-02,1.70834e+01
7.54419e-02,1.58896e+01
7.70033e-02,1.47765e+01
7.85971e-02,1.37390e+01
8.02238e-02,1.27721e+01
8.18842e-02,1.18712e+01
8.35789e-02,1.10320e+01
8.53087e-02,1.02503e+01
8.70744e-02,9.52248e+00
8.88765e-02,8.84483e+00
9.07160e-02,8.21404e+00
9.25936e-02,7.62699e+00
9.45100e-02,7.08073e+00
9.64660e-02,6.57252e+00
9.84626e-02,6.09979e+00
1.00500e-01,5.66014e+00
1.02580e-01,5.25132e+00
1.04704e-01,4.87123e+00
1.06871e-01,4.51791e+00
1.09083e-01,4.18952e+00
1.11340e-01,3.88435e+00
1.13645e-01,3.60080e+00
1.15997e-01,3.33737e+00
1.18397e-01,3.09267e+00
1.20848e-01,2.86541e+00
1.23349e-01,2.65436e+00
1.25902e-01,2.45839e+00
1.28508e-01,2.27646e+00
1.31168e-01,2.10757e+00
1.33882e-01,1.95081e+00
1.36653e-01,1.80532e+00
1.39482e-01,1.67032e+00
1.42368e-01,1.54505e+00
1.45315e-01,1.42884e+00
1.48323e-01,1.32103e+00
1.51392e-01,1.22103e+00
1.54526e-01,1.12828e+00
1.57724e-01,1.04227e+00
1.60988e-01,9.62512e-01
1.64320e-01,8.88558e-01
1.67721e-01,8.19994e-01
1.71193e-01,7.56432e-01
1.74736e-01,6.97511e-01
1.78352e-01,6.42899e-01
1.82043e-01,5.92282e-01
1.85811e-01,5.45374e-01
1.89657e-01,5.01905e-01
1.93582e-01,4.61626e-01
1.97589e-01,4.24307e-01
2.01678e-01,3.89730e-01
2.05852e-01,3.57699e-01
2.10113e-01,3.28026e-01
2.14462e-01,3.00540e-01
2.18900e-01,2.75081e-01
2.23431e-01,2.51501e-01
2.28055e-01,2.29664e-01
2.32775e-01,2.09440e-01
2.37593e-01,1.90712e-01
2.42510e-01,1.73371e-01
2.47530e-01,1.57314e-01
2.52653e-01,1.42447e-01
2.57882e-01,1.28682e-01
2.63219e-01,1.15939e-01
2.68667e-01,1.04141e-01
2.74228e-01,9.32204e-02
2.79903e-01,8.31111e-02
2.85696e-01,7.37535e-02
2.91609e-01,6.50920e-02
2.97645e-01,5.70752e-02
3.03805e-01,4.96553e-02
3.10093e-01,4.27882e-02
3.16511e-01,3.64329e-02
3.23062e-01,3.05514e-02
3.29748e-01,2.51087e-02
3.36573e-01,2.00721e-02
3.43539e-01,1.54115e-02
3.50649e-01,1.10989e-02
3.57906e-01,7.10844e-03
3.65314e-01,3.41622e-03
3.72875e-01,0.00000e+00
