m1=263455.842, m2=92.622, gsp=2.413, rhosp=2065.807
fGW[Hz],dPh[rad]
1.02833e-03,7.66232e+04
1.04284e-03,7.35975e+04
1.05754e-03,7.06830e+04
1.07246e-03,6.78758e+04
1.08759e-03,6.51724e+04
1.10292e-03,6.25692e+04
1.11848e-03,6.00628e+04
1.13425e-03,5.76500e+04
1.15025e-03,5.53275e+04
1.16647e-03,5.30922e+04
1.18293e-03,5.09411e+04
1.19961e-03,4.88714e+04
1.21653e-03,4.68801e+04
1.23369e-03,4.49647e+04
1.25109e-03,4.31223e+04
1.26873e-03,4.13505e+04
1.28663e-03,3.96468e+04
1.30477e-03,3.80088e+04
1.32317e-03,3.64341e+04
1.34184e-03,3.49205e+04
1.36076e-03,3.34658e+04
1.37995e-03,3.20680e+04
1.39941e-03,3.07249e+04
1.41915e-03,2.94346e+04
1.43917e-03,2.81952e+04
1.45946e-03,2.70048e+04
1.48005e-03,2.58616e+04
1.50092e-03,2.47640e+04
1.52209e-03,2.37102e+04
1.54356e-03,2.26987e+04
1.56533e-03,2.17278e+04
1.58741e-03,2.07960e+04
1.60979e-03,1.99020e+04
1.63250e-03,1.90442e+04
1.65552e-03,1.82213e+04
1.67887e-03,1.74321e+04
1.70255e-03,1.66751e+04
1.72656e-03,1.59493e+04
1.75091e-03,1.52534e+04
1.77561e-03,1.45862e+04
1.80065e-03,1.39467e+04
1.82605e-03,1.33338e+04
1.85180e-03,1.27464e+04
1.87792e-03,1.21836e+04
1.90440e-03,1.16445e+04
1.93126e-03,1.11280e+04
1.95850e-03,1.06333e+04
1.98612e-03,1.01595e+04
2.01413e-03,9.70589e+03
2.04254e-03,9.27155e+03
2.07135e-03,8.85574e+03
2.10056e-03,8.45773e+03
2.13019e-03,8.07680e+03
2.16023e-03,7.71226e+03
2.19070e-03,7.36345e+03
2.22160e-03,7.02973e+03
2.25293e-03,6.71049e+03
2.28470e-03,6.40513e+03
2.31693e-03,6.11309e+03
2.34960e-03,5.83381e+03
2.38274e-03,5.56678e+03
2.41635e-03,5.31148e+03
2.45043e-03,5.06742e+03
2.48499e-03,4.83414e+03
2.52004e-03,4.61119e+03
2.55558e-03,4.39813e+03
2.59162e-03,4.19454e+03
2.62817e-03,4.00003e+03
2.66524e-03,3.81421e+03
2.70283e-03,3.63672e+03
2.74095e-03,3.46719e+03
2.77961e-03,3.30529e+03
2.81881e-03,3.15069e+03
2.85857e-03,3.00307e+03
2.89888e-03,2.86214e+03
2.93977e-03,2.72760e+03
2.98123e-03,2.59918e+03
3.02328e-03,2.47661e+03
3.06592e-03,2.35964e+03
3.10916e-03,2.24802e+03
3.15301e-03,2.14152e+03
3.19748e-03,2.03990e+03
3.24257e-03,1.94297e+03
3.28831e-03,1.85050e+03
3.33468e-03,1.76230e+03
3.38171e-03,1.67819e+03
3.42941e-03,1.59797e+03
3.47778e-03,1.52148e+03
3.52683e-03,1.44855e+03
3.57657e-03,1.37902e+03
3.62701e-03,1.31273e+03
3.67817e-03,1.24954e+03
3.73004e-03,1.18931e+03
3.78265e-03,1.13191e+03
3.83600e-03,1.07720e+03
3.89010e-03,1.02507e+03
3.94496e-03,9.75394e+02
4.00060e-03,9.28064e+02
4.05703e-03,8.82970e+02
4.11425e-03,8.40011e+02
4.17227e-03,7.99089e+02
4.23112e-03,7.60110e+02
4.29079e-03,7.22983e+02
4.35131e-03,6.87624e+02
4.41268e-03,6.53950e+02
4.47491e-03,6.21884e+02
4.53803e-03,5.91350e+02
4.60203e-03,5.62277e+02
4.66694e-03,5.34597e+02
4.73276e-03,5.08245e+02
4.79951e-03,4.83158e+02
4.86720e-03,4.59278e+02
4.93584e-03,4.36547e+02
5.00546e-03,4.14912e+02
5.07605e-03,3.94320e+02
5.14764e-03,3.74723e+02
5.22025e-03,3.56074e+02
5.29387e-03,3.38327e+02
5.36853e-03,3.21440e+02
5.44425e-03,3.05373e+02
5.52103e-03,2.90085e+02
5.59890e-03,2.75540e+02
5.67787e-03,2.61702e+02
5.75795e-03,2.48539e+02
5.83916e-03,2.36016e+02
5.92151e-03,2.24105e+02
6.00502e-03,2.12775e+02
6.08972e-03,2.01999e+02
6.17561e-03,1.91749e+02
6.26270e-03,1.82001e+02
6.35103e-03,1.72731e+02
6.44061e-03,1.63915e+02
6.53144e-03,1.55532e+02
6.62356e-03,1.47560e+02
6.71698e-03,1.39980e+02
6.81171e-03,1.32773e+02
6.90778e-03,1.25920e+02
7.00521e-03,1.19405e+02
7.10401e-03,1.13211e+02
7.20420e-03,1.07322e+02
7.30581e-03,1.01723e+02
7.40885e-03,9.64015e+01
7.51334e-03,9.13425e+01
7.61931e-03,8.65336e+01
7.72677e-03,8.19626e+01
7.83574e-03,7.76178e+01
7.94626e-03,7.34882e+01
8.05833e-03,6.95632e+01
8.17198e-03,6.58328e+01
8.28724e-03,6.22874e+01
8.40412e-03,5.89180e+01
8.52265e-03,5.57160e+01
8.64285e-03,5.26730e+01
8.76474e-03,4.97813e+01
8.88836e-03,4.70333e+01
9.01372e-03,4.44222e+01
9.14085e-03,4.19410e+01
9.26977e-03,3.95834e+01
9.40051e-03,3.73432e+01
9.53309e-03,3.52147e+01
9.66754e-03,3.31924e+01
9.80389e-03,3.12710e+01
9.94216e-03,2.94454e+01
1.00824e-02,2.77110e+01
1.02246e-02,2.60633e+01
1.03688e-02,2.44979e+01
1.05150e-02,2.30107e+01
1.06633e-02,2.15980e+01
1.08137e-02,2.02559e+01
1.09662e-02,1.89809e+01
1.11209e-02,1.77698e+01
1.12777e-02,1.66193e+01
1.14368e-02,1.55265e+01
1.15981e-02,1.44884e+01
1.17617e-02,1.35024e+01
1.19276e-02,1.25658e+01
1.20958e-02,1.16762e+01
1.22664e-02,1.08312e+01
1.24394e-02,1.00287e+01
1.26148e-02,9.26640e+00
1.27927e-02,8.54240e+00
1.29732e-02,7.85477e+00
1.31561e-02,7.20169e+00
1.33417e-02,6.58143e+00
1.35299e-02,5.99235e+00
1.37207e-02,5.43289e+00
1.39142e-02,4.90157e+00
1.41104e-02,4.39698e+00
1.43094e-02,3.91778e+00
1.45113e-02,3.46269e+00
1.47159e-02,3.03052e+00
1.49235e-02,2.62011e+00
1.51340e-02,2.23036e+00
1.53474e-02,1.86025e+00
1.55639e-02,1.50878e+00
1.57834e-02,1.17503e+00
1.60060e-02,8.58100e-01
1.62317e-02,5.57146e-01
1.64606e-02,2.71367e-01
1.66928e-02,0.00000e+00
