m1=7839.692, m2=33.966, gsp=2.439, rhosp=1326.092
fGW[Hz],dPh[rad]
3.60851e-03,5.72172e+04
3.70122e-03,5.43059e+04
3.79632e-03,5.15418e+04
3.89386e-03,4.89177e+04
3.99390e-03,4.64264e+04
4.09652e-03,4.40611e+04
4.20177e-03,4.18157e+04
4.30973e-03,3.96839e+04
4.42046e-03,3.76601e+04
4.53403e-03,3.57387e+04
4.65053e-03,3.39147e+04
4.77001e-03,3.21832e+04
4.89257e-03,3.05393e+04
5.01828e-03,2.89788e+04
5.14721e-03,2.74973e+04
5.27946e-03,2.60910e+04
5.41511e-03,2.47560e+04
5.55424e-03,2.34886e+04
5.69694e-03,2.22856e+04
5.84332e-03,2.11436e+04
5.99345e-03,2.00595e+04
6.14744e-03,1.90305e+04
6.30539e-03,1.80537e+04
6.46739e-03,1.71265e+04
6.63356e-03,1.62464e+04
6.80400e-03,1.54111e+04
6.97881e-03,1.46181e+04
7.15812e-03,1.38655e+04
7.34203e-03,1.31512e+04
7.53067e-03,1.24731e+04
7.72416e-03,1.18296e+04
7.92262e-03,1.12188e+04
8.12617e-03,1.06392e+04
8.33496e-03,1.00890e+04
8.54911e-03,9.56686e+03
8.76877e-03,9.07134e+03
8.99406e-03,8.60108e+03
9.22515e-03,8.15481e+03
9.46217e-03,7.73130e+03
9.70529e-03,7.32941e+03
9.95464e-03,6.94805e+03
1.02104e-02,6.58616e+03
1.04727e-02,6.24278e+03
1.07418e-02,5.91696e+03
1.10178e-02,5.60780e+03
1.13009e-02,5.31447e+03
1.15913e-02,5.03617e+03
1.18891e-02,4.77213e+03
1.21945e-02,4.52162e+03
1.25079e-02,4.28397e+03
1.28292e-02,4.05852e+03
1.31588e-02,3.84466e+03
1.34969e-02,3.64178e+03
1.38437e-02,3.44935e+03
1.41994e-02,3.26682e+03
1.45642e-02,3.09369e+03
1.49384e-02,2.92949e+03
1.53222e-02,2.77377e+03
1.57159e-02,2.62608e+03
1.61197e-02,2.48603e+03
1.65339e-02,2.35322e+03
1.69587e-02,2.22730e+03
1.73944e-02,2.10789e+03
1.78413e-02,1.99469e+03
1.82997e-02,1.88736e+03
1.87699e-02,1.78561e+03
1.92522e-02,1.68916e+03
1.97468e-02,1.59773e+03
2.02542e-02,1.51107e+03
2.07746e-02,1.42894e+03
2.13083e-02,1.35110e+03
2.18558e-02,1.27734e+03
2.24173e-02,1.20745e+03
2.29933e-02,1.14122e+03
2.35841e-02,1.07848e+03
2.41900e-02,1.01905e+03
2.48116e-02,9.62743e+02
2.54490e-02,9.09414e+02
2.61029e-02,8.58907e+02
2.67736e-02,8.11076e+02
2.74615e-02,7.65785e+02
2.81670e-02,7.22903e+02
2.88907e-02,6.82306e+02
2.96330e-02,6.43876e+02
3.03944e-02,6.07502e+02
3.11753e-02,5.73078e+02
3.19763e-02,5.40503e+02
3.27979e-02,5.09681e+02
3.36406e-02,4.80523e+02
3.45049e-02,4.52941e+02
3.53914e-02,4.26855e+02
3.63008e-02,4.02186e+02
3.72334e-02,3.78861e+02
3.81901e-02,3.56810e+02
3.91713e-02,3.35967e+02
4.01777e-02,3.16268e+02
4.12100e-02,2.97654e+02
4.22688e-02,2.80069e+02
4.33549e-02,2.63457e+02
4.44688e-02,2.47769e+02
4.56113e-02,2.32955e+02
4.67832e-02,2.18970e+02
4.79852e-02,2.05769e+02
4.92181e-02,1.93312e+02
5.04827e-02,1.81559e+02
5.17798e-02,1.70472e+02
5.31101e-02,1.60016e+02
5.44747e-02,1.50158e+02
5.58743e-02,1.40865e+02
5.73099e-02,1.32107e+02
5.87824e-02,1.23855e+02
6.02927e-02,1.16083e+02
6.18418e-02,1.08763e+02
6.34307e-02,1.01872e+02
6.50605e-02,9.53867e+01
6.67321e-02,8.92841e+01
6.84466e-02,8.35437e+01
7.02052e-02,7.81455e+01
7.20090e-02,7.30706e+01
7.38592e-02,6.83012e+01
7.57568e-02,6.38202e+01
7.77033e-02,5.96117e+01
7.96997e-02,5.56602e+01
8.17474e-02,5.19514e+01
8.38478e-02,4.84716e+01
8.60021e-02,4.52077e+01
8.82118e-02,4.21474e+01
9.04782e-02,3.92790e+01
9.28029e-02,3.65916e+01
9.51873e-02,3.40745e+01
9.76329e-02,3.17180e+01
1.00141e-01,2.95126e+01
1.02714e-01,2.74494e+01
1.05353e-01,2.55201e+01
1.08060e-01,2.37166e+01
1.10837e-01,2.20314e+01
1.13684e-01,2.04574e+01
1.16605e-01,1.89879e+01
1.19601e-01,1.76165e+01
1.22674e-01,1.63371e+01
1.25826e-01,1.51442e+01
1.29059e-01,1.40324e+01
1.32375e-01,1.29965e+01
1.35776e-01,1.20318e+01
1.39265e-01,1.11339e+01
1.42843e-01,1.02984e+01
1.46513e-01,9.52128e+00
1.50277e-01,8.79887e+00
1.54138e-01,8.12759e+00
1.58099e-01,7.50407e+00
1.62161e-01,6.92517e+00
1.66327e-01,6.38794e+00
1.70600e-01,5.88959e+00
1.74984e-01,5.42750e+00
1.79480e-01,4.99922e+00
1.84091e-01,4.60245e+00
1.88821e-01,4.23502e+00
1.93672e-01,3.89491e+00
1.98648e-01,3.58022e+00
2.03752e-01,3.28917e+00
2.08987e-01,3.02009e+00
2.14357e-01,2.77143e+00
2.19864e-01,2.54173e+00
2.25513e-01,2.32962e+00
2.31307e-01,2.13384e+00
2.37250e-01,1.95321e+00
2.43346e-01,1.78660e+00
2.49598e-01,1.63300e+00
2.56011e-01,1.49143e+00
2.62589e-01,1.36100e+00
2.69336e-01,1.24089e+00
2.76256e-01,1.13030e+00
2.83354e-01,1.02853e+00
2.90634e-01,9.34892e-01
2.98101e-01,8.48776e-01
3.05761e-01,7.69600e-01
3.13617e-01,6.96827e-01
3.21674e-01,6.29961e-01
3.29939e-01,5.68540e-01
3.38416e-01,5.12138e-01
3.47111e-01,4.60361e-01
3.56030e-01,4.12841e-01
3.65177e-01,3.69241e-01
3.74560e-01,3.29248e-01
3.84183e-01,2.92574e-01
3.94054e-01,2.58951e-01
4.04179e-01,2.28133e-01
4.14563e-01,1.99894e-01
4.25215e-01,1.74022e-01
4.36140e-01,1.50326e-01
4.47346e-01,1.28627e-01
4.58839e-01,1.08761e-01
4.70628e-01,9.05772e-02
4.82720e-01,7.39359e-02
4.95123e-01,5.87096e-02
5.07844e-01,4.47805e-02
5.20892e-01,3.20404e-02
5.34276e-01,2.03900e-02
5.48003e-01,9.73784e-03
5.62083e-01,0.00000e+00
