m1=974007.003, m2=7.619, gsp=2.056, rhosp=19.704
fGW[Hz],dPh[rad]
1.89216e-03,9.90092e+00
1.90045e-03,9.72562e+00
1.90877e-03,9.55332e+00
1.91713e-03,9.38397e+00
1.92552e-03,9.21753e+00
1.93396e-03,9.05393e+00
1.94242e-03,8.89314e+00
1.95093e-03,8.73511e+00
1.95947e-03,8.57977e+00
1.96805e-03,8.42711e+00
1.97667e-03,8.27705e+00
1.98533e-03,8.12957e+00
1.99402e-03,7.98461e+00
2.00276e-03,7.84214e+00
2.01153e-03,7.70210e+00
2.02034e-03,7.56447e+00
2.02918e-03,7.42919e+00
2.03807e-03,7.29624e+00
2.04699e-03,7.16556e+00
2.05596e-03,7.03711e+00
2.06496e-03,6.91087e+00
2.07400e-03,6.78680e+00
2.08309e-03,6.66484e+00
2.09221e-03,6.54498e+00
2.10137e-03,6.42717e+00
2.11057e-03,6.31138e+00
2.11982e-03,6.19758e+00
2.12910e-03,6.08572e+00
2.13842e-03,5.97578e+00
2.14779e-03,5.86772e+00
2.15719e-03,5.76152e+00
2.16664e-03,5.65713e+00
2.17613e-03,5.55454e+00
2.18566e-03,5.45370e+00
2.19523e-03,5.35459e+00
2.20484e-03,5.25718e+00
2.21450e-03,5.16144e+00
2.22419e-03,5.06734e+00
2.23393e-03,4.97485e+00
2.24372e-03,4.88394e+00
2.25354e-03,4.79460e+00
2.26341e-03,4.70678e+00
2.27332e-03,4.62047e+00
2.28328e-03,4.53564e+00
2.29328e-03,4.45227e+00
2.30332e-03,4.37032e+00
2.31341e-03,4.28978e+00
2.32354e-03,4.21061e+00
2.33371e-03,4.13281e+00
2.34393e-03,4.05633e+00
2.35420e-03,3.98117e+00
2.36451e-03,3.90730e+00
2.37486e-03,3.83469e+00
2.38526e-03,3.76333e+00
2.39571e-03,3.69319e+00
2.40620e-03,3.62425e+00
2.41674e-03,3.55650e+00
2.42732e-03,3.48990e+00
2.43795e-03,3.42445e+00
2.44862e-03,3.36012e+00
2.45935e-03,3.29689e+00
2.47012e-03,3.23474e+00
2.48093e-03,3.17366e+00
2.49180e-03,3.11363e+00
2.50271e-03,3.05463e+00
2.51367e-03,2.99664e+00
2.52468e-03,2.93964e+00
2.53573e-03,2.88362e+00
2.54684e-03,2.82856e+00
2.55799e-03,2.77444e+00
2.56919e-03,2.72125e+00
2.58045e-03,2.66897e+00
2.59175e-03,2.61759e+00
2.60309e-03,2.56709e+00
2.61449e-03,2.51746e+00
2.62594e-03,2.46868e+00
2.63744e-03,2.42073e+00
2.64899e-03,2.37360e+00
2.66059e-03,2.32729e+00
2.67224e-03,2.28176e+00
2.68395e-03,2.23702e+00
2.69570e-03,2.19304e+00
2.70751e-03,2.14982e+00
2.71936e-03,2.10734e+00
2.73127e-03,2.06559e+00
2.74323e-03,2.02455e+00
2.75524e-03,1.98422e+00
2.76731e-03,1.94458e+00
2.77943e-03,1.90562e+00
2.79160e-03,1.86732e+00
2.80383e-03,1.82969e+00
2.81610e-03,1.79270e+00
2.82844e-03,1.75634e+00
2.84082e-03,1.72060e+00
2.85326e-03,1.68548e+00
2.86576e-03,1.65096e+00
2.87831e-03,1.61704e+00
2.89091e-03,1.58369e+00
2.90357e-03,1.55092e+00
2.91629e-03,1.51871e+00
2.92906e-03,1.48705e+00
2.94188e-03,1.45593e+00
2.95477e-03,1.42535e+00
2.96771e-03,1.39529e+00
2.98070e-03,1.36574e+00
2.99376e-03,1.33671e+00
3.00687e-03,1.30817e+00
3.02003e-03,1.28012e+00
3.03326e-03,1.25255e+00
3.04654e-03,1.22546e+00
3.05988e-03,1.19883e+00
3.07328e-03,1.17265e+00
3.08674e-03,1.14693e+00
3.10026e-03,1.12164e+00
3.11384e-03,1.09679e+00
3.12747e-03,1.07237e+00
3.14117e-03,1.04836e+00
3.15492e-03,1.02477e+00
3.16874e-03,1.00158e+00
3.18262e-03,9.78786e-01
3.19655e-03,9.56385e-01
3.21055e-03,9.34368e-01
3.22461e-03,9.12729e-01
3.23873e-03,8.91462e-01
3.25291e-03,8.70558e-01
3.26716e-03,8.50014e-01
3.28147e-03,8.29821e-01
3.29584e-03,8.09975e-01
3.31027e-03,7.90470e-01
3.32477e-03,7.71299e-01
3.33933e-03,7.52456e-01
3.35395e-03,7.33937e-01
3.36864e-03,7.15736e-01
3.38339e-03,6.97846e-01
3.39821e-03,6.80264e-01
3.41309e-03,6.62983e-01
3.42803e-03,6.45998e-01
3.44305e-03,6.29305e-01
3.45812e-03,6.12898e-01
3.47327e-03,5.96772e-01
3.48848e-03,5.80923e-01
3.50375e-03,5.65346e-01
3.51910e-03,5.50036e-01
3.53451e-03,5.34989e-01
3.54999e-03,5.20199e-01
3.56553e-03,5.05664e-01
3.58115e-03,4.91377e-01
3.59683e-03,4.77336e-01
3.61258e-03,4.63536e-01
3.62840e-03,4.49972e-01
3.64429e-03,4.36641e-01
3.66025e-03,4.23539e-01
3.67628e-03,4.10661e-01
3.69238e-03,3.98004e-01
3.70855e-03,3.85564e-01
3.72479e-03,3.73338e-01
3.74110e-03,3.61322e-01
3.75748e-03,3.49511e-01
3.77394e-03,3.37903e-01
3.79046e-03,3.26495e-01
3.80706e-03,3.15281e-01
3.82373e-03,3.04261e-01
3.84048e-03,2.93429e-01
3.85730e-03,2.82783e-01
3.87419e-03,2.72320e-01
3.89115e-03,2.62036e-01
3.90819e-03,2.51929e-01
3.92531e-03,2.41995e-01
3.94250e-03,2.32231e-01
3.95976e-03,2.22635e-01
3.97710e-03,2.13204e-01
3.99452e-03,2.03934e-01
4.01201e-03,1.94823e-01
4.02958e-03,1.85869e-01
4.04723e-03,1.77068e-01
4.06495e-03,1.68419e-01
4.08275e-03,1.59917e-01
4.10063e-03,1.51562e-01
4.11859e-03,1.43349e-01
4.13663e-03,1.35278e-01
4.15474e-03,1.27345e-01
4.17293e-03,1.19548e-01
4.19121e-03,1.11885e-01
4.20956e-03,1.04354e-01
4.22800e-03,9.69513e-02
4.24651e-03,8.96759e-02
4.26511e-03,8.25253e-02
4.28379e-03,7.54974e-02
4.30255e-03,6.85901e-02
4.32139e-03,6.18012e-02
4.34031e-03,5.51289e-02
4.35932e-03,4.85710e-02
4.37841e-03,4.21256e-02
4.39758e-03,3.57908e-02
4.41684e-03,2.95646e-02
4.43618e-03,2.34453e-02
4.45561e-03,1.74310e-02
4.47512e-03,1.15198e-02
4.49472e-03,5.71007e-03
4.51440e-03,0.00000e+00
