m1=129995.668, m2=30.071, gsp=2.273, rhosp=19.927
fGW[Hz],dPh[rad]
1.87084e-03,4.94563e+03
1.89825e-03,4.73446e+03
1.92607e-03,4.53174e+03
1.95429e-03,4.33713e+03
1.98293e-03,4.15035e+03
2.01199e-03,3.97111e+03
2.04147e-03,3.79911e+03
2.07138e-03,3.63410e+03
2.10174e-03,3.47581e+03
2.13254e-03,3.32398e+03
2.16379e-03,3.17838e+03
2.19549e-03,3.03876e+03
2.22766e-03,2.90491e+03
2.26031e-03,2.77660e+03
2.29343e-03,2.65361e+03
2.32704e-03,2.53575e+03
2.36114e-03,2.42281e+03
2.39574e-03,2.31461e+03
2.43084e-03,2.21096e+03
2.46646e-03,2.11168e+03
2.50261e-03,2.01661e+03
2.53928e-03,1.92558e+03
2.57649e-03,1.83842e+03
2.61424e-03,1.75499e+03
2.65255e-03,1.67514e+03
2.69142e-03,1.59873e+03
2.73086e-03,1.52561e+03
2.77088e-03,1.45565e+03
2.81148e-03,1.38874e+03
2.85268e-03,1.32474e+03
2.89448e-03,1.26353e+03
2.93689e-03,1.20501e+03
2.97993e-03,1.14906e+03
3.02360e-03,1.09558e+03
3.06790e-03,1.04447e+03
3.11286e-03,9.95618e+02
3.15848e-03,9.48945e+02
3.20476e-03,9.04354e+02
3.25172e-03,8.61760e+02
3.29937e-03,8.21078e+02
3.34772e-03,7.82228e+02
3.39677e-03,7.45132e+02
3.44655e-03,7.09717e+02
3.49705e-03,6.75910e+02
3.54830e-03,6.43642e+02
3.60029e-03,6.12848e+02
3.65305e-03,5.83465e+02
3.70658e-03,5.55431e+02
3.76090e-03,5.28688e+02
3.81601e-03,5.03180e+02
3.87193e-03,4.78853e+02
3.92866e-03,4.55655e+02
3.98623e-03,4.33537e+02
4.04464e-03,4.12451e+02
4.10391e-03,3.92351e+02
4.16405e-03,3.73194e+02
4.22507e-03,3.54937e+02
4.28698e-03,3.37541e+02
4.34980e-03,3.20967e+02
4.41354e-03,3.05178e+02
4.47822e-03,2.90138e+02
4.54384e-03,2.75814e+02
4.61042e-03,2.62174e+02
4.67798e-03,2.49185e+02
4.74653e-03,2.36819e+02
4.81609e-03,2.25046e+02
4.88666e-03,2.13840e+02
4.95827e-03,2.03175e+02
5.03092e-03,1.93025e+02
5.10464e-03,1.83367e+02
5.17945e-03,1.74177e+02
5.25534e-03,1.65435e+02
5.33235e-03,1.57118e+02
5.41049e-03,1.49208e+02
5.48978e-03,1.41685e+02
5.57022e-03,1.34530e+02
5.65184e-03,1.27727e+02
5.73466e-03,1.21259e+02
5.81870e-03,1.15110e+02
5.90396e-03,1.09264e+02
5.99048e-03,1.03708e+02
6.07826e-03,9.84268e+01
6.16733e-03,9.34080e+01
6.25770e-03,8.86389e+01
6.34940e-03,8.41073e+01
6.44244e-03,7.98019e+01
6.53685e-03,7.57117e+01
6.63264e-03,7.18262e+01
6.72983e-03,6.81356e+01
6.82845e-03,6.46303e+01
6.92851e-03,6.13013e+01
7.03004e-03,5.81400e+01
7.13305e-03,5.51381e+01
7.23758e-03,5.22879e+01
7.34363e-03,4.95819e+01
7.45124e-03,4.70129e+01
7.56043e-03,4.45743e+01
7.67122e-03,4.22595e+01
7.78363e-03,4.00625e+01
7.89769e-03,3.79773e+01
8.01342e-03,3.59985e+01
8.13085e-03,3.41207e+01
8.24999e-03,3.23388e+01
8.37088e-03,3.06482e+01
8.49355e-03,2.90441e+01
8.61801e-03,2.75224e+01
8.74429e-03,2.60787e+01
8.87243e-03,2.47093e+01
9.00244e-03,2.34104e+01
9.13436e-03,2.21784e+01
9.26821e-03,2.10099e+01
9.40403e-03,1.99018e+01
9.54183e-03,1.88509e+01
9.68165e-03,1.78543e+01
9.82352e-03,1.69094e+01
9.96748e-03,1.60134e+01
1.01135e-02,1.51639e+01
1.02617e-02,1.43586e+01
1.04121e-02,1.35950e+01
1.05647e-02,1.28712e+01
1.07195e-02,1.21850e+01
1.08766e-02,1.15346e+01
1.10360e-02,1.09181e+01
1.11977e-02,1.03338e+01
1.13618e-02,9.78000e+00
1.15282e-02,9.25513e+00
1.16972e-02,8.75771e+00
1.18686e-02,8.28632e+00
1.20425e-02,7.83963e+00
1.22190e-02,7.41634e+00
1.23980e-02,7.01526e+00
1.25797e-02,6.63522e+00
1.27640e-02,6.27515e+00
1.29511e-02,5.93399e+00
1.31409e-02,5.61078e+00
1.33334e-02,5.30457e+00
1.35288e-02,5.01449e+00
1.37270e-02,4.73968e+00
1.39282e-02,4.47936e+00
1.41323e-02,4.23277e+00
1.43394e-02,3.99919e+00
1.45495e-02,3.77794e+00
1.47627e-02,3.56839e+00
1.49790e-02,3.36990e+00
1.51985e-02,3.18191e+00
1.54213e-02,3.00387e+00
1.56472e-02,2.83525e+00
1.58765e-02,2.67556e+00
1.61092e-02,2.52434e+00
1.63452e-02,2.38112e+00
1.65847e-02,2.24550e+00
1.68278e-02,2.11708e+00
1.70744e-02,1.99547e+00
1.73246e-02,1.88032e+00
1.75784e-02,1.77128e+00
1.78360e-02,1.66804e+00
1.80974e-02,1.57029e+00
1.83626e-02,1.47773e+00
1.86317e-02,1.39010e+00
1.89047e-02,1.30713e+00
1.91817e-02,1.22858e+00
1.94628e-02,1.15421e+00
1.97480e-02,1.08381e+00
2.00374e-02,1.01715e+00
2.03310e-02,9.54050e-01
2.06289e-02,8.94314e-01
2.09312e-02,8.37763e-01
2.12379e-02,7.84230e-01
2.15491e-02,7.33553e-01
2.18649e-02,6.85582e-01
2.21853e-02,6.40173e-01
2.25104e-02,5.97190e-01
2.28402e-02,5.56503e-01
2.31749e-02,5.17990e-01
2.35145e-02,4.81536e-01
2.38591e-02,4.47031e-01
2.42087e-02,4.14372e-01
2.45635e-02,3.83460e-01
2.49234e-02,3.54202e-01
2.52886e-02,3.26510e-01
2.56592e-02,3.00300e-01
2.60352e-02,2.75494e-01
2.64167e-02,2.52016e-01
2.68038e-02,2.29796e-01
2.71966e-02,2.08766e-01
2.75951e-02,1.88864e-01
2.79995e-02,1.70028e-01
2.84098e-02,1.52202e-01
2.88261e-02,1.35331e-01
2.92485e-02,1.19365e-01
2.96771e-02,1.04256e-01
3.01120e-02,8.99573e-02
3.05532e-02,7.64257e-02
3.10010e-02,6.36203e-02
3.14552e-02,5.15022e-02
3.19162e-02,4.00346e-02
3.23839e-02,2.91826e-02
3.28584e-02,1.89134e-02
3.33399e-02,9.19574e-03
3.38284e-02,0.00000e+00
