m1=5203.913, m2=3.053, gsp=2.399, rhosp=944.585
fGW[Hz],dPh[rad]
9.86191e-03,2.81949e+05
1.00850e-02,2.68474e+05
1.03131e-02,2.55624e+05
1.05463e-02,2.43369e+05
1.07849e-02,2.31685e+05
1.10288e-02,2.20543e+05
1.12783e-02,2.09920e+05
1.15334e-02,1.99791e+05
1.17942e-02,1.90135e+05
1.20610e-02,1.80929e+05
1.23338e-02,1.72153e+05
1.26128e-02,1.63788e+05
1.28980e-02,1.55814e+05
1.31898e-02,1.48214e+05
1.34881e-02,1.40970e+05
1.37932e-02,1.34067e+05
1.41052e-02,1.27488e+05
1.44242e-02,1.21219e+05
1.47504e-02,1.15246e+05
1.50841e-02,1.09555e+05
1.54252e-02,1.04132e+05
1.57741e-02,9.89669e+04
1.61309e-02,9.40463e+04
1.64958e-02,8.93594e+04
1.68689e-02,8.48953e+04
1.72504e-02,8.06440e+04
1.76406e-02,7.65954e+04
1.80396e-02,7.27403e+04
1.84476e-02,6.90698e+04
1.88649e-02,6.55753e+04
1.92916e-02,6.22487e+04
1.97279e-02,5.90822e+04
2.01741e-02,5.60684e+04
2.06304e-02,5.32002e+04
2.10971e-02,5.04709e+04
2.15742e-02,4.78741e+04
2.20622e-02,4.54035e+04
2.25612e-02,4.30533e+04
2.30715e-02,4.08178e+04
2.35933e-02,3.86918e+04
2.41270e-02,3.66702e+04
2.46727e-02,3.47479e+04
2.52308e-02,3.29204e+04
2.58014e-02,3.11833e+04
2.63850e-02,2.95323e+04
2.69818e-02,2.79633e+04
2.75921e-02,2.64725e+04
2.82162e-02,2.50562e+04
2.88544e-02,2.37108e+04
2.95070e-02,2.24331e+04
3.01744e-02,2.12198e+04
3.08569e-02,2.00678e+04
3.15548e-02,1.89743e+04
3.22685e-02,1.79364e+04
3.29984e-02,1.69515e+04
3.37448e-02,1.60171e+04
3.45080e-02,1.51306e+04
3.52885e-02,1.42899e+04
3.60867e-02,1.34927e+04
3.69029e-02,1.27370e+04
3.77376e-02,1.20206e+04
3.85912e-02,1.13417e+04
3.94640e-02,1.06985e+04
4.03566e-02,1.00892e+04
4.12694e-02,9.51212e+03
4.22029e-02,8.96575e+03
4.31574e-02,8.44854e+03
4.41336e-02,7.95905e+03
4.51318e-02,7.49591e+03
4.61526e-02,7.05780e+03
4.71965e-02,6.64348e+03
4.82640e-02,6.25174e+03
4.93556e-02,5.88146e+03
5.04720e-02,5.53155e+03
5.16136e-02,5.20098e+03
5.27810e-02,4.88876e+03
5.39748e-02,4.59396e+03
5.51956e-02,4.31568e+03
5.64440e-02,4.05307e+03
5.77207e-02,3.80532e+03
5.90263e-02,3.57165e+03
6.03613e-02,3.35134e+03
6.17266e-02,3.14367e+03
6.31227e-02,2.94799e+03
6.45505e-02,2.76365e+03
6.60105e-02,2.59006e+03
6.75035e-02,2.42664e+03
6.90304e-02,2.27283e+03
7.05917e-02,2.12813e+03
7.21884e-02,1.99203e+03
7.38211e-02,1.86407e+03
7.54908e-02,1.74379e+03
7.71983e-02,1.63078e+03
7.89444e-02,1.52463e+03
8.07300e-02,1.42496e+03
8.25560e-02,1.33140e+03
8.44232e-02,1.24360e+03
8.63328e-02,1.16124e+03
8.82855e-02,1.08402e+03
9.02823e-02,1.01162e+03
9.23244e-02,9.43779e+02
9.44126e-02,8.80227e+02
9.65480e-02,8.20712e+02
9.87318e-02,7.64997e+02
1.00965e-01,7.12857e+02
1.03249e-01,6.64079e+02
1.05584e-01,6.18462e+02
1.07972e-01,5.75815e+02
1.10414e-01,5.35957e+02
1.12912e-01,4.98719e+02
1.15465e-01,4.63940e+02
1.18077e-01,4.31469e+02
1.20748e-01,4.01161e+02
1.23479e-01,3.72883e+02
1.26272e-01,3.46506e+02
1.29128e-01,3.21910e+02
1.32048e-01,2.98983e+02
1.35035e-01,2.77618e+02
1.38089e-01,2.57714e+02
1.41213e-01,2.39178e+02
1.44407e-01,2.21920e+02
1.47673e-01,2.05858e+02
1.51013e-01,1.90912e+02
1.54429e-01,1.77010e+02
1.57922e-01,1.64081e+02
1.61494e-01,1.52062e+02
1.65146e-01,1.40891e+02
1.68882e-01,1.30511e+02
1.72701e-01,1.20869e+02
1.76608e-01,1.11915e+02
1.80602e-01,1.03602e+02
1.84687e-01,9.58853e+01
1.88864e-01,8.87247e+01
1.93136e-01,8.20816e+01
1.97505e-01,7.59201e+01
2.01972e-01,7.02065e+01
2.06540e-01,6.49096e+01
2.11212e-01,6.00000e+01
2.15989e-01,5.54504e+01
2.20874e-01,5.12354e+01
2.25870e-01,4.73311e+01
2.30979e-01,4.37154e+01
2.36203e-01,4.03677e+01
2.41546e-01,3.72687e+01
2.47009e-01,3.44004e+01
2.52596e-01,3.17462e+01
2.58309e-01,2.92906e+01
2.64152e-01,2.70191e+01
2.70126e-01,2.49183e+01
2.76236e-01,2.29756e+01
2.82484e-01,2.11795e+01
2.88873e-01,1.95192e+01
2.95407e-01,1.79846e+01
3.02089e-01,1.65664e+01
3.08921e-01,1.52561e+01
3.15909e-01,1.40455e+01
3.23054e-01,1.29273e+01
3.30361e-01,1.18945e+01
3.37833e-01,1.09407e+01
3.45474e-01,1.00600e+01
3.53288e-01,9.24696e+00
3.61279e-01,8.49638e+00
3.69451e-01,7.80358e+00
3.77807e-01,7.16418e+00
3.86352e-01,6.57413e+00
3.95091e-01,6.02969e+00
4.04027e-01,5.52737e+00
4.13166e-01,5.06396e+00
4.22511e-01,4.63649e+00
4.32067e-01,4.24222e+00
4.41840e-01,3.87859e+00
4.51834e-01,3.54326e+00
4.62053e-01,3.23405e+00
4.72504e-01,2.94895e+00
4.83191e-01,2.68609e+00
4.94120e-01,2.44377e+00
5.05296e-01,2.22040e+00
5.16725e-01,2.01450e+00
5.28413e-01,1.82473e+00
5.40365e-01,1.64983e+00
5.52587e-01,1.48866e+00
5.65085e-01,1.34013e+00
5.77867e-01,1.20327e+00
5.90937e-01,1.07717e+00
6.04303e-01,9.60993e-01
6.17971e-01,8.53958e-01
6.31949e-01,7.55354e-01
6.46242e-01,6.64521e-01
6.60859e-01,5.80851e-01
6.75807e-01,5.03783e-01
6.91092e-01,4.32799e-01
7.06723e-01,3.67422e-01
7.22708e-01,3.07212e-01
7.39055e-01,2.51762e-01
7.55771e-01,2.00699e-01
7.72865e-01,1.53677e-01
7.90346e-01,1.10378e-01
8.08222e-01,7.05092e-02
8.26503e-01,3.37995e-02
8.45197e-01,0.00000e+00
