m1=530815.124, m2=45.306, gsp=2.489, rhosp=81.863
fGW[Hz],dPh[rad]
1.12855e-03,9.28097e+04
1.13991e-03,8.96029e+04
1.15139e-03,8.65047e+04
1.16298e-03,8.35115e+04
1.17469e-03,8.06200e+04
1.18651e-03,7.78266e+04
1.19846e-03,7.51283e+04
1.21052e-03,7.25217e+04
1.22271e-03,7.00040e+04
1.23502e-03,6.75720e+04
1.24745e-03,6.52231e+04
1.26001e-03,6.29543e+04
1.27270e-03,6.07631e+04
1.28551e-03,5.86469e+04
1.29845e-03,5.66031e+04
1.31152e-03,5.46293e+04
1.32472e-03,5.27232e+04
1.33806e-03,5.08825e+04
1.35153e-03,4.91050e+04
1.36514e-03,4.73887e+04
1.37888e-03,4.57313e+04
1.39276e-03,4.41310e+04
1.40678e-03,4.25858e+04
1.42095e-03,4.10939e+04
1.43525e-03,3.96535e+04
1.44970e-03,3.82627e+04
1.46430e-03,3.69200e+04
1.47904e-03,3.56238e+04
1.49393e-03,3.43723e+04
1.50897e-03,3.31642e+04
1.52416e-03,3.19979e+04
1.53950e-03,3.08721e+04
1.55500e-03,2.97853e+04
1.57066e-03,2.87362e+04
1.58647e-03,2.77235e+04
1.60244e-03,2.67461e+04
1.61857e-03,2.58026e+04
1.63487e-03,2.48919e+04
1.65133e-03,2.40130e+04
1.66795e-03,2.31646e+04
1.68474e-03,2.23458e+04
1.70170e-03,2.15556e+04
1.71884e-03,2.07929e+04
1.73614e-03,2.00568e+04
1.75362e-03,1.93465e+04
1.77127e-03,1.86610e+04
1.78910e-03,1.79994e+04
1.80712e-03,1.73610e+04
1.82531e-03,1.67449e+04
1.84368e-03,1.61504e+04
1.86225e-03,1.55767e+04
1.88099e-03,1.50232e+04
1.89993e-03,1.44890e+04
1.91906e-03,1.39736e+04
1.93838e-03,1.34763e+04
1.95789e-03,1.29964e+04
1.97760e-03,1.25334e+04
1.99751e-03,1.20866e+04
2.01762e-03,1.16556e+04
2.03793e-03,1.12397e+04
2.05845e-03,1.08385e+04
2.07917e-03,1.04514e+04
2.10010e-03,1.00779e+04
2.12125e-03,9.71762e+03
2.14260e-03,9.37000e+03
2.16417e-03,9.03465e+03
2.18596e-03,8.71112e+03
2.20797e-03,8.39901e+03
2.23019e-03,8.09792e+03
2.25265e-03,7.80746e+03
2.27532e-03,7.52726e+03
2.29823e-03,7.25697e+03
2.32137e-03,6.99623e+03
2.34474e-03,6.74471e+03
2.36834e-03,6.50209e+03
2.39219e-03,6.26806e+03
2.41627e-03,6.04231e+03
2.44060e-03,5.82456e+03
2.46517e-03,5.61452e+03
2.48998e-03,5.41192e+03
2.51505e-03,5.21651e+03
2.54037e-03,5.02802e+03
2.56595e-03,4.84622e+03
2.59178e-03,4.67086e+03
2.61787e-03,4.50174e+03
2.64422e-03,4.33861e+03
2.67085e-03,4.18128e+03
2.69773e-03,4.02953e+03
2.72489e-03,3.88318e+03
2.75232e-03,3.74203e+03
2.78003e-03,3.60590e+03
2.80802e-03,3.47460e+03
2.83629e-03,3.34798e+03
2.86484e-03,3.22586e+03
2.89369e-03,3.10808e+03
2.92282e-03,2.99450e+03
2.95224e-03,2.88497e+03
2.98196e-03,2.77933e+03
3.01198e-03,2.67745e+03
3.04231e-03,2.57921e+03
3.07293e-03,2.48446e+03
3.10387e-03,2.39310e+03
3.13512e-03,2.30499e+03
3.16668e-03,2.22002e+03
3.19856e-03,2.13808e+03
3.23076e-03,2.05907e+03
3.26329e-03,1.98287e+03
3.29614e-03,1.90939e+03
3.32932e-03,1.83854e+03
3.36284e-03,1.77022e+03
3.39670e-03,1.70433e+03
3.43089e-03,1.64080e+03
3.46543e-03,1.57954e+03
3.50032e-03,1.52047e+03
3.53556e-03,1.46351e+03
3.57115e-03,1.40858e+03
3.60710e-03,1.35562e+03
3.64342e-03,1.30455e+03
3.68010e-03,1.25531e+03
3.71715e-03,1.20783e+03
3.75457e-03,1.16204e+03
3.79237e-03,1.11790e+03
3.83054e-03,1.07534e+03
3.86911e-03,1.03429e+03
3.90806e-03,9.94723e+02
3.94740e-03,9.56567e+02
3.98714e-03,9.19778e+02
4.02728e-03,8.84306e+02
4.06783e-03,8.50105e+02
4.10878e-03,8.17129e+02
4.15014e-03,7.85334e+02
4.19192e-03,7.54679e+02
4.23413e-03,7.25122e+02
4.27675e-03,6.96624e+02
4.31981e-03,6.69148e+02
4.36330e-03,6.42657e+02
4.40722e-03,6.17116e+02
4.45159e-03,5.92491e+02
4.49641e-03,5.68749e+02
4.54168e-03,5.45859e+02
4.58740e-03,5.23790e+02
4.63358e-03,5.02512e+02
4.68023e-03,4.81998e+02
4.72735e-03,4.62220e+02
4.77494e-03,4.43152e+02
4.82301e-03,4.24769e+02
4.87156e-03,4.07045e+02
4.92061e-03,3.89958e+02
4.97015e-03,3.73484e+02
5.02018e-03,3.57602e+02
5.07072e-03,3.42290e+02
5.12177e-03,3.27528e+02
5.17333e-03,3.13296e+02
5.22541e-03,2.99576e+02
5.27802e-03,2.86348e+02
5.33116e-03,2.73596e+02
5.38483e-03,2.61302e+02
5.43904e-03,2.49450e+02
5.49379e-03,2.38023e+02
5.54910e-03,2.27008e+02
5.60497e-03,2.16388e+02
5.66139e-03,2.06150e+02
5.71839e-03,1.96281e+02
5.77596e-03,1.86766e+02
5.83411e-03,1.77593e+02
5.89284e-03,1.68750e+02
5.95217e-03,1.60225e+02
6.01209e-03,1.52007e+02
6.07261e-03,1.44084e+02
6.13375e-03,1.36446e+02
6.19550e-03,1.29083e+02
6.25787e-03,1.21985e+02
6.32087e-03,1.15143e+02
6.38451e-03,1.08546e+02
6.44878e-03,1.02187e+02
6.51370e-03,9.60569e+01
6.57928e-03,9.01472e+01
6.64551e-03,8.44503e+01
6.71242e-03,7.89585e+01
6.77999e-03,7.36643e+01
6.84825e-03,6.85607e+01
6.91719e-03,6.36408e+01
6.98683e-03,5.88981e+01
7.05717e-03,5.43261e+01
7.12822e-03,4.99187e+01
7.19998e-03,4.56701e+01
7.27246e-03,4.15744e+01
7.34568e-03,3.76262e+01
7.41963e-03,3.38203e+01
7.49433e-03,3.01514e+01
7.56977e-03,2.66147e+01
7.64598e-03,2.32053e+01
7.72296e-03,1.99188e+01
7.80071e-03,1.67506e+01
7.87924e-03,1.36966e+01
7.95856e-03,1.07527e+01
8.03868e-03,7.91477e+00
8.11961e-03,5.17913e+00
8.20135e-03,2.54205e+00
8.28392e-03,0.00000e+00
