m1=45856.148, m2=8.428, gsp=2.425, rhosp=320.616
fGW[Hz],dPh[rad]
3.91138e-03,2.90260e+05
3.97478e-03,2.77439e+05
4.03920e-03,2.65144e+05
4.10466e-03,2.53355e+05
4.17118e-03,2.42053e+05
4.23879e-03,2.31219e+05
4.30749e-03,2.20836e+05
4.37730e-03,2.10886e+05
4.44824e-03,2.01353e+05
4.52034e-03,1.92221e+05
4.59360e-03,1.83475e+05
4.66805e-03,1.75099e+05
4.74370e-03,1.67079e+05
4.82059e-03,1.59402e+05
4.89872e-03,1.52053e+05
4.97811e-03,1.45020e+05
5.05879e-03,1.38291e+05
5.14078e-03,1.31854e+05
5.22410e-03,1.25696e+05
5.30877e-03,1.19807e+05
5.39481e-03,1.14176e+05
5.48224e-03,1.08793e+05
5.57109e-03,1.03648e+05
5.66138e-03,9.87300e+04
5.75314e-03,9.40311e+04
5.84638e-03,8.95419e+04
5.94114e-03,8.52538e+04
6.03742e-03,8.11586e+04
6.13527e-03,7.72482e+04
6.23471e-03,7.35150e+04
6.33576e-03,6.99515e+04
6.43844e-03,6.65506e+04
6.54279e-03,6.33055e+04
6.64883e-03,6.02096e+04
6.75659e-03,5.72565e+04
6.86610e-03,5.44401e+04
6.97738e-03,5.17546e+04
7.09046e-03,4.91943e+04
7.20538e-03,4.67539e+04
7.32216e-03,4.44281e+04
7.44083e-03,4.22119e+04
7.56142e-03,4.01005e+04
7.68397e-03,3.80892e+04
7.80851e-03,3.61738e+04
7.93506e-03,3.43499e+04
8.06367e-03,3.26134e+04
8.19436e-03,3.09604e+04
8.32717e-03,2.93872e+04
8.46213e-03,2.78902e+04
8.59927e-03,2.64659e+04
8.73864e-03,2.51109e+04
8.88027e-03,2.38223e+04
9.02420e-03,2.25968e+04
9.17045e-03,2.14316e+04
9.31908e-03,2.03239e+04
9.47012e-03,1.92710e+04
9.62360e-03,1.82704e+04
9.77957e-03,1.73196e+04
9.93807e-03,1.64163e+04
1.00991e-02,1.55583e+04
1.02628e-02,1.47433e+04
1.04292e-02,1.39694e+04
1.05982e-02,1.32346e+04
1.07699e-02,1.25369e+04
1.09445e-02,1.18748e+04
1.11219e-02,1.12463e+04
1.13021e-02,1.06499e+04
1.14853e-02,1.00841e+04
1.16715e-02,9.54730e+03
1.18606e-02,9.03812e+03
1.20528e-02,8.55520e+03
1.22482e-02,8.09725e+03
1.24467e-02,7.66305e+03
1.26484e-02,7.25140e+03
1.28534e-02,6.86118e+03
1.30617e-02,6.49134e+03
1.32734e-02,6.14085e+03
1.34886e-02,5.80873e+03
1.37072e-02,5.49406e+03
1.39293e-02,5.19597e+03
1.41551e-02,4.91360e+03
1.43845e-02,4.64617e+03
1.46176e-02,4.39291e+03
1.48545e-02,4.15310e+03
1.50953e-02,3.92604e+03
1.53399e-02,3.71109e+03
1.55886e-02,3.50761e+03
1.58412e-02,3.31503e+03
1.60979e-02,3.13276e+03
1.63588e-02,2.96029e+03
1.66240e-02,2.79709e+03
1.68934e-02,2.64268e+03
1.71672e-02,2.49661e+03
1.74454e-02,2.35844e+03
1.77282e-02,2.22775e+03
1.80155e-02,2.10415e+03
1.83075e-02,1.98726e+03
1.86042e-02,1.87673e+03
1.89057e-02,1.77223e+03
1.92121e-02,1.67343e+03
1.95235e-02,1.58002e+03
1.98399e-02,1.49173e+03
2.01615e-02,1.40828e+03
2.04882e-02,1.32941e+03
2.08203e-02,1.25487e+03
2.11577e-02,1.18443e+03
2.15006e-02,1.11787e+03
2.18491e-02,1.05498e+03
2.22032e-02,9.95567e+02
2.25631e-02,9.39437e+02
2.29288e-02,8.86415e+02
2.33004e-02,8.36330e+02
2.36780e-02,7.89024e+02
2.40618e-02,7.44345e+02
2.44517e-02,7.02150e+02
2.48480e-02,6.62303e+02
2.52507e-02,6.24676e+02
2.56600e-02,5.89148e+02
2.60759e-02,5.55602e+02
2.64985e-02,5.23931e+02
2.69279e-02,4.94031e+02
2.73644e-02,4.65804e+02
2.78079e-02,4.39159e+02
2.82586e-02,4.14008e+02
2.87166e-02,3.90268e+02
2.91820e-02,3.67861e+02
2.96549e-02,3.46714e+02
3.01356e-02,3.26757e+02
3.06240e-02,3.07923e+02
3.11203e-02,2.90150e+02
3.16247e-02,2.73379e+02
3.21372e-02,2.57555e+02
3.26581e-02,2.42623e+02
3.31874e-02,2.28536e+02
3.37252e-02,2.15245e+02
3.42718e-02,2.02705e+02
3.48273e-02,1.90876e+02
3.53917e-02,1.79716e+02
3.59653e-02,1.69189e+02
3.65482e-02,1.59259e+02
3.71406e-02,1.49893e+02
3.77425e-02,1.41058e+02
3.83542e-02,1.32725e+02
3.89758e-02,1.24866e+02
3.96075e-02,1.17453e+02
4.02495e-02,1.10462e+02
4.09018e-02,1.03870e+02
4.15647e-02,9.76523e+01
4.22383e-02,9.17891e+01
4.29229e-02,8.62602e+01
4.36186e-02,8.10465e+01
4.43255e-02,7.61303e+01
4.50439e-02,7.14947e+01
4.57739e-02,6.71238e+01
4.65158e-02,6.30025e+01
4.72697e-02,5.91168e+01
4.80358e-02,5.54531e+01
4.88143e-02,5.19990e+01
4.96055e-02,4.87425e+01
5.04094e-02,4.56724e+01
5.12264e-02,4.27780e+01
5.20567e-02,4.00494e+01
5.29004e-02,3.74771e+01
5.37577e-02,3.50522e+01
5.46290e-02,3.27663e+01
5.55144e-02,3.06115e+01
5.64141e-02,2.85802e+01
5.73284e-02,2.66655e+01
5.82576e-02,2.48607e+01
5.92018e-02,2.31595e+01
6.01613e-02,2.15560e+01
6.11363e-02,2.00446e+01
6.21272e-02,1.86200e+01
6.31341e-02,1.72773e+01
6.41573e-02,1.60118e+01
6.51971e-02,1.48190e+01
6.62538e-02,1.36948e+01
6.73276e-02,1.26353e+01
6.84188e-02,1.16367e+01
6.95276e-02,1.06956e+01
7.06545e-02,9.80864e+00
7.17996e-02,8.97276e+00
7.29633e-02,8.18500e+00
7.41458e-02,7.44261e+00
7.53475e-02,6.74298e+00
7.65687e-02,6.08366e+00
7.78096e-02,5.46233e+00
7.90707e-02,4.87681e+00
8.03522e-02,4.32503e+00
8.16545e-02,3.80507e+00
8.29779e-02,3.31508e+00
8.43227e-02,2.85336e+00
8.56894e-02,2.41826e+00
8.70782e-02,2.00826e+00
8.84895e-02,1.62192e+00
8.99236e-02,1.25787e+00
9.13810e-02,9.14826e-01
9.28621e-02,5.91583e-01
9.43671e-02,2.86999e-01
9.58965e-02,0.00000e+00
