m1=14268.843, m2=42.329, gsp=2.011, rhosp=1184.703
fGW[Hz],dPh[rad]
2.86013e-03,4.33681e+01
2.92821e-03,4.10293e+01
2.99791e-03,3.88158e+01
3.06927e-03,3.67209e+01
3.14232e-03,3.47381e+01
3.21712e-03,3.28616e+01
3.29369e-03,3.10857e+01
3.37209e-03,2.94050e+01
3.45236e-03,2.78143e+01
3.53453e-03,2.63090e+01
3.61866e-03,2.48844e+01
3.70480e-03,2.35363e+01
3.79298e-03,2.22605e+01
3.88326e-03,2.10532e+01
3.97569e-03,1.99107e+01
4.07033e-03,1.88296e+01
4.16721e-03,1.78066e+01
4.26640e-03,1.68385e+01
4.36795e-03,1.59225e+01
4.47192e-03,1.50558e+01
4.57836e-03,1.42357e+01
4.68734e-03,1.34597e+01
4.79891e-03,1.27255e+01
4.91314e-03,1.20308e+01
5.03008e-03,1.13736e+01
5.14981e-03,1.07518e+01
5.27239e-03,1.01635e+01
5.39789e-03,9.60698e+00
5.52637e-03,9.08046e+00
5.65791e-03,8.58238e+00
5.79259e-03,8.11120e+00
5.93047e-03,7.66548e+00
6.07163e-03,7.24386e+00
6.21615e-03,6.84505e+00
6.36411e-03,6.46783e+00
6.51559e-03,6.11103e+00
6.67068e-03,5.77357e+00
6.82946e-03,5.45440e+00
6.99202e-03,5.15255e+00
7.15844e-03,4.86708e+00
7.32883e-03,4.59712e+00
7.50328e-03,4.34183e+00
7.68188e-03,4.10042e+00
7.86473e-03,3.87216e+00
8.05193e-03,3.65632e+00
8.24358e-03,3.45226e+00
8.43980e-03,3.25932e+00
8.64069e-03,3.07692e+00
8.84636e-03,2.90448e+00
9.05693e-03,2.74147e+00
9.27251e-03,2.58738e+00
9.49322e-03,2.44173e+00
9.71918e-03,2.30407e+00
9.95052e-03,2.17397e+00
1.01874e-02,2.05101e+00
1.04299e-02,1.93481e+00
1.06781e-02,1.82501e+00
1.09323e-02,1.72126e+00
1.11925e-02,1.62324e+00
1.14589e-02,1.53062e+00
1.17317e-02,1.44313e+00
1.20109e-02,1.36049e+00
1.22968e-02,1.28242e+00
1.25895e-02,1.20869e+00
1.28892e-02,1.13905e+00
1.31959e-02,1.07329e+00
1.35100e-02,1.01119e+00
1.38316e-02,9.52564e-01
1.41608e-02,8.97211e-01
1.44979e-02,8.44955e-01
1.48430e-02,7.95630e-01
1.51963e-02,7.49074e-01
1.55580e-02,7.05136e-01
1.59283e-02,6.63675e-01
1.63075e-02,6.24553e-01
1.66956e-02,5.87643e-01
1.70930e-02,5.52824e-01
1.74999e-02,5.19981e-01
1.79164e-02,4.89005e-01
1.83429e-02,4.59795e-01
1.87795e-02,4.32252e-01
1.92265e-02,4.06285e-01
1.96841e-02,3.81807e-01
2.01527e-02,3.58735e-01
2.06324e-02,3.36992e-01
2.11235e-02,3.16505e-01
2.16263e-02,2.97203e-01
2.21410e-02,2.79021e-01
2.26680e-02,2.61896e-01
2.32076e-02,2.45769e-01
2.37600e-02,2.30586e-01
2.43255e-02,2.16292e-01
2.49046e-02,2.02839e-01
2.54973e-02,1.90178e-01
2.61042e-02,1.78266e-01
2.67256e-02,1.67061e-01
2.73617e-02,1.56521e-01
2.80130e-02,1.46611e-01
2.86798e-02,1.37293e-01
2.93625e-02,1.28535e-01
3.00614e-02,1.20305e-01
3.07769e-02,1.12572e-01
3.15095e-02,1.05307e-01
3.22595e-02,9.84852e-02
3.30273e-02,9.20796e-02
3.38135e-02,8.60667e-02
3.46183e-02,8.04237e-02
3.54423e-02,7.51291e-02
3.62859e-02,7.01626e-02
3.71496e-02,6.55052e-02
3.80339e-02,6.11388e-02
3.89392e-02,5.70462e-02
3.98661e-02,5.32113e-02
4.08150e-02,4.96189e-02
4.17865e-02,4.62546e-02
4.27811e-02,4.31048e-02
4.37994e-02,4.01567e-02
4.48419e-02,3.73983e-02
4.59093e-02,3.48180e-02
4.70021e-02,3.24052e-02
4.81208e-02,3.01496e-02
4.92662e-02,2.80417e-02
5.04389e-02,2.60724e-02
5.16395e-02,2.42332e-02
5.28686e-02,2.25161e-02
5.41270e-02,2.09135e-02
5.54154e-02,1.94183e-02
5.67344e-02,1.80238e-02
5.80849e-02,1.67236e-02
5.94674e-02,1.55117e-02
6.08829e-02,1.43826e-02
6.23321e-02,1.33310e-02
6.38157e-02,1.23519e-02
6.53347e-02,1.14406e-02
6.68899e-02,1.05928e-02
6.84820e-02,9.80424e-03
7.01121e-02,9.07113e-03
7.17809e-02,8.38981e-03
7.34895e-02,7.75683e-03
7.52387e-02,7.16900e-03
7.70296e-02,6.62329e-03
7.88631e-02,6.11686e-03
8.07402e-02,5.64707e-03
8.26621e-02,5.21142e-03
8.46296e-02,4.80759e-03
8.66441e-02,4.43338e-03
8.87064e-02,4.08675e-03
9.08179e-02,3.76578e-03
9.29796e-02,3.46869e-03
9.51927e-02,3.19379e-03
9.74585e-02,2.93952e-03
9.97783e-02,2.70442e-03
1.02153e-01,2.48711e-03
1.04585e-01,2.28633e-03
1.07074e-01,2.10088e-03
1.09623e-01,1.92964e-03
1.12232e-01,1.77159e-03
1.14904e-01,1.62576e-03
1.17639e-01,1.49125e-03
1.20439e-01,1.36722e-03
1.23305e-01,1.25289e-03
1.26240e-01,1.14754e-03
1.29245e-01,1.05049e-03
1.32322e-01,9.61116e-04
1.35471e-01,8.78840e-04
1.38696e-01,8.03118e-04
1.41997e-01,7.33451e-04
1.45377e-01,6.69372e-04
1.48837e-01,6.10451e-04
1.52380e-01,5.56287e-04
1.56007e-01,5.06511e-04
1.59721e-01,4.60780e-04
1.63522e-01,4.18776e-04
1.67415e-01,3.80205e-04
1.71399e-01,3.44797e-04
1.75479e-01,3.12299e-04
1.79656e-01,2.82481e-04
1.83932e-01,2.55127e-04
1.88310e-01,2.30040e-04
1.92793e-01,2.07038e-04
1.97382e-01,1.85952e-04
2.02080e-01,1.66626e-04
2.06890e-01,1.48917e-04
2.11814e-01,1.32694e-04
2.16856e-01,1.17835e-04
2.22018e-01,1.04228e-04
2.27302e-01,9.17692e-05
2.32713e-01,8.03645e-05
2.38252e-01,6.99265e-05
2.43923e-01,6.03749e-05
2.49729e-01,5.16360e-05
2.55673e-01,4.36420e-05
2.61759e-01,3.63305e-05
2.67989e-01,2.96444e-05
2.74368e-01,2.35310e-05
2.80899e-01,1.79422e-05
2.87585e-01,1.28336e-05
2.94430e-01,8.16474e-06
3.01439e-01,3.89826e-06
3.08614e-01,0.00000e+00
