m1=81582.537, m2=4.103, gsp=2.185, rhosp=31.559
fGW[Hz],dPh[rad]
4.43591e-03,1.85285e+03
4.49193e-03,1.77074e+03
4.54866e-03,1.69217e+03
4.60610e-03,1.61700e+03
4.66427e-03,1.54508e+03
4.72317e-03,1.47628e+03
4.78282e-03,1.41047e+03
4.84322e-03,1.34752e+03
4.90438e-03,1.28732e+03
4.96632e-03,1.22974e+03
5.02904e-03,1.17468e+03
5.09255e-03,1.12203e+03
5.15686e-03,1.07169e+03
5.22198e-03,1.02356e+03
5.28793e-03,9.77537e+02
5.35471e-03,9.33544e+02
5.42233e-03,8.91490e+02
5.49081e-03,8.51291e+02
5.56015e-03,8.12869e+02
5.63037e-03,7.76146e+02
5.70147e-03,7.41050e+02
5.77347e-03,7.07510e+02
5.84639e-03,6.75460e+02
5.92022e-03,6.44835e+02
5.99498e-03,6.15573e+02
6.07069e-03,5.87616e+02
6.14735e-03,5.60905e+02
6.22499e-03,5.35388e+02
6.30360e-03,5.11011e+02
6.38321e-03,4.87726e+02
6.46382e-03,4.65485e+02
6.54545e-03,4.44241e+02
6.62811e-03,4.23951e+02
6.71181e-03,4.04574e+02
6.79657e-03,3.86068e+02
6.88240e-03,3.68396e+02
6.96932e-03,3.51521e+02
7.05733e-03,3.35408e+02
7.14646e-03,3.20022e+02
7.23671e-03,3.05333e+02
7.32810e-03,2.91308e+02
7.42064e-03,2.77918e+02
7.51435e-03,2.65136e+02
7.60925e-03,2.52933e+02
7.70534e-03,2.41285e+02
7.80265e-03,2.30166e+02
7.90119e-03,2.19553e+02
8.00097e-03,2.09424e+02
8.10201e-03,1.99756e+02
8.20433e-03,1.90529e+02
8.30794e-03,1.81723e+02
8.41286e-03,1.73319e+02
8.51910e-03,1.65299e+02
8.62668e-03,1.57646e+02
8.73563e-03,1.50344e+02
8.84595e-03,1.43376e+02
8.95766e-03,1.36727e+02
9.07078e-03,1.30384e+02
9.18533e-03,1.24331e+02
9.30133e-03,1.18557e+02
9.41880e-03,1.13048e+02
9.53774e-03,1.07792e+02
9.65819e-03,1.02778e+02
9.78016e-03,9.79949e+01
9.90367e-03,9.34323e+01
1.00287e-02,8.90800e+01
1.01554e-02,8.49284e+01
1.02836e-02,8.09685e+01
1.04135e-02,7.71914e+01
1.05450e-02,7.35888e+01
1.06782e-02,7.01528e+01
1.08130e-02,6.68757e+01
1.09496e-02,6.37503e+01
1.10879e-02,6.07695e+01
1.12279e-02,5.79269e+01
1.13697e-02,5.52160e+01
1.15133e-02,5.26308e+01
1.16587e-02,5.01655e+01
1.18059e-02,4.78146e+01
1.19550e-02,4.55729e+01
1.21060e-02,4.34353e+01
1.22588e-02,4.13971e+01
1.24137e-02,3.94536e+01
1.25704e-02,3.76005e+01
1.27292e-02,3.58337e+01
1.28899e-02,3.41490e+01
1.30527e-02,3.25429e+01
1.32176e-02,3.10115e+01
1.33845e-02,2.95516e+01
1.35535e-02,2.81597e+01
1.37247e-02,2.68327e+01
1.38980e-02,2.55676e+01
1.40735e-02,2.43616e+01
1.42512e-02,2.32119e+01
1.44312e-02,2.21158e+01
1.46134e-02,2.10710e+01
1.47980e-02,2.00750e+01
1.49849e-02,1.91256e+01
1.51741e-02,1.82205e+01
1.53657e-02,1.73578e+01
1.55598e-02,1.65355e+01
1.57563e-02,1.57517e+01
1.59553e-02,1.50045e+01
1.61568e-02,1.42924e+01
1.63608e-02,1.36136e+01
1.65674e-02,1.29666e+01
1.67766e-02,1.23499e+01
1.69885e-02,1.17622e+01
1.72030e-02,1.12020e+01
1.74203e-02,1.06681e+01
1.76403e-02,1.01592e+01
1.78631e-02,9.67425e+00
1.80887e-02,9.21204e+00
1.83171e-02,8.77153e+00
1.85484e-02,8.35171e+00
1.87826e-02,7.95161e+00
1.90198e-02,7.57030e+00
1.92600e-02,7.20691e+00
1.95033e-02,6.86061e+00
1.97496e-02,6.53058e+00
1.99990e-02,6.21608e+00
2.02515e-02,5.91636e+00
2.05073e-02,5.63075e+00
2.07663e-02,5.35857e+00
2.10285e-02,5.09920e+00
2.12941e-02,4.85204e+00
2.15630e-02,4.61652e+00
2.18353e-02,4.39208e+00
2.21111e-02,4.17821e+00
2.23903e-02,3.97442e+00
2.26730e-02,3.78022e+00
2.29594e-02,3.59518e+00
2.32493e-02,3.41885e+00
2.35429e-02,3.25084e+00
2.38402e-02,3.09075e+00
2.41413e-02,2.93820e+00
2.44462e-02,2.79284e+00
2.47549e-02,2.65434e+00
2.50675e-02,2.52238e+00
2.53841e-02,2.39663e+00
2.57047e-02,2.27682e+00
2.60293e-02,2.16267e+00
2.63580e-02,2.05390e+00
2.66909e-02,1.95026e+00
2.70279e-02,1.85151e+00
2.73693e-02,1.75743e+00
2.77149e-02,1.66779e+00
2.80649e-02,1.58238e+00
2.84193e-02,1.50101e+00
2.87782e-02,1.42347e+00
2.91416e-02,1.34960e+00
2.95097e-02,1.27922e+00
2.98823e-02,1.21217e+00
3.02597e-02,1.14828e+00
3.06418e-02,1.08741e+00
3.10288e-02,1.02942e+00
3.14207e-02,9.74169e-01
3.18175e-02,9.21530e-01
3.22193e-02,8.71379e-01
3.26262e-02,8.23600e-01
3.30382e-02,7.78079e-01
3.34554e-02,7.34710e-01
3.38779e-02,6.93393e-01
3.43057e-02,6.54029e-01
3.47390e-02,6.16528e-01
3.51777e-02,5.80800e-01
3.56219e-02,5.46762e-01
3.60718e-02,5.14334e-01
3.65273e-02,4.83441e-01
3.69886e-02,4.54009e-01
3.74557e-02,4.25970e-01
3.79287e-02,3.99258e-01
3.84077e-02,3.73810e-01
3.88928e-02,3.49567e-01
3.93839e-02,3.26470e-01
3.98813e-02,3.04468e-01
4.03849e-02,2.83506e-01
4.08950e-02,2.63537e-01
4.14114e-02,2.44514e-01
4.19344e-02,2.26391e-01
4.24639e-02,2.09126e-01
4.30002e-02,1.92679e-01
4.35432e-02,1.77011e-01
4.40931e-02,1.62084e-01
4.46500e-02,1.47865e-01
4.52138e-02,1.34319e-01
4.57848e-02,1.21414e-01
4.63630e-02,1.09121e-01
4.69485e-02,9.74104e-02
4.75414e-02,8.62543e-02
4.81418e-02,7.56268e-02
4.87498e-02,6.55027e-02
4.93654e-02,5.58583e-02
4.99888e-02,4.66709e-02
5.06201e-02,3.79188e-02
5.12594e-02,2.95814e-02
5.19067e-02,2.16391e-02
5.25622e-02,1.40732e-02
5.32260e-02,6.86579e-03
5.38982e-02,0.00000e+00
