m1=9482.450, m2=4.628, gsp=2.372, rhosp=349.892
fGW[Hz],dPh[rad]
7.26234e-03,1.30703e+05
7.41563e-03,1.24641e+05
7.57216e-03,1.18849e+05
7.73199e-03,1.13315e+05
7.89520e-03,1.08028e+05
8.06185e-03,1.02976e+05
8.23202e-03,9.81510e+04
8.40578e-03,9.35417e+04
8.58321e-03,8.91392e+04
8.76439e-03,8.49344e+04
8.94939e-03,8.09187e+04
9.13829e-03,7.70840e+04
9.33118e-03,7.34222e+04
9.52815e-03,6.99260e+04
9.72927e-03,6.65881e+04
9.93463e-03,6.34015e+04
1.01443e-02,6.03596e+04
1.03585e-02,5.74562e+04
1.05771e-02,5.46852e+04
1.08004e-02,5.20407e+04
1.10283e-02,4.95173e+04
1.12611e-02,4.71096e+04
1.14988e-02,4.48125e+04
1.17416e-02,4.26212e+04
1.19894e-02,4.05310e+04
1.22425e-02,3.85375e+04
1.25009e-02,3.66363e+04
1.27648e-02,3.48235e+04
1.30342e-02,3.30951e+04
1.33093e-02,3.14474e+04
1.35903e-02,2.98767e+04
1.38771e-02,2.83797e+04
1.41700e-02,2.69531e+04
1.44691e-02,2.55938e+04
1.47746e-02,2.42987e+04
1.50864e-02,2.30651e+04
1.54049e-02,2.18900e+04
1.57300e-02,2.07710e+04
1.60621e-02,1.97055e+04
1.64011e-02,1.86910e+04
1.67473e-02,1.77254e+04
1.71008e-02,1.68063e+04
1.74618e-02,1.59317e+04
1.78303e-02,1.50996e+04
1.82067e-02,1.43080e+04
1.85910e-02,1.35551e+04
1.89834e-02,1.28391e+04
1.93841e-02,1.21583e+04
1.97933e-02,1.15112e+04
2.02111e-02,1.08961e+04
2.06377e-02,1.03116e+04
2.10733e-02,9.75622e+03
2.15182e-02,9.22870e+03
2.19724e-02,8.72771e+03
2.24362e-02,8.25201e+03
2.29097e-02,7.80041e+03
2.33933e-02,7.37179e+03
2.38871e-02,6.96506e+03
2.43913e-02,6.57919e+03
2.49062e-02,6.21319e+03
2.54319e-02,5.86612e+03
2.59687e-02,5.53707e+03
2.65169e-02,5.22518e+03
2.70766e-02,4.92962e+03
2.76481e-02,4.64961e+03
2.82317e-02,4.38439e+03
2.88276e-02,4.13325e+03
2.94361e-02,3.89549e+03
3.00575e-02,3.67046e+03
3.06919e-02,3.45753e+03
3.13398e-02,3.25611e+03
3.20013e-02,3.06562e+03
3.26768e-02,2.88551e+03
3.33665e-02,2.71528e+03
3.40708e-02,2.55441e+03
3.47900e-02,2.40244e+03
3.55243e-02,2.25891e+03
3.62742e-02,2.12339e+03
3.70399e-02,1.99547e+03
3.78217e-02,1.87476e+03
3.86201e-02,1.76088e+03
3.94352e-02,1.65348e+03
4.02676e-02,1.55222e+03
4.11176e-02,1.45678e+03
4.19855e-02,1.36684e+03
4.28718e-02,1.28212e+03
4.37767e-02,1.20233e+03
4.47008e-02,1.12721e+03
4.56443e-02,1.05651e+03
4.66078e-02,9.89984e+02
4.75916e-02,9.27408e+02
4.85961e-02,8.68564e+02
4.96219e-02,8.13246e+02
5.06693e-02,7.61257e+02
5.17388e-02,7.12411e+02
5.28310e-02,6.66533e+02
5.39461e-02,6.23453e+02
5.50848e-02,5.83013e+02
5.62475e-02,5.45063e+02
5.74348e-02,5.09460e+02
5.86472e-02,4.76067e+02
5.98851e-02,4.44757e+02
6.11491e-02,4.15408e+02
6.24399e-02,3.87905e+02
6.37579e-02,3.62139e+02
6.51037e-02,3.38007e+02
6.64779e-02,3.15412e+02
6.78811e-02,2.94262e+02
6.93140e-02,2.74469e+02
7.07770e-02,2.55952e+02
7.22710e-02,2.38632e+02
7.37965e-02,2.22438e+02
7.53542e-02,2.07298e+02
7.69448e-02,1.93149e+02
7.85689e-02,1.79929e+02
8.02274e-02,1.67580e+02
8.19208e-02,1.56047e+02
8.36500e-02,1.45280e+02
8.54157e-02,1.35229e+02
8.72187e-02,1.25850e+02
8.90597e-02,1.17098e+02
9.09396e-02,1.08936e+02
9.28591e-02,1.01323e+02
9.48192e-02,9.42253e+01
9.68206e-02,8.76090e+01
9.88643e-02,8.14429e+01
1.00951e-01,7.56974e+01
1.03082e-01,7.03449e+01
1.05258e-01,6.53597e+01
1.07480e-01,6.07174e+01
1.09748e-01,5.63953e+01
1.12065e-01,5.23719e+01
1.14430e-01,4.86275e+01
1.16846e-01,4.51433e+01
1.19312e-01,4.19017e+01
1.21831e-01,3.88864e+01
1.24402e-01,3.60821e+01
1.27028e-01,3.34744e+01
1.29710e-01,3.10500e+01
1.32447e-01,2.87964e+01
1.35243e-01,2.67017e+01
1.38098e-01,2.47552e+01
1.41013e-01,2.29465e+01
1.43989e-01,2.12663e+01
1.47029e-01,1.97055e+01
1.50132e-01,1.82559e+01
1.53301e-01,1.69097e+01
1.56537e-01,1.56598e+01
1.59841e-01,1.44994e+01
1.63215e-01,1.34221e+01
1.66660e-01,1.24223e+01
1.70178e-01,1.14943e+01
1.73770e-01,1.06332e+01
1.77438e-01,9.83427e+00
1.81184e-01,9.09302e+00
1.85008e-01,8.40538e+00
1.88913e-01,7.76756e+00
1.92901e-01,7.17599e+00
1.96973e-01,6.62738e+00
2.01130e-01,6.11865e+00
2.05376e-01,5.64695e+00
2.09711e-01,5.20962e+00
2.14138e-01,4.80419e+00
2.18658e-01,4.42837e+00
2.23273e-01,4.08002e+00
2.27986e-01,3.75716e+00
2.32798e-01,3.45794e+00
2.37712e-01,3.18066e+00
2.42730e-01,2.92373e+00
2.47853e-01,2.68567e+00
2.53085e-01,2.46510e+00
2.58427e-01,2.26076e+00
2.63882e-01,2.07147e+00
2.69452e-01,1.89612e+00
2.75140e-01,1.73370e+00
2.80947e-01,1.58327e+00
2.86878e-01,1.44394e+00
2.92933e-01,1.31491e+00
2.99116e-01,1.19542e+00
3.05430e-01,1.08477e+00
3.11877e-01,9.82315e-01
3.18460e-01,8.87448e-01
3.25182e-01,7.99612e-01
3.32046e-01,7.18290e-01
3.39055e-01,6.43003e-01
3.46212e-01,5.73305e-01
3.53520e-01,5.08784e-01
3.60982e-01,4.49058e-01
3.68602e-01,3.93773e-01
3.76382e-01,3.42600e-01
3.84327e-01,2.95236e-01
3.92439e-01,2.51398e-01
4.00723e-01,2.10825e-01
4.09181e-01,1.73275e-01
4.17818e-01,1.38524e-01
4.26638e-01,1.06365e-01
4.35643e-01,7.66043e-02
4.44839e-01,4.90647e-02
4.54228e-01,2.35809e-02
4.63816e-01,0.00000e+00
