m1=68616.140, m2=3.077, gsp=2.329, rhosp=38.102
fGW[Hz],dPh[rad]
5.15999e-03,3.07615e+04
5.22573e-03,2.94130e+04
5.29231e-03,2.81221e+04
5.35973e-03,2.68865e+04
5.42801e-03,2.57038e+04
5.49717e-03,2.45720e+04
5.56720e-03,2.34887e+04
5.63813e-03,2.24522e+04
5.70996e-03,2.14603e+04
5.78270e-03,2.05113e+04
5.85637e-03,1.96034e+04
5.93098e-03,1.87347e+04
6.00654e-03,1.79037e+04
6.08307e-03,1.71088e+04
6.16057e-03,1.63485e+04
6.23905e-03,1.56213e+04
6.31854e-03,1.49258e+04
6.39904e-03,1.42606e+04
6.48056e-03,1.36246e+04
6.56312e-03,1.30163e+04
6.64674e-03,1.24347e+04
6.73142e-03,1.18787e+04
6.81717e-03,1.13470e+04
6.90402e-03,1.08387e+04
6.99198e-03,1.03528e+04
7.08106e-03,9.88830e+03
7.17127e-03,9.44429e+03
7.26263e-03,9.01990e+03
7.35516e-03,8.61426e+03
7.44887e-03,8.22657e+03
7.54376e-03,7.85606e+03
7.63987e-03,7.50198e+03
7.73720e-03,7.16361e+03
7.83578e-03,6.84028e+03
7.93560e-03,6.53133e+03
8.03670e-03,6.23614e+03
8.13909e-03,5.95409e+03
8.24278e-03,5.68463e+03
8.34780e-03,5.42719e+03
8.45415e-03,5.18125e+03
8.56185e-03,4.94631e+03
8.67093e-03,4.72189e+03
8.78140e-03,4.50752e+03
8.89327e-03,4.30275e+03
9.00657e-03,4.10718e+03
9.12132e-03,3.92038e+03
9.23752e-03,3.74198e+03
9.35521e-03,3.57160e+03
9.47439e-03,3.40888e+03
9.59510e-03,3.25350e+03
9.71734e-03,3.10511e+03
9.84114e-03,2.96342e+03
9.96651e-03,2.82812e+03
1.00935e-02,2.69894e+03
1.02221e-02,2.57559e+03
1.03523e-02,2.45782e+03
1.04842e-02,2.34537e+03
1.06178e-02,2.23802e+03
1.07530e-02,2.13553e+03
1.08900e-02,2.03769e+03
1.10288e-02,1.94429e+03
1.11693e-02,1.85513e+03
1.13116e-02,1.77001e+03
1.14557e-02,1.68876e+03
1.16016e-02,1.61121e+03
1.17494e-02,1.53719e+03
1.18991e-02,1.46653e+03
1.20507e-02,1.39909e+03
1.22042e-02,1.33472e+03
1.23597e-02,1.27329e+03
1.25172e-02,1.21466e+03
1.26767e-02,1.15871e+03
1.28382e-02,1.10531e+03
1.30017e-02,1.05434e+03
1.31674e-02,1.00571e+03
1.33351e-02,9.59301e+02
1.35050e-02,9.15013e+02
1.36770e-02,8.72752e+02
1.38513e-02,8.32425e+02
1.40278e-02,7.93945e+02
1.42065e-02,7.57227e+02
1.43875e-02,7.22192e+02
1.45708e-02,6.88764e+02
1.47564e-02,6.56869e+02
1.49444e-02,6.26437e+02
1.51348e-02,5.97402e+02
1.53276e-02,5.69700e+02
1.55229e-02,5.43270e+02
1.57206e-02,5.18055e+02
1.59209e-02,4.93999e+02
1.61237e-02,4.71049e+02
1.63292e-02,4.49155e+02
1.65372e-02,4.28267e+02
1.67479e-02,4.08342e+02
1.69612e-02,3.89333e+02
1.71773e-02,3.71200e+02
1.73962e-02,3.53902e+02
1.76178e-02,3.37401e+02
1.78423e-02,3.21661e+02
1.80696e-02,3.06647e+02
1.82998e-02,2.92325e+02
1.85329e-02,2.78663e+02
1.87690e-02,2.65632e+02
1.90081e-02,2.53203e+02
1.92503e-02,2.41347e+02
1.94955e-02,2.30039e+02
1.97439e-02,2.19253e+02
1.99955e-02,2.08965e+02
2.02502e-02,1.99153e+02
2.05082e-02,1.89794e+02
2.07695e-02,1.80868e+02
2.10341e-02,1.72355e+02
2.13020e-02,1.64235e+02
2.15734e-02,1.56492e+02
2.18483e-02,1.49106e+02
2.21266e-02,1.42062e+02
2.24085e-02,1.35345e+02
2.26940e-02,1.28938e+02
2.29831e-02,1.22828e+02
2.32759e-02,1.17001e+02
2.35725e-02,1.11444e+02
2.38728e-02,1.06144e+02
2.41769e-02,1.01090e+02
2.44849e-02,9.62704e+01
2.47969e-02,9.16741e+01
2.51128e-02,8.72909e+01
2.54327e-02,8.31109e+01
2.57567e-02,7.91248e+01
2.60849e-02,7.53237e+01
2.64172e-02,7.16988e+01
2.67537e-02,6.82422e+01
2.70946e-02,6.49460e+01
2.74398e-02,6.18027e+01
2.77894e-02,5.88054e+01
2.81434e-02,5.59473e+01
2.85019e-02,5.32218e+01
2.88650e-02,5.06230e+01
2.92328e-02,4.81448e+01
2.96052e-02,4.57817e+01
2.99824e-02,4.35285e+01
3.03644e-02,4.13799e+01
3.07512e-02,3.93312e+01
3.11430e-02,3.73776e+01
3.15397e-02,3.55149e+01
3.19416e-02,3.37388e+01
3.23485e-02,3.20452e+01
3.27606e-02,3.04304e+01
3.31780e-02,2.88907e+01
3.36007e-02,2.74226e+01
3.40287e-02,2.60227e+01
3.44623e-02,2.46880e+01
3.49013e-02,2.34153e+01
3.53460e-02,2.22019e+01
3.57963e-02,2.10449e+01
3.62523e-02,1.99418e+01
3.67142e-02,1.88900e+01
3.71819e-02,1.78871e+01
3.76556e-02,1.69310e+01
3.81353e-02,1.60193e+01
3.86212e-02,1.51500e+01
3.91132e-02,1.43213e+01
3.96115e-02,1.35311e+01
4.01162e-02,1.27777e+01
4.06272e-02,1.20594e+01
4.11448e-02,1.13746e+01
4.16690e-02,1.07216e+01
4.21999e-02,1.00991e+01
4.27375e-02,9.50551e+00
4.32820e-02,8.93961e+00
4.38334e-02,8.40007e+00
4.43918e-02,7.88567e+00
4.49574e-02,7.39524e+00
4.55301e-02,6.92765e+00
4.61102e-02,6.48186e+00
4.66976e-02,6.05684e+00
4.72926e-02,5.65163e+00
4.78951e-02,5.26530e+00
4.85053e-02,4.89698e+00
4.91232e-02,4.54582e+00
4.97490e-02,4.21104e+00
5.03828e-02,3.89186e+00
5.10247e-02,3.58756e+00
5.16748e-02,3.29744e+00
5.23331e-02,3.02086e+00
5.29998e-02,2.75717e+00
5.36751e-02,2.50577e+00
5.43589e-02,2.26610e+00
5.50514e-02,2.03760e+00
5.57528e-02,1.81976e+00
5.64631e-02,1.61207e+00
5.71824e-02,1.41408e+00
5.79109e-02,1.22531e+00
5.86487e-02,1.04536e+00
5.93959e-02,8.73793e-01
6.01526e-02,7.10231e-01
6.09189e-02,5.54299e-01
6.16950e-02,4.05641e-01
6.24810e-02,2.63919e-01
6.32770e-02,1.28808e-01
6.40832e-02,0.00000e+00
