m1=231378.913, m2=49.980, gsp=2.373, rhosp=511.849
fGW[Hz],dPh[rad]
1.33873e-03,3.91708e+04
1.35669e-03,3.75795e+04
1.37490e-03,3.60490e+04
1.39335e-03,3.45772e+04
1.41205e-03,3.31621e+04
1.43101e-03,3.18016e+04
1.45021e-03,3.04937e+04
1.46967e-03,2.92366e+04
1.48940e-03,2.80284e+04
1.50939e-03,2.68675e+04
1.52965e-03,2.57519e+04
1.55018e-03,2.46802e+04
1.57098e-03,2.36508e+04
1.59206e-03,2.26619e+04
1.61343e-03,2.17123e+04
1.63509e-03,2.08004e+04
1.65703e-03,1.99248e+04
1.67927e-03,1.90842e+04
1.70181e-03,1.82773e+04
1.72465e-03,1.75028e+04
1.74779e-03,1.67596e+04
1.77125e-03,1.60463e+04
1.79502e-03,1.53620e+04
1.81911e-03,1.47054e+04
1.84353e-03,1.40756e+04
1.86827e-03,1.34716e+04
1.89334e-03,1.28922e+04
1.91875e-03,1.23367e+04
1.94451e-03,1.18040e+04
1.97060e-03,1.12933e+04
1.99705e-03,1.08038e+04
2.02385e-03,1.03345e+04
2.05102e-03,9.88479e+03
2.07854e-03,9.45381e+03
2.10644e-03,9.04085e+03
2.13471e-03,8.64519e+03
2.16336e-03,8.26614e+03
2.19239e-03,7.90306e+03
2.22182e-03,7.55530e+03
2.25164e-03,7.22225e+03
2.28186e-03,6.90332e+03
2.31248e-03,6.59795e+03
2.34352e-03,6.30558e+03
2.37497e-03,6.02570e+03
2.40684e-03,5.75779e+03
2.43915e-03,5.50136e+03
2.47188e-03,5.25596e+03
2.50506e-03,5.02113e+03
2.53868e-03,4.79643e+03
2.57275e-03,4.58145e+03
2.60728e-03,4.37578e+03
2.64227e-03,4.17905e+03
2.67773e-03,3.99087e+03
2.71367e-03,3.81090e+03
2.75009e-03,3.63880e+03
2.78700e-03,3.47422e+03
2.82440e-03,3.31687e+03
2.86231e-03,3.16643e+03
2.90073e-03,3.02261e+03
2.93966e-03,2.88513e+03
2.97911e-03,2.75373e+03
3.01909e-03,2.62814e+03
3.05961e-03,2.50812e+03
3.10067e-03,2.39343e+03
3.14229e-03,2.28384e+03
3.18446e-03,2.17914e+03
3.22720e-03,2.07911e+03
3.27051e-03,1.98356e+03
3.31441e-03,1.89228e+03
3.35889e-03,1.80510e+03
3.40397e-03,1.72183e+03
3.44965e-03,1.64231e+03
3.49595e-03,1.56638e+03
3.54287e-03,1.49387e+03
3.59042e-03,1.42464e+03
3.63861e-03,1.35854e+03
3.68744e-03,1.29544e+03
3.73693e-03,1.23520e+03
3.78708e-03,1.17770e+03
3.83791e-03,1.12282e+03
3.88942e-03,1.07044e+03
3.94162e-03,1.02045e+03
3.99452e-03,9.72741e+02
4.04813e-03,9.27218e+02
4.10246e-03,8.83779e+02
4.15752e-03,8.42333e+02
4.21332e-03,8.02790e+02
4.26986e-03,7.65065e+02
4.32717e-03,7.29076e+02
4.38524e-03,6.94746e+02
4.44410e-03,6.62000e+02
4.50374e-03,6.30765e+02
4.56419e-03,6.00975e+02
4.62544e-03,5.72564e+02
4.68752e-03,5.45469e+02
4.75043e-03,5.19630e+02
4.81419e-03,4.94992e+02
4.87880e-03,4.71498e+02
4.94428e-03,4.49097e+02
5.01064e-03,4.27739e+02
5.07788e-03,4.07376e+02
5.14603e-03,3.87963e+02
5.21510e-03,3.69457e+02
5.28509e-03,3.51815e+02
5.35602e-03,3.34999e+02
5.42791e-03,3.18969e+02
5.50075e-03,3.03691e+02
5.57458e-03,2.89129e+02
5.64940e-03,2.75251e+02
5.72522e-03,2.62024e+02
5.80205e-03,2.49419e+02
5.87992e-03,2.37407e+02
5.95884e-03,2.25960e+02
6.03881e-03,2.15052e+02
6.11986e-03,2.04659e+02
6.20199e-03,1.94756e+02
6.28523e-03,1.85321e+02
6.36959e-03,1.76331e+02
6.45507e-03,1.67766e+02
6.54171e-03,1.59606e+02
6.62950e-03,1.51833e+02
6.71848e-03,1.44427e+02
6.80865e-03,1.37373e+02
6.90002e-03,1.30653e+02
6.99263e-03,1.24252e+02
7.08648e-03,1.18154e+02
7.18159e-03,1.12347e+02
7.27797e-03,1.06815e+02
7.37565e-03,1.01547e+02
7.47464e-03,9.65288e+01
7.57495e-03,9.17498e+01
7.67662e-03,8.71984e+01
7.77965e-03,8.28639e+01
7.88406e-03,7.87361e+01
7.98987e-03,7.48051e+01
8.09710e-03,7.10618e+01
8.20577e-03,6.74971e+01
8.31590e-03,6.41028e+01
8.42751e-03,6.08706e+01
8.54062e-03,5.77929e+01
8.65524e-03,5.48625e+01
8.77140e-03,5.20722e+01
8.88912e-03,4.94155e+01
9.00842e-03,4.68861e+01
9.12933e-03,4.44778e+01
9.25185e-03,4.21849e+01
9.37602e-03,4.00020e+01
9.50186e-03,3.79237e+01
9.62938e-03,3.59452e+01
9.75862e-03,3.40616e+01
9.88959e-03,3.22685e+01
1.00223e-02,3.05614e+01
1.01568e-02,2.89364e+01
1.02931e-02,2.73895e+01
1.04313e-02,2.59169e+01
1.05713e-02,2.45152e+01
1.07132e-02,2.31809e+01
1.08569e-02,2.19107e+01
1.10027e-02,2.07018e+01
1.11503e-02,1.95510e+01
1.13000e-02,1.84557e+01
1.14516e-02,1.74131e+01
1.16053e-02,1.64207e+01
1.17611e-02,1.54762e+01
1.19189e-02,1.45772e+01
1.20789e-02,1.37216e+01
1.22410e-02,1.29073e+01
1.24053e-02,1.21322e+01
1.25718e-02,1.13945e+01
1.27405e-02,1.06925e+01
1.29115e-02,1.00243e+01
1.30848e-02,9.38845e+00
1.32604e-02,8.78328e+00
1.34384e-02,8.20734e+00
1.36187e-02,7.65923e+00
1.38015e-02,7.13762e+00
1.39867e-02,6.64122e+00
1.41744e-02,6.16882e+00
1.43647e-02,5.71927e+00
1.45575e-02,5.29146e+00
1.47528e-02,4.88435e+00
1.49508e-02,4.49694e+00
1.51515e-02,4.12828e+00
1.53548e-02,3.77746e+00
1.55609e-02,3.44363e+00
1.57698e-02,3.12596e+00
1.59814e-02,2.82368e+00
1.61959e-02,2.53604e+00
1.64133e-02,2.26233e+00
1.66335e-02,2.00188e+00
1.68568e-02,1.75406e+00
1.70830e-02,1.51824e+00
1.73123e-02,1.29386e+00
1.75446e-02,1.08035e+00
1.77801e-02,8.77195e-01
1.80187e-02,6.83892e-01
1.82606e-02,4.99963e-01
1.85056e-02,3.24956e-01
1.87540e-02,1.58439e-01
1.90057e-02,0.00000e+00
