m1=245734.029, m2=34.991, gsp=2.337, rhosp=19.312
fGW[Hz],dPh[rad]
1.50736e-03,1.06322e+04
1.52622e-03,1.02007e+04
1.54532e-03,9.78596e+03
1.56465e-03,9.38736e+03
1.58422e-03,9.00430e+03
1.60404e-03,8.63621e+03
1.62411e-03,8.28255e+03
1.64443e-03,7.94277e+03
1.66500e-03,7.61637e+03
1.68583e-03,7.30284e+03
1.70692e-03,7.00171e+03
1.72828e-03,6.71251e+03
1.74990e-03,6.43480e+03
1.77179e-03,6.16813e+03
1.79396e-03,5.91211e+03
1.81640e-03,5.66631e+03
1.83912e-03,5.43036e+03
1.86213e-03,5.20388e+03
1.88543e-03,4.98651e+03
1.90902e-03,4.77790e+03
1.93290e-03,4.57772e+03
1.95708e-03,4.38563e+03
1.98156e-03,4.20134e+03
2.00635e-03,4.02452e+03
2.03145e-03,3.85491e+03
2.05687e-03,3.69221e+03
2.08260e-03,3.53616e+03
2.10866e-03,3.38650e+03
2.13504e-03,3.24298e+03
2.16175e-03,3.10535e+03
2.18879e-03,2.97339e+03
2.21617e-03,2.84687e+03
2.24390e-03,2.72557e+03
2.27197e-03,2.60929e+03
2.30040e-03,2.49783e+03
2.32917e-03,2.39100e+03
2.35831e-03,2.28861e+03
2.38782e-03,2.19049e+03
2.41769e-03,2.09646e+03
2.44794e-03,2.00636e+03
2.47856e-03,1.92003e+03
2.50957e-03,1.83732e+03
2.54097e-03,1.75809e+03
2.57275e-03,1.68218e+03
2.60494e-03,1.60947e+03
2.63753e-03,1.53983e+03
2.67053e-03,1.47313e+03
2.70394e-03,1.40925e+03
2.73776e-03,1.34807e+03
2.77201e-03,1.28949e+03
2.80669e-03,1.23340e+03
2.84181e-03,1.17969e+03
2.87736e-03,1.12827e+03
2.91336e-03,1.07905e+03
2.94980e-03,1.03192e+03
2.98671e-03,9.86812e+02
3.02407e-03,9.43633e+02
3.06191e-03,9.02304e+02
3.10021e-03,8.62749e+02
3.13900e-03,8.24893e+02
3.17827e-03,7.88665e+02
3.21803e-03,7.53997e+02
3.25829e-03,7.20824e+02
3.29905e-03,6.89083e+02
3.34032e-03,6.58713e+02
3.38211e-03,6.29657e+02
3.42443e-03,6.01859e+02
3.46727e-03,5.75265e+02
3.51064e-03,5.49826e+02
3.55456e-03,5.25492e+02
3.59903e-03,5.02215e+02
3.64406e-03,4.79952e+02
3.68965e-03,4.58658e+02
3.73581e-03,4.38293e+02
3.78254e-03,4.18817e+02
3.82987e-03,4.00192e+02
3.87778e-03,3.82381e+02
3.92629e-03,3.65350e+02
3.97541e-03,3.49064e+02
4.02515e-03,3.33493e+02
4.07550e-03,3.18605e+02
4.12649e-03,3.04370e+02
4.17811e-03,2.90761e+02
4.23038e-03,2.77751e+02
4.28331e-03,2.65314e+02
4.33689e-03,2.53424e+02
4.39115e-03,2.42059e+02
4.44609e-03,2.31195e+02
4.50171e-03,2.20811e+02
4.55803e-03,2.10885e+02
4.61505e-03,2.01399e+02
4.67279e-03,1.92332e+02
4.73125e-03,1.83666e+02
4.79044e-03,1.75385e+02
4.85037e-03,1.67471e+02
4.91105e-03,1.59907e+02
4.97249e-03,1.52680e+02
5.03470e-03,1.45774e+02
5.09768e-03,1.39174e+02
5.16146e-03,1.32868e+02
5.22603e-03,1.26843e+02
5.29141e-03,1.21086e+02
5.35761e-03,1.15586e+02
5.42464e-03,1.10330e+02
5.49250e-03,1.05310e+02
5.56121e-03,1.00513e+02
5.63079e-03,9.59301e+01
5.70123e-03,9.15522e+01
5.77256e-03,8.73700e+01
5.84478e-03,8.33748e+01
5.91790e-03,7.95583e+01
5.99193e-03,7.59126e+01
6.06689e-03,7.24303e+01
6.14279e-03,6.91039e+01
6.21964e-03,6.59266e+01
6.29745e-03,6.28919e+01
6.37624e-03,5.99933e+01
6.45601e-03,5.72247e+01
6.53678e-03,5.45805e+01
6.61855e-03,5.20551e+01
6.70136e-03,4.96432e+01
6.78519e-03,4.73396e+01
6.87008e-03,4.51397e+01
6.95603e-03,4.30388e+01
7.04305e-03,4.10324e+01
7.13116e-03,3.91164e+01
7.22038e-03,3.72867e+01
7.31071e-03,3.55394e+01
7.40217e-03,3.38709e+01
7.49477e-03,3.22776e+01
7.58854e-03,3.07561e+01
7.68347e-03,2.93033e+01
7.77960e-03,2.79161e+01
7.87692e-03,2.65915e+01
7.97547e-03,2.53268e+01
8.07525e-03,2.41191e+01
8.17627e-03,2.29661e+01
8.27856e-03,2.18651e+01
8.38213e-03,2.08140e+01
8.48699e-03,1.98103e+01
8.59317e-03,1.88521e+01
8.70068e-03,1.79373e+01
8.80953e-03,1.70638e+01
8.91974e-03,1.62299e+01
9.03133e-03,1.54338e+01
9.14431e-03,1.46737e+01
9.25871e-03,1.39481e+01
9.37455e-03,1.32553e+01
9.49183e-03,1.25940e+01
9.61057e-03,1.19626e+01
9.73081e-03,1.13599e+01
9.85254e-03,1.07845e+01
9.97580e-03,1.02352e+01
1.01006e-02,9.71090e+00
1.02270e-02,9.21035e+00
1.03549e-02,8.73253e+00
1.04845e-02,8.27641e+00
1.06156e-02,7.84100e+00
1.07484e-02,7.42537e+00
1.08829e-02,7.02863e+00
1.10191e-02,6.64992e+00
1.11569e-02,6.28842e+00
1.12965e-02,5.94335e+00
1.14378e-02,5.61397e+00
1.15809e-02,5.29958e+00
1.17258e-02,4.99948e+00
1.18725e-02,4.71303e+00
1.20210e-02,4.43962e+00
1.21714e-02,4.17865e+00
1.23237e-02,3.92956e+00
1.24778e-02,3.69180e+00
1.26339e-02,3.46487e+00
1.27920e-02,3.24827e+00
1.29520e-02,3.04154e+00
1.31141e-02,2.84422e+00
1.32781e-02,2.65589e+00
1.34443e-02,2.47615e+00
1.36125e-02,2.30459e+00
1.37828e-02,2.14085e+00
1.39552e-02,1.98457e+00
1.41298e-02,1.83541e+00
1.43065e-02,1.69306e+00
1.44855e-02,1.55719e+00
1.46667e-02,1.42752e+00
1.48502e-02,1.30377e+00
1.50360e-02,1.18566e+00
1.52241e-02,1.07293e+00
1.54146e-02,9.65351e-01
1.56074e-02,8.62677e-01
1.58027e-02,7.64688e-01
1.60004e-02,6.71171e-01
1.62006e-02,5.81921e-01
1.64032e-02,4.96745e-01
1.66084e-02,4.15457e-01
1.68162e-02,3.37880e-01
1.70266e-02,2.63845e-01
1.72396e-02,1.93189e-01
1.74553e-02,1.25760e-01
1.76737e-02,6.14108e-02
1.78948e-02,0.00000e+00
