m1=13388.098, m2=6.514, gsp=2.040, rhosp=204.773
fGW[Hz],dPh[rad]
5.86106e-03,2.35113e+02
5.98085e-03,2.23506e+02
6.10309e-03,2.12453e+02
6.22783e-03,2.01927e+02
6.35512e-03,1.91904e+02
6.48500e-03,1.82360e+02
6.61755e-03,1.73274e+02
6.75280e-03,1.64623e+02
6.89082e-03,1.56387e+02
7.03165e-03,1.48548e+02
7.17537e-03,1.41086e+02
7.32202e-03,1.33984e+02
7.47167e-03,1.27225e+02
7.62438e-03,1.20793e+02
7.78021e-03,1.14672e+02
7.93923e-03,1.08848e+02
8.10149e-03,1.03308e+02
8.26707e-03,9.80372e+01
8.43604e-03,9.30235e+01
8.60846e-03,8.82548e+01
8.78440e-03,8.37194e+01
8.96394e-03,7.94064e+01
9.14715e-03,7.53052e+01
9.33410e-03,7.14060e+01
9.52487e-03,6.76990e+01
9.71955e-03,6.41751e+01
9.91820e-03,6.08258e+01
1.01209e-02,5.76426e+01
1.03278e-02,5.46178e+01
1.05388e-02,5.17436e+01
1.07542e-02,4.90130e+01
1.09740e-02,4.64191e+01
1.11983e-02,4.39554e+01
1.14272e-02,4.16155e+01
1.16608e-02,3.93936e+01
1.18991e-02,3.72840e+01
1.21423e-02,3.52813e+01
1.23905e-02,3.33804e+01
1.26437e-02,3.15762e+01
1.29021e-02,2.98642e+01
1.31658e-02,2.82398e+01
1.34349e-02,2.66988e+01
1.37095e-02,2.52372e+01
1.39897e-02,2.38510e+01
1.42756e-02,2.25367e+01
1.45674e-02,2.12906e+01
1.48651e-02,2.01094e+01
1.51689e-02,1.89899e+01
1.54790e-02,1.79292e+01
1.57953e-02,1.69242e+01
1.61182e-02,1.59722e+01
1.64476e-02,1.50706e+01
1.67838e-02,1.42169e+01
1.71268e-02,1.34086e+01
1.74768e-02,1.26436e+01
1.78340e-02,1.19196e+01
1.81985e-02,1.12346e+01
1.85705e-02,1.05866e+01
1.89500e-02,9.97371e+00
1.93373e-02,9.39418e+00
1.97326e-02,8.84630e+00
2.01359e-02,8.32844e+00
2.05474e-02,7.83908e+00
2.09674e-02,7.37675e+00
2.13959e-02,6.94005e+00
2.18332e-02,6.52765e+00
2.22794e-02,6.13829e+00
2.27348e-02,5.77077e+00
2.31995e-02,5.42394e+00
2.36736e-02,5.09672e+00
2.41575e-02,4.78808e+00
2.46512e-02,4.49702e+00
2.51550e-02,4.22262e+00
2.56692e-02,3.96399e+00
2.61938e-02,3.72028e+00
2.67292e-02,3.49068e+00
2.72755e-02,3.27445e+00
2.78329e-02,3.07084e+00
2.84018e-02,2.87918e+00
2.89823e-02,2.69881e+00
2.95746e-02,2.52910e+00
3.01791e-02,2.36948e+00
3.07959e-02,2.21938e+00
3.14253e-02,2.07827e+00
3.20676e-02,1.94565e+00
3.27230e-02,1.82104e+00
3.33918e-02,1.70399e+00
3.40743e-02,1.59406e+00
3.47707e-02,1.49087e+00
3.54814e-02,1.39401e+00
3.62066e-02,1.30312e+00
3.69466e-02,1.21787e+00
3.77017e-02,1.13792e+00
3.84723e-02,1.06296e+00
3.92586e-02,9.92698e-01
4.00610e-02,9.26863e-01
4.08797e-02,8.65189e-01
4.17153e-02,8.07430e-01
4.25678e-02,7.53351e-01
4.34379e-02,7.02731e-01
4.43257e-02,6.55363e-01
4.52316e-02,6.11049e-01
4.61561e-02,5.69603e-01
4.70994e-02,5.30850e-01
4.80621e-02,4.94624e-01
4.90444e-02,4.60769e-01
5.00468e-02,4.29139e-01
5.10696e-02,3.99594e-01
5.21134e-02,3.72005e-01
5.31785e-02,3.46248e-01
5.42654e-02,3.22207e-01
5.53745e-02,2.99774e-01
5.65063e-02,2.78847e-01
5.76612e-02,2.59329e-01
5.88397e-02,2.41129e-01
6.00423e-02,2.24163e-01
6.12694e-02,2.08350e-01
6.25217e-02,1.93616e-01
6.37995e-02,1.79890e-01
6.51035e-02,1.67106e-01
6.64341e-02,1.55202e-01
6.77919e-02,1.44120e-01
6.91775e-02,1.33805e-01
7.05913e-02,1.24206e-01
7.20341e-02,1.15276e-01
7.35064e-02,1.06969e-01
7.50087e-02,9.92442e-02
7.65418e-02,9.20612e-02
7.81062e-02,8.53837e-02
7.97025e-02,7.91772e-02
8.13315e-02,7.34097e-02
8.29938e-02,6.80511e-02
8.46901e-02,6.30733e-02
8.64210e-02,5.84500e-02
8.81873e-02,5.41567e-02
8.99897e-02,5.01707e-02
9.18290e-02,4.64703e-02
9.37058e-02,4.30359e-02
9.56210e-02,3.98487e-02
9.75753e-02,3.68915e-02
9.95696e-02,3.41480e-02
1.01605e-01,3.16032e-02
1.03681e-01,2.92430e-02
1.05800e-01,2.70544e-02
1.07963e-01,2.50252e-02
1.10169e-01,2.31440e-02
1.12421e-01,2.14002e-02
1.14719e-01,1.97840e-02
1.17063e-01,1.82864e-02
1.19456e-01,1.68986e-02
1.21897e-01,1.56129e-02
1.24389e-01,1.44219e-02
1.26931e-01,1.33187e-02
1.29525e-01,1.22970e-02
1.32173e-01,1.13508e-02
1.34874e-01,1.04747e-02
1.37631e-01,9.66357e-03
1.40444e-01,8.91262e-03
1.43314e-01,8.21749e-03
1.46243e-01,7.57408e-03
1.49232e-01,6.97861e-03
1.52282e-01,6.42754e-03
1.55395e-01,5.91762e-03
1.58571e-01,5.44580e-03
1.61812e-01,5.00929e-03
1.65119e-01,4.60546e-03
1.68494e-01,4.23191e-03
1.71937e-01,3.88639e-03
1.75451e-01,3.56681e-03
1.79037e-01,3.27126e-03
1.82697e-01,2.99794e-03
1.86431e-01,2.74520e-03
1.90241e-01,2.51150e-03
1.94129e-01,2.29543e-03
1.98097e-01,2.09566e-03
2.02146e-01,1.91099e-03
2.06277e-01,1.74027e-03
2.10493e-01,1.58246e-03
2.14795e-01,1.43660e-03
2.19185e-01,1.30178e-03
2.23665e-01,1.17718e-03
2.28237e-01,1.06202e-03
2.32901e-01,9.55608e-04
2.37661e-01,8.57270e-04
2.42519e-01,7.66402e-04
2.47476e-01,6.82440e-04
2.52534e-01,6.04862e-04
2.57695e-01,5.33186e-04
2.62962e-01,4.66965e-04
2.68336e-01,4.05788e-04
2.73821e-01,3.49271e-04
2.79417e-01,2.97062e-04
2.85128e-01,2.48834e-04
2.90956e-01,2.04284e-04
2.96902e-01,1.63135e-04
3.02970e-01,1.25128e-04
3.09163e-01,9.00226e-05
3.15481e-01,5.75999e-05
3.21929e-01,2.76552e-05
3.28509e-01,0.00000e+00
