m1=22697.925, m2=28.306, gsp=2.199, rhosp=12.601
fGW[Hz],dPh[rad]
2.96091e-03,7.05111e+02
3.02379e-03,6.71797e+02
3.08800e-03,6.40020e+02
3.15357e-03,6.09712e+02
3.22054e-03,5.80804e+02
3.28893e-03,5.53234e+02
3.35877e-03,5.26939e+02
3.43009e-03,5.01862e+02
3.50293e-03,4.77948e+02
3.57731e-03,4.55142e+02
3.65328e-03,4.33396e+02
3.73086e-03,4.12659e+02
3.81008e-03,3.92887e+02
3.89099e-03,3.74034e+02
3.97362e-03,3.56060e+02
4.05800e-03,3.38924e+02
4.14417e-03,3.22587e+02
4.23217e-03,3.07013e+02
4.32204e-03,2.92167e+02
4.41382e-03,2.78015e+02
4.50755e-03,2.64527e+02
4.60326e-03,2.51671e+02
4.70101e-03,2.39418e+02
4.80084e-03,2.27741e+02
4.90279e-03,2.16613e+02
5.00690e-03,2.06009e+02
5.11322e-03,1.95906e+02
5.22180e-03,1.86279e+02
5.33269e-03,1.77107e+02
5.44593e-03,1.68370e+02
5.56157e-03,1.60046e+02
5.67967e-03,1.52118e+02
5.80028e-03,1.44566e+02
5.92345e-03,1.37374e+02
6.04923e-03,1.30524e+02
6.17769e-03,1.24002e+02
6.30887e-03,1.17791e+02
6.44284e-03,1.11878e+02
6.57966e-03,1.06248e+02
6.71938e-03,1.00888e+02
6.86206e-03,9.57869e+01
7.00778e-03,9.09314e+01
7.15659e-03,8.63103e+01
7.30856e-03,8.19128e+01
7.46376e-03,7.77284e+01
7.62225e-03,7.37472e+01
7.78411e-03,6.99598e+01
7.94941e-03,6.63570e+01
8.11821e-03,6.29303e+01
8.29060e-03,5.96713e+01
8.46666e-03,5.65722e+01
8.64645e-03,5.36256e+01
8.83005e-03,5.08242e+01
9.01756e-03,4.81611e+01
9.20905e-03,4.56300e+01
9.40460e-03,4.32244e+01
9.60431e-03,4.09386e+01
9.80826e-03,3.87668e+01
1.00165e-02,3.67037e+01
1.02292e-02,3.47440e+01
1.04465e-02,3.28828e+01
1.06683e-02,3.11155e+01
1.08948e-02,2.94376e+01
1.11262e-02,2.78447e+01
1.13625e-02,2.63329e+01
1.16037e-02,2.48981e+01
1.18501e-02,2.35368e+01
1.21018e-02,2.22453e+01
1.23588e-02,2.10203e+01
1.26212e-02,1.98586e+01
1.28892e-02,1.87570e+01
1.31629e-02,1.77128e+01
1.34424e-02,1.67229e+01
1.37279e-02,1.57849e+01
1.40194e-02,1.48962e+01
1.43171e-02,1.40543e+01
1.46211e-02,1.32569e+01
1.49316e-02,1.25019e+01
1.52487e-02,1.17871e+01
1.55725e-02,1.11105e+01
1.59032e-02,1.04703e+01
1.62409e-02,9.86453e+00
1.65858e-02,9.29156e+00
1.69380e-02,8.74971e+00
1.72976e-02,8.23740e+00
1.76649e-02,7.75315e+00
1.80401e-02,7.29553e+00
1.84231e-02,6.86316e+00
1.88144e-02,6.45476e+00
1.92139e-02,6.06910e+00
1.96219e-02,5.70500e+00
2.00386e-02,5.36134e+00
2.04641e-02,5.03706e+00
2.08986e-02,4.73115e+00
2.13424e-02,4.44263e+00
2.17956e-02,4.17060e+00
2.22585e-02,3.91417e+00
2.27311e-02,3.67253e+00
2.32138e-02,3.44488e+00
2.37068e-02,3.23047e+00
2.42102e-02,3.02858e+00
2.47243e-02,2.83854e+00
2.52493e-02,2.65971e+00
2.57855e-02,2.49146e+00
2.63330e-02,2.33323e+00
2.68922e-02,2.18445e+00
2.74633e-02,2.04460e+00
2.80465e-02,1.91319e+00
2.86420e-02,1.78973e+00
2.92503e-02,1.67379e+00
2.98714e-02,1.56494e+00
3.05057e-02,1.46278e+00
3.11535e-02,1.36691e+00
3.18151e-02,1.27699e+00
3.24906e-02,1.19266e+00
3.31806e-02,1.11361e+00
3.38852e-02,1.03952e+00
3.46047e-02,9.70098e-01
3.53396e-02,9.05079e-01
3.60900e-02,8.44196e-01
3.68564e-02,7.87204e-01
3.76390e-02,7.33870e-01
3.84383e-02,6.83972e-01
3.92545e-02,6.37304e-01
4.00881e-02,5.93669e-01
4.09394e-02,5.52881e-01
4.18087e-02,5.14766e-01
4.26966e-02,4.79158e-01
4.36032e-02,4.45901e-01
4.45291e-02,4.14850e-01
4.54747e-02,3.85866e-01
4.64404e-02,3.58818e-01
4.74265e-02,3.33584e-01
4.84336e-02,3.10049e-01
4.94621e-02,2.88105e-01
5.05125e-02,2.67648e-01
5.15851e-02,2.48583e-01
5.26805e-02,2.30821e-01
5.37992e-02,2.14275e-01
5.49416e-02,1.98867e-01
5.61083e-02,1.84522e-01
5.72998e-02,1.71170e-01
5.85165e-02,1.58744e-01
5.97592e-02,1.47184e-01
6.10281e-02,1.36432e-01
6.23241e-02,1.26433e-01
6.36475e-02,1.17137e-01
6.49991e-02,1.08495e-01
6.63794e-02,1.00465e-01
6.77889e-02,9.30040e-02
6.92284e-02,8.60730e-02
7.06985e-02,7.96360e-02
7.21998e-02,7.36588e-02
7.37330e-02,6.81097e-02
7.52987e-02,6.29590e-02
7.68977e-02,5.81791e-02
7.85306e-02,5.37440e-02
8.01982e-02,4.96296e-02
8.19012e-02,4.58133e-02
8.36404e-02,4.22743e-02
8.54165e-02,3.89928e-02
8.72303e-02,3.59507e-02
8.90827e-02,3.31309e-02
9.09743e-02,3.05176e-02
9.29062e-02,2.80961e-02
9.48791e-02,2.58525e-02
9.68938e-02,2.37742e-02
9.89514e-02,2.18492e-02
1.01053e-01,2.00665e-02
1.03198e-01,1.84158e-02
1.05390e-01,1.68874e-02
1.07628e-01,1.54726e-02
1.09913e-01,1.41630e-02
1.12247e-01,1.29509e-02
1.14631e-01,1.18293e-02
1.17065e-01,1.07915e-02
1.19551e-01,9.83127e-03
1.22090e-01,8.94302e-03
1.24682e-01,8.12139e-03
1.27330e-01,7.36147e-03
1.30034e-01,6.65870e-03
1.32795e-01,6.00883e-03
1.35615e-01,5.40795e-03
1.38495e-01,4.85241e-03
1.41436e-01,4.33884e-03
1.44439e-01,3.86411e-03
1.47506e-01,3.42531e-03
1.50639e-01,3.01975e-03
1.53837e-01,2.64496e-03
1.57104e-01,2.29863e-03
1.60440e-01,1.97860e-03
1.63847e-01,1.68292e-03
1.67327e-01,1.40975e-03
1.70880e-01,1.15738e-03
1.74508e-01,9.24254e-04
1.78214e-01,7.08916e-04
1.81999e-01,5.10020e-04
1.85863e-01,3.26322e-04
1.89810e-01,1.56670e-04
1.93841e-01,0.00000e+00
