m1=1863.767, m2=24.013, gsp=2.486, rhosp=399.146
fGW[Hz],dPh[rad]
5.89173e-03,5.23681e+04
6.07204e-03,4.92867e+04
6.25787e-03,4.63865e+04
6.44939e-03,4.36568e+04
6.64677e-03,4.10876e+04
6.85019e-03,3.86694e+04
7.05984e-03,3.63934e+04
7.27590e-03,3.42513e+04
7.49857e-03,3.22351e+04
7.72806e-03,3.03374e+04
7.96458e-03,2.85513e+04
8.20833e-03,2.68703e+04
8.45954e-03,2.52881e+04
8.71844e-03,2.37990e+04
8.98526e-03,2.23974e+04
9.26025e-03,2.10782e+04
9.54365e-03,1.98366e+04
9.83573e-03,1.86681e+04
1.01367e-02,1.75682e+04
1.04470e-02,1.65331e+04
1.07667e-02,1.55588e+04
1.10962e-02,1.46419e+04
1.14358e-02,1.37788e+04
1.17858e-02,1.29666e+04
1.21465e-02,1.22021e+04
1.25182e-02,1.14826e+04
1.29013e-02,1.08054e+04
1.32962e-02,1.01681e+04
1.37031e-02,9.56827e+03
1.41225e-02,9.00373e+03
1.45547e-02,8.47241e+03
1.50001e-02,7.97235e+03
1.54592e-02,7.50173e+03
1.59323e-02,7.05880e+03
1.64199e-02,6.64194e+03
1.69224e-02,6.24962e+03
1.74403e-02,5.88040e+03
1.79741e-02,5.53291e+03
1.85242e-02,5.20587e+03
1.90911e-02,4.89810e+03
1.96753e-02,4.60844e+03
2.02775e-02,4.33585e+03
2.08981e-02,4.07931e+03
2.15377e-02,3.83788e+03
2.21968e-02,3.61067e+03
2.28761e-02,3.39684e+03
2.35762e-02,3.19562e+03
2.42978e-02,3.00625e+03
2.50414e-02,2.82804e+03
2.58078e-02,2.66034e+03
2.65976e-02,2.50252e+03
2.74116e-02,2.35401e+03
2.82505e-02,2.21425e+03
2.91151e-02,2.08274e+03
3.00061e-02,1.95898e+03
3.09245e-02,1.84253e+03
3.18709e-02,1.73294e+03
3.28463e-02,1.62982e+03
3.38515e-02,1.53279e+03
3.48875e-02,1.44149e+03
3.59552e-02,1.35558e+03
3.70556e-02,1.27474e+03
3.81897e-02,1.19868e+03
3.93585e-02,1.12711e+03
4.05630e-02,1.05978e+03
4.18044e-02,9.96422e+02
4.30838e-02,9.36813e+02
4.44024e-02,8.80729e+02
4.57613e-02,8.27964e+02
4.71618e-02,7.78323e+02
4.86051e-02,7.31620e+02
5.00927e-02,6.87684e+02
5.16257e-02,6.46350e+02
5.32057e-02,6.07467e+02
5.48340e-02,5.70889e+02
5.65122e-02,5.36481e+02
5.82417e-02,5.04114e+02
6.00241e-02,4.73669e+02
6.18611e-02,4.45033e+02
6.37544e-02,4.18098e+02
6.57055e-02,3.92764e+02
6.77164e-02,3.68938e+02
6.97888e-02,3.46529e+02
7.19247e-02,3.25455e+02
7.41259e-02,3.05637e+02
7.63945e-02,2.87000e+02
7.87325e-02,2.69475e+02
8.11420e-02,2.52997e+02
8.36253e-02,2.37502e+02
8.61846e-02,2.22935e+02
8.88223e-02,2.09239e+02
9.15406e-02,1.96363e+02
9.43422e-02,1.84258e+02
9.72294e-02,1.72880e+02
1.00205e-01,1.62185e+02
1.03272e-01,1.52133e+02
1.06432e-01,1.42685e+02
1.09690e-01,1.33806e+02
1.13047e-01,1.25463e+02
1.16506e-01,1.17623e+02
1.20072e-01,1.10256e+02
1.23747e-01,1.03336e+02
1.27534e-01,9.68341e+01
1.31437e-01,9.07269e+01
1.35460e-01,8.49906e+01
1.39605e-01,7.96032e+01
1.43878e-01,7.45440e+01
1.48281e-01,6.97934e+01
1.52819e-01,6.53331e+01
1.57496e-01,6.11458e+01
1.62316e-01,5.72152e+01
1.67284e-01,5.35261e+01
1.72403e-01,5.00641e+01
1.77680e-01,4.68155e+01
1.83117e-01,4.37677e+01
1.88722e-01,4.09086e+01
1.94497e-01,3.82269e+01
2.00450e-01,3.57121e+01
2.06584e-01,3.33540e+01
2.12907e-01,3.11434e+01
2.19423e-01,2.90713e+01
2.26138e-01,2.71294e+01
2.33059e-01,2.53098e+01
2.40191e-01,2.36053e+01
2.47542e-01,2.20088e+01
2.55118e-01,2.05137e+01
2.62926e-01,1.91140e+01
2.70973e-01,1.78039e+01
2.79266e-01,1.65779e+01
2.87812e-01,1.54309e+01
2.96621e-01,1.43581e+01
3.05699e-01,1.33549e+01
3.15054e-01,1.24171e+01
3.24696e-01,1.15406e+01
3.34633e-01,1.07217e+01
3.44875e-01,9.95684e+00
3.55429e-01,9.24266e+00
3.66307e-01,8.57602e+00
3.77518e-01,7.95396e+00
3.89071e-01,7.37370e+00
4.00979e-01,6.83261e+00
4.13250e-01,6.32825e+00
4.25898e-01,5.85828e+00
4.38932e-01,5.42055e+00
4.52365e-01,5.01299e+00
4.66210e-01,4.63368e+00
4.80478e-01,4.28081e+00
4.95182e-01,3.95269e+00
5.10337e-01,3.64770e+00
5.25956e-01,3.36436e+00
5.42052e-01,3.10124e+00
5.58642e-01,2.85702e+00
5.75738e-01,2.63046e+00
5.93359e-01,2.42037e+00
6.11518e-01,2.22566e+00
6.30233e-01,2.04531e+00
6.49521e-01,1.87833e+00
6.69399e-01,1.72382e+00
6.89886e-01,1.58094e+00
7.10999e-01,1.44887e+00
7.32759e-01,1.32686e+00
7.55185e-01,1.21422e+00
7.78297e-01,1.11029e+00
8.02116e-01,1.01445e+00
8.26664e-01,9.26116e-01
8.51964e-01,8.44757e-01
8.78038e-01,7.69865e-01
9.04909e-01,7.00967e-01
9.32604e-01,6.37623e-01
9.61145e-01,5.79420e-01
9.90561e-01,5.25974e-01
1.02088e+00,4.76927e-01
1.05212e+00,4.31943e-01
1.08432e+00,3.90713e-01
1.11750e+00,3.52945e-01
1.15170e+00,3.18370e-01
1.18695e+00,2.86738e-01
1.22328e+00,2.57816e-01
1.26072e+00,2.31387e-01
1.29930e+00,2.07251e-01
1.33906e+00,1.85222e-01
1.38004e+00,1.65128e-01
1.42228e+00,1.46809e-01
1.46581e+00,1.30119e-01
1.51067e+00,1.14920e-01
1.55690e+00,1.01088e-01
1.60455e+00,8.85063e-02
1.65365e+00,7.70681e-02
1.70426e+00,6.66749e-02
1.75642e+00,5.72362e-02
1.81018e+00,4.86686e-02
1.86558e+00,4.08956e-02
1.92267e+00,3.38470e-02
1.98151e+00,2.74582e-02
2.04216e+00,2.16702e-02
2.10465e+00,1.64287e-02
2.16907e+00,1.16844e-02
2.23545e+00,7.39184e-03
2.30386e+00,3.50964e-03
2.37437e+00,0.00000e+00
