m1=15112.204, m2=18.773, gsp=2.207, rhosp=112.873
fGW[Hz],dPh[rad]
3.82358e-03,1.69105e+03
3.90773e-03,1.60911e+03
3.99375e-03,1.53106e+03
4.08165e-03,1.45672e+03
4.17149e-03,1.38592e+03
4.26331e-03,1.31848e+03
4.35715e-03,1.25425e+03
4.45305e-03,1.19309e+03
4.55107e-03,1.13483e+03
4.65124e-03,1.07936e+03
4.75362e-03,1.02653e+03
4.85825e-03,9.76223e+02
4.96518e-03,9.28321e+02
5.07447e-03,8.82710e+02
5.18616e-03,8.39282e+02
5.30031e-03,7.97934e+02
5.41697e-03,7.58568e+02
5.53620e-03,7.21090e+02
5.65806e-03,6.85411e+02
5.78260e-03,6.51447e+02
5.90988e-03,6.19116e+02
6.03996e-03,5.88342e+02
6.17290e-03,5.59050e+02
6.30877e-03,5.31171e+02
6.44763e-03,5.04638e+02
6.58955e-03,4.79388e+02
6.73459e-03,4.55358e+02
6.88282e-03,4.32493e+02
7.03432e-03,4.10736e+02
7.18915e-03,3.90036e+02
7.34739e-03,3.70341e+02
7.50911e-03,3.51604e+02
7.67439e-03,3.33781e+02
7.84331e-03,3.16826e+02
8.01594e-03,3.00700e+02
8.19238e-03,2.85363e+02
8.37270e-03,2.70776e+02
8.55699e-03,2.56905e+02
8.74533e-03,2.43716e+02
8.93782e-03,2.31175e+02
9.13455e-03,2.19252e+02
9.33561e-03,2.07917e+02
9.54109e-03,1.97143e+02
9.75110e-03,1.86902e+02
9.96573e-03,1.77169e+02
1.01851e-02,1.67919e+02
1.04093e-02,1.59130e+02
1.06384e-02,1.50779e+02
1.08725e-02,1.42845e+02
1.11118e-02,1.35308e+02
1.13564e-02,1.28150e+02
1.16064e-02,1.21351e+02
1.18619e-02,1.14894e+02
1.21229e-02,1.08764e+02
1.23898e-02,1.02943e+02
1.26625e-02,9.74175e+01
1.29412e-02,9.21727e+01
1.32260e-02,8.71951e+01
1.35172e-02,8.24715e+01
1.38147e-02,7.79898e+01
1.41187e-02,7.37379e+01
1.44295e-02,6.97049e+01
1.47471e-02,6.58798e+01
1.50717e-02,6.22525e+01
1.54034e-02,5.88134e+01
1.57425e-02,5.55531e+01
1.60890e-02,5.24629e+01
1.64431e-02,4.95343e+01
1.68050e-02,4.67593e+01
1.71749e-02,4.41304e+01
1.75530e-02,4.16403e+01
1.79393e-02,3.92821e+01
1.83342e-02,3.70491e+01
1.87377e-02,3.49352e+01
1.91502e-02,3.29344e+01
1.95717e-02,3.10409e+01
2.00024e-02,2.92494e+01
2.04427e-02,2.75548e+01
2.08927e-02,2.59520e+01
2.13525e-02,2.44365e+01
2.18225e-02,2.30039e+01
2.23028e-02,2.16498e+01
2.27938e-02,2.03703e+01
2.32955e-02,1.91615e+01
2.38082e-02,1.80197e+01
2.43322e-02,1.69416e+01
2.48678e-02,1.59238e+01
2.54152e-02,1.49632e+01
2.59746e-02,1.40568e+01
2.65463e-02,1.32017e+01
2.71306e-02,1.23952e+01
2.77278e-02,1.16349e+01
2.83381e-02,1.09181e+01
2.89618e-02,1.02427e+01
2.95993e-02,9.60633e+00
3.02508e-02,9.00699e+00
3.09166e-02,8.44265e+00
3.15971e-02,7.91141e+00
3.22926e-02,7.41149e+00
3.30034e-02,6.94117e+00
3.37298e-02,6.49882e+00
3.44722e-02,6.08290e+00
3.52310e-02,5.69196e+00
3.60064e-02,5.32460e+00
3.67990e-02,4.97949e+00
3.76089e-02,4.65540e+00
3.84367e-02,4.35114e+00
3.92827e-02,4.06557e+00
4.01474e-02,3.79764e+00
4.10311e-02,3.54634e+00
4.19342e-02,3.31070e+00
4.28572e-02,3.08982e+00
4.38005e-02,2.88283e+00
4.47646e-02,2.68894e+00
4.57499e-02,2.50736e+00
4.67569e-02,2.33737e+00
4.77860e-02,2.17828e+00
4.88378e-02,2.02943e+00
4.99128e-02,1.89022e+00
5.10114e-02,1.76006e+00
5.21342e-02,1.63840e+00
5.32817e-02,1.52471e+00
5.44545e-02,1.41852e+00
5.56530e-02,1.31936e+00
5.68780e-02,1.22679e+00
5.81299e-02,1.14040e+00
5.94094e-02,1.05981e+00
6.07170e-02,9.84640e-01
6.20535e-02,9.14556e-01
6.34193e-02,8.49232e-01
6.48152e-02,7.88362e-01
6.62418e-02,7.31661e-01
6.76999e-02,6.78858e-01
6.91900e-02,6.29699e-01
7.07129e-02,5.83947e-01
7.22694e-02,5.41378e-01
7.38601e-02,5.01780e-01
7.54858e-02,4.64958e-01
7.71473e-02,4.30727e-01
7.88453e-02,3.98912e-01
8.05808e-02,3.69351e-01
8.23544e-02,3.41891e-01
8.41671e-02,3.16391e-01
8.60197e-02,2.92715e-01
8.79130e-02,2.70740e-01
8.98480e-02,2.50348e-01
9.18257e-02,2.31430e-01
9.38468e-02,2.13884e-01
9.59124e-02,1.97613e-01
9.80235e-02,1.82529e-01
1.00181e-01,1.68548e-01
1.02386e-01,1.55593e-01
1.04640e-01,1.43591e-01
1.06943e-01,1.32474e-01
1.09297e-01,1.22179e-01
1.11703e-01,1.12647e-01
1.14161e-01,1.03824e-01
1.16674e-01,9.56582e-02
1.19242e-01,8.81023e-02
1.21867e-01,8.11120e-02
1.24549e-01,7.46462e-02
1.27290e-01,6.86667e-02
1.30092e-01,6.31378e-02
1.32956e-01,5.80265e-02
1.35882e-01,5.33019e-02
1.38873e-01,4.89356e-02
1.41930e-01,4.49011e-02
1.45054e-01,4.11736e-02
1.48246e-01,3.77304e-02
1.51509e-01,3.45502e-02
1.54844e-01,3.16134e-02
1.58252e-01,2.89017e-02
1.61736e-01,2.63982e-02
1.65295e-01,2.40873e-02
1.68934e-01,2.19543e-02
1.72652e-01,1.99858e-02
1.76452e-01,1.81695e-02
1.80336e-01,1.64936e-02
1.84305e-01,1.49475e-02
1.88362e-01,1.35214e-02
1.92508e-01,1.22060e-02
1.96745e-01,1.09929e-02
2.01076e-01,9.87428e-03
2.05502e-01,8.84283e-03
2.10025e-01,7.89187e-03
2.14648e-01,7.01520e-03
2.19372e-01,6.20709e-03
2.24201e-01,5.46225e-03
2.29136e-01,4.77577e-03
2.34179e-01,4.14314e-03
2.39333e-01,3.56018e-03
2.44601e-01,3.02304e-03
2.49985e-01,2.52814e-03
2.55488e-01,2.07220e-03
2.61111e-01,1.65218e-03
2.66858e-01,1.26528e-03
2.72732e-01,9.08907e-04
2.78735e-01,5.80678e-04
2.84870e-01,2.78386e-04
2.91140e-01,0.00000e+00
