m1=287587.921, m2=18.222, gsp=2.020, rhosp=78.860
fGW[Hz],dPh[rad]
1.85097e-03,4.76862e+01
1.87072e-03,4.58053e+01
1.89067e-03,4.39972e+01
1.91084e-03,4.22592e+01
1.93122e-03,4.05886e+01
1.95182e-03,3.89828e+01
1.97264e-03,3.74394e+01
1.99369e-03,3.59561e+01
2.01495e-03,3.45305e+01
2.03645e-03,3.31605e+01
2.05817e-03,3.18439e+01
2.08012e-03,3.05788e+01
2.10231e-03,2.93631e+01
2.12474e-03,2.81949e+01
2.14740e-03,2.70725e+01
2.17031e-03,2.59940e+01
2.19346e-03,2.49578e+01
2.21685e-03,2.39624e+01
2.24050e-03,2.30060e+01
2.26440e-03,2.20872e+01
2.28856e-03,2.12046e+01
2.31297e-03,2.03567e+01
2.33764e-03,1.95423e+01
2.36258e-03,1.87600e+01
2.38778e-03,1.80085e+01
2.41325e-03,1.72868e+01
2.43899e-03,1.65936e+01
2.46501e-03,1.59278e+01
2.49130e-03,1.52883e+01
2.51787e-03,1.46742e+01
2.54473e-03,1.40845e+01
2.57188e-03,1.35181e+01
2.59931e-03,1.29743e+01
2.62704e-03,1.24520e+01
2.65506e-03,1.19505e+01
2.68338e-03,1.14690e+01
2.71200e-03,1.10066e+01
2.74093e-03,1.05626e+01
2.77017e-03,1.01364e+01
2.79972e-03,9.72712e+00
2.82958e-03,9.33419e+00
2.85977e-03,8.95696e+00
2.89027e-03,8.59479e+00
2.92110e-03,8.24711e+00
2.95226e-03,7.91334e+00
2.98375e-03,7.59292e+00
3.01558e-03,7.28534e+00
3.04775e-03,6.99008e+00
3.08026e-03,6.70666e+00
3.11311e-03,6.43461e+00
3.14632e-03,6.17347e+00
3.17988e-03,5.92282e+00
3.21380e-03,5.68224e+00
3.24808e-03,5.45134e+00
3.28273e-03,5.22971e+00
3.31775e-03,5.01701e+00
3.35314e-03,4.81286e+00
3.38891e-03,4.61694e+00
3.42506e-03,4.42891e+00
3.46159e-03,4.24846e+00
3.49852e-03,4.07529e+00
3.53583e-03,3.90911e+00
3.57355e-03,3.74963e+00
3.61167e-03,3.59659e+00
3.65019e-03,3.44974e+00
3.68913e-03,3.30882e+00
3.72848e-03,3.17360e+00
3.76825e-03,3.04384e+00
3.80845e-03,2.91934e+00
3.84907e-03,2.79988e+00
3.89013e-03,2.68525e+00
3.93163e-03,2.57527e+00
3.97357e-03,2.46974e+00
4.01595e-03,2.36850e+00
4.05879e-03,2.27136e+00
4.10208e-03,2.17816e+00
4.14584e-03,2.08874e+00
4.19006e-03,2.00295e+00
4.23476e-03,1.92065e+00
4.27993e-03,1.84169e+00
4.32559e-03,1.76593e+00
4.37173e-03,1.69326e+00
4.41836e-03,1.62354e+00
4.46549e-03,1.55666e+00
4.51312e-03,1.49250e+00
4.56126e-03,1.43095e+00
4.60992e-03,1.37191e+00
4.65909e-03,1.31527e+00
4.70879e-03,1.26094e+00
4.75902e-03,1.20882e+00
4.80978e-03,1.15883e+00
4.86109e-03,1.11087e+00
4.91294e-03,1.06487e+00
4.96535e-03,1.02075e+00
5.01831e-03,9.78426e-01
5.07184e-03,9.37830e-01
5.12594e-03,8.98891e-01
5.18062e-03,8.61543e-01
5.23588e-03,8.25720e-01
5.29173e-03,7.91360e-01
5.34818e-03,7.58404e-01
5.40523e-03,7.26795e-01
5.46289e-03,6.96478e-01
5.52116e-03,6.67401e-01
5.58005e-03,6.39513e-01
5.63957e-03,6.12766e-01
5.69973e-03,5.87114e-01
5.76053e-03,5.62511e-01
5.82198e-03,5.38915e-01
5.88408e-03,5.16285e-01
5.94684e-03,4.94582e-01
6.01028e-03,4.73768e-01
6.07439e-03,4.53806e-01
6.13919e-03,4.34663e-01
6.20467e-03,4.16304e-01
6.27086e-03,3.98697e-01
6.33775e-03,3.81812e-01
6.40535e-03,3.65619e-01
6.47368e-03,3.50091e-01
6.54273e-03,3.35199e-01
6.61252e-03,3.20918e-01
6.68306e-03,3.07224e-01
6.75435e-03,2.94091e-01
6.82639e-03,2.81497e-01
6.89921e-03,2.69420e-01
6.97280e-03,2.57839e-01
7.04718e-03,2.46734e-01
7.12235e-03,2.36084e-01
7.19833e-03,2.25872e-01
7.27511e-03,2.16080e-01
7.35272e-03,2.06690e-01
7.43115e-03,1.97686e-01
7.51041e-03,1.89051e-01
7.59053e-03,1.80772e-01
7.67149e-03,1.72833e-01
7.75333e-03,1.65220e-01
7.83603e-03,1.57921e-01
7.91962e-03,1.50921e-01
8.00409e-03,1.44210e-01
8.08947e-03,1.37774e-01
8.17576e-03,1.31604e-01
8.26297e-03,1.25687e-01
8.35111e-03,1.20013e-01
8.44020e-03,1.14574e-01
8.53023e-03,1.09358e-01
8.62122e-03,1.04356e-01
8.71318e-03,9.95609e-02
8.80612e-03,9.49629e-02
8.90006e-03,9.05542e-02
8.99499e-03,8.63271e-02
9.09094e-03,8.22741e-02
9.18791e-03,7.83880e-02
9.28592e-03,7.46619e-02
9.38497e-03,7.10894e-02
9.48508e-03,6.76640e-02
9.58626e-03,6.43798e-02
9.68852e-03,6.12309e-02
9.79186e-03,5.82118e-02
9.89631e-03,5.53171e-02
1.00019e-02,5.25417e-02
1.01086e-02,4.98808e-02
1.02164e-02,4.73295e-02
1.03254e-02,4.48834e-02
1.04355e-02,4.25381e-02
1.05468e-02,4.02896e-02
1.06593e-02,3.81338e-02
1.07730e-02,3.60669e-02
1.08879e-02,3.40852e-02
1.10041e-02,3.21853e-02
1.11215e-02,3.03637e-02
1.12401e-02,2.86173e-02
1.13600e-02,2.69429e-02
1.14812e-02,2.53376e-02
1.16036e-02,2.37986e-02
1.17274e-02,2.23231e-02
1.18525e-02,2.09084e-02
1.19789e-02,1.95521e-02
1.21067e-02,1.82518e-02
1.22359e-02,1.70052e-02
1.23664e-02,1.58100e-02
1.24983e-02,1.46642e-02
1.26316e-02,1.35656e-02
1.27663e-02,1.25125e-02
1.29025e-02,1.15028e-02
1.30402e-02,1.05347e-02
1.31793e-02,9.60669e-03
1.33198e-02,8.71696e-03
1.34619e-02,7.86398e-03
1.36055e-02,7.04622e-03
1.37506e-02,6.26224e-03
1.38973e-02,5.51063e-03
1.40456e-02,4.79007e-03
1.41954e-02,4.09927e-03
1.43468e-02,3.43700e-03
1.44998e-02,2.80210e-03
1.46545e-02,2.19342e-03
1.48108e-02,1.60989e-03
1.49688e-02,1.05046e-03
1.51285e-02,5.14151e-04
1.52899e-02,0.00000e+00
