m1=5427.186, m2=95.879, gsp=2.172, rhosp=19.729
fGW[Hz],dPh[rad]
2.68516e-03,4.21511e+01
2.76344e-03,3.95444e+01
2.84400e-03,3.70988e+01
2.92691e-03,3.48044e+01
3.01223e-03,3.26517e+01
3.10004e-03,3.06321e+01
3.19042e-03,2.87373e+01
3.28342e-03,2.69596e+01
3.37914e-03,2.52917e+01
3.47765e-03,2.37270e+01
3.57903e-03,2.22589e+01
3.68337e-03,2.08816e+01
3.79074e-03,1.95894e+01
3.90125e-03,1.83771e+01
4.01498e-03,1.72398e+01
4.13202e-03,1.61727e+01
4.25248e-03,1.51716e+01
4.37645e-03,1.42324e+01
4.50403e-03,1.33513e+01
4.63533e-03,1.25246e+01
4.77046e-03,1.17490e+01
4.90953e-03,1.10214e+01
5.05265e-03,1.03388e+01
5.19994e-03,9.69837e+00
5.35153e-03,9.09756e+00
5.50754e-03,8.53390e+00
5.66810e-03,8.00509e+00
5.83333e-03,7.50899e+00
6.00338e-03,7.04357e+00
6.17839e-03,6.60694e+00
6.35851e-03,6.19732e+00
6.54387e-03,5.81303e+00
6.73464e-03,5.45252e+00
6.93096e-03,5.11431e+00
7.13301e-03,4.79702e+00
7.34096e-03,4.49937e+00
7.55496e-03,4.22014e+00
7.77520e-03,3.95818e+00
8.00186e-03,3.71244e+00
8.23513e-03,3.48190e+00
8.47520e-03,3.26564e+00
8.72227e-03,3.06276e+00
8.97654e-03,2.87244e+00
9.23822e-03,2.69391e+00
9.50754e-03,2.52643e+00
9.78470e-03,2.36932e+00
1.00699e-02,2.22195e+00
1.03635e-02,2.08370e+00
1.06656e-02,1.95402e+00
1.09765e-02,1.83237e+00
1.12965e-02,1.71826e+00
1.16258e-02,1.61122e+00
1.19648e-02,1.51081e+00
1.23136e-02,1.41663e+00
1.26725e-02,1.32829e+00
1.30419e-02,1.24543e+00
1.34221e-02,1.16770e+00
1.38134e-02,1.09480e+00
1.42161e-02,1.02642e+00
1.46305e-02,9.62281e-01
1.50570e-02,9.02125e-01
1.54960e-02,8.45703e-01
1.59477e-02,7.92784e-01
1.64126e-02,7.43152e-01
1.68911e-02,6.96602e-01
1.73835e-02,6.52945e-01
1.78903e-02,6.12002e-01
1.84118e-02,5.73603e-01
1.89485e-02,5.37592e-01
1.95009e-02,5.03821e-01
2.00694e-02,4.72151e-01
2.06545e-02,4.42452e-01
2.12566e-02,4.14602e-01
2.18763e-02,3.88486e-01
2.25140e-02,3.63998e-01
2.31703e-02,3.41035e-01
2.38458e-02,3.19504e-01
2.45409e-02,2.99316e-01
2.52563e-02,2.80387e-01
2.59926e-02,2.62640e-01
2.67504e-02,2.46001e-01
2.75302e-02,2.30401e-01
2.83327e-02,2.15777e-01
2.91587e-02,2.02067e-01
3.00087e-02,1.89214e-01
3.08835e-02,1.77167e-01
3.17838e-02,1.65873e-01
3.27104e-02,1.55288e-01
3.36640e-02,1.45366e-01
3.46453e-02,1.36067e-01
3.56553e-02,1.27352e-01
3.66947e-02,1.19184e-01
3.77645e-02,1.11530e-01
3.88654e-02,1.04358e-01
3.99984e-02,9.76366e-02
4.11644e-02,9.13392e-02
4.23644e-02,8.54389e-02
4.35994e-02,7.99110e-02
4.48704e-02,7.47324e-02
4.61785e-02,6.98812e-02
4.75247e-02,6.53371e-02
4.89101e-02,6.10808e-02
5.03360e-02,5.70945e-02
5.18033e-02,5.33613e-02
5.33135e-02,4.98654e-02
5.48677e-02,4.65919e-02
5.64672e-02,4.35270e-02
5.81133e-02,4.06576e-02
5.98074e-02,3.79714e-02
6.15509e-02,3.54570e-02
6.33453e-02,3.31037e-02
6.51919e-02,3.09013e-02
6.70924e-02,2.88404e-02
6.90482e-02,2.69120e-02
7.10611e-02,2.51080e-02
7.31327e-02,2.34203e-02
7.52647e-02,2.18418e-02
7.74588e-02,2.03655e-02
7.97168e-02,1.89850e-02
8.20407e-02,1.76942e-02
8.44324e-02,1.64875e-02
8.68938e-02,1.53596e-02
8.94269e-02,1.43055e-02
9.20338e-02,1.33205e-02
9.47168e-02,1.24002e-02
9.74780e-02,1.15406e-02
1.00320e-01,1.07376e-02
1.03244e-01,9.98788e-03
1.06254e-01,9.28788e-03
1.09351e-01,8.63445e-03
1.12539e-01,8.02463e-03
1.15820e-01,7.45561e-03
1.19196e-01,6.92479e-03
1.22671e-01,6.42970e-03
1.26247e-01,5.96804e-03
1.29928e-01,5.53766e-03
1.33715e-01,5.13654e-03
1.37613e-01,4.76278e-03
1.41625e-01,4.41461e-03
1.45754e-01,4.09035e-03
1.50003e-01,3.78846e-03
1.54375e-01,3.50746e-03
1.58876e-01,3.24600e-03
1.63507e-01,3.00277e-03
1.68274e-01,2.77659e-03
1.73179e-01,2.56633e-03
1.78228e-01,2.37092e-03
1.83424e-01,2.18939e-03
1.88771e-01,2.02080e-03
1.94274e-01,1.86429e-03
1.99937e-01,1.71905e-03
2.05766e-01,1.58431e-03
2.11764e-01,1.45937e-03
2.17938e-01,1.34355e-03
2.24291e-01,1.23625e-03
2.30829e-01,1.13686e-03
2.37559e-01,1.04485e-03
2.44484e-01,9.59710e-04
2.51611e-01,8.80955e-04
2.58946e-01,8.08142e-04
2.66495e-01,7.40855e-04
2.74264e-01,6.78702e-04
2.82259e-01,6.21319e-04
2.90487e-01,5.68367e-04
2.98955e-01,5.19527e-04
3.07671e-01,4.74502e-04
3.16640e-01,4.33015e-04
3.25870e-01,3.94808e-04
3.35370e-01,3.59640e-04
3.45147e-01,3.27287e-04
3.55209e-01,2.97538e-04
3.65564e-01,2.70199e-04
3.76220e-01,2.45088e-04
3.87188e-01,2.22036e-04
3.98475e-01,2.00886e-04
4.10092e-01,1.81491e-04
4.22047e-01,1.63716e-04
4.34350e-01,1.47435e-04
4.47012e-01,1.32529e-04
4.60043e-01,1.18891e-04
4.73455e-01,1.06420e-04
4.87257e-01,9.50211e-05
5.01461e-01,8.46090e-05
5.16080e-01,7.51030e-05
5.31124e-01,6.64292e-05
5.46608e-01,5.85189e-05
5.62542e-01,5.13088e-05
5.78942e-01,4.47404e-05
5.95819e-01,3.87598e-05
6.13188e-01,3.33171e-05
6.31064e-01,2.83666e-05
6.49460e-01,2.38660e-05
6.68393e-01,1.97765e-05
6.87878e-01,1.60624e-05
7.07931e-01,1.26909e-05
7.28569e-01,9.63177e-06
7.49808e-01,6.85743e-06
7.71667e-01,4.34251e-06
7.94162e-01,2.06379e-06
8.17313e-01,0.00000e+00
