m1=230339.782, m2=49.978, gsp=2.462, rhosp=438.917
fGW[Hz],dPh[rad]
1.34026e-03,1.63626e+05
1.35827e-03,1.57071e+05
1.37652e-03,1.50763e+05
1.39502e-03,1.44693e+05
1.41376e-03,1.38852e+05
1.43276e-03,1.33234e+05
1.45202e-03,1.27830e+05
1.47153e-03,1.22633e+05
1.49130e-03,1.17634e+05
1.51134e-03,1.12828e+05
1.53165e-03,1.08208e+05
1.55224e-03,1.03766e+05
1.57309e-03,9.94963e+04
1.59423e-03,9.53929e+04
1.61566e-03,9.14497e+04
1.63737e-03,8.76609e+04
1.65937e-03,8.40208e+04
1.68167e-03,8.05240e+04
1.70427e-03,7.71653e+04
1.72717e-03,7.39396e+04
1.75038e-03,7.08419e+04
1.77390e-03,6.78676e+04
1.79774e-03,6.50121e+04
1.82190e-03,6.22709e+04
1.84638e-03,5.96398e+04
1.87119e-03,5.71146e+04
1.89634e-03,5.46913e+04
1.92182e-03,5.23661e+04
1.94765e-03,5.01353e+04
1.97382e-03,4.79953e+04
2.00035e-03,4.59425e+04
2.02723e-03,4.39737e+04
2.05447e-03,4.20856e+04
2.08208e-03,4.02752e+04
2.11006e-03,3.85393e+04
2.13841e-03,3.68752e+04
2.16715e-03,3.52800e+04
2.19627e-03,3.37510e+04
2.22578e-03,3.22856e+04
2.25569e-03,3.08814e+04
2.28601e-03,2.95358e+04
2.31673e-03,2.82467e+04
2.34786e-03,2.70117e+04
2.37941e-03,2.58287e+04
2.41139e-03,2.46956e+04
2.44379e-03,2.36104e+04
2.47663e-03,2.25712e+04
2.50991e-03,2.15762e+04
2.54364e-03,2.06235e+04
2.57782e-03,1.97114e+04
2.61246e-03,1.88383e+04
2.64757e-03,1.80026e+04
2.68315e-03,1.72028e+04
2.71920e-03,1.64374e+04
2.75574e-03,1.57049e+04
2.79278e-03,1.50041e+04
2.83031e-03,1.43336e+04
2.86834e-03,1.36921e+04
2.90689e-03,1.30785e+04
2.94595e-03,1.24916e+04
2.98554e-03,1.19302e+04
3.02566e-03,1.13934e+04
3.06632e-03,1.08800e+04
3.10752e-03,1.03891e+04
3.14928e-03,9.91978e+03
3.19160e-03,9.47108e+03
3.23449e-03,9.04213e+03
3.27796e-03,8.63209e+03
3.32201e-03,8.24017e+03
3.36665e-03,7.86559e+03
3.41189e-03,7.50761e+03
3.45774e-03,7.16551e+03
3.50420e-03,6.83862e+03
3.55129e-03,6.52629e+03
3.59902e-03,6.22787e+03
3.64738e-03,5.94278e+03
3.69639e-03,5.67043e+03
3.74607e-03,5.41028e+03
3.79641e-03,5.16179e+03
3.84742e-03,4.92445e+03
3.89913e-03,4.69778e+03
3.95152e-03,4.48132e+03
4.00462e-03,4.27461e+03
4.05844e-03,4.07723e+03
4.11298e-03,3.88876e+03
4.16825e-03,3.70882e+03
4.22426e-03,3.53704e+03
4.28103e-03,3.37304e+03
4.33856e-03,3.21648e+03
4.39686e-03,3.06704e+03
4.45594e-03,2.92440e+03
4.51582e-03,2.78826e+03
4.57651e-03,2.65833e+03
4.63801e-03,2.53432e+03
4.70033e-03,2.41599e+03
4.76350e-03,2.30306e+03
4.82751e-03,2.19531e+03
4.89238e-03,2.09249e+03
4.95813e-03,1.99439e+03
5.02475e-03,1.90080e+03
5.09228e-03,1.81151e+03
5.16071e-03,1.72632e+03
5.23006e-03,1.64506e+03
5.30034e-03,1.56754e+03
5.37157e-03,1.49360e+03
5.44375e-03,1.42307e+03
5.51690e-03,1.35581e+03
5.59104e-03,1.29165e+03
5.66617e-03,1.23046e+03
5.74232e-03,1.17210e+03
5.81948e-03,1.11645e+03
5.89769e-03,1.06338e+03
5.97694e-03,1.01278e+03
6.05726e-03,9.64524e+02
6.13866e-03,9.18513e+02
6.22115e-03,8.74642e+02
6.30475e-03,8.32813e+02
6.38947e-03,7.92933e+02
6.47534e-03,7.54912e+02
6.56235e-03,7.18664e+02
6.65054e-03,6.84109e+02
6.73991e-03,6.51167e+02
6.83048e-03,6.19764e+02
6.92227e-03,5.89830e+02
7.01529e-03,5.61296e+02
7.10956e-03,5.34099e+02
7.20510e-03,5.08175e+02
7.30193e-03,4.83466e+02
7.40005e-03,4.59915e+02
7.49949e-03,4.37470e+02
7.60027e-03,4.16078e+02
7.70241e-03,3.95691e+02
7.80591e-03,3.76262e+02
7.91081e-03,3.57746e+02
8.01712e-03,3.40101e+02
8.12485e-03,3.23286e+02
8.23403e-03,3.07263e+02
8.34468e-03,2.91995e+02
8.45682e-03,2.77446e+02
8.57046e-03,2.63582e+02
8.68564e-03,2.50373e+02
8.80235e-03,2.37787e+02
8.92064e-03,2.25795e+02
9.04052e-03,2.14369e+02
9.16201e-03,2.03482e+02
9.28513e-03,1.93111e+02
9.40990e-03,1.83229e+02
9.53635e-03,1.73815e+02
9.66450e-03,1.64846e+02
9.79438e-03,1.56301e+02
9.92599e-03,1.48161e+02
1.00594e-02,1.40407e+02
1.01946e-02,1.33020e+02
1.03316e-02,1.25982e+02
1.04704e-02,1.19279e+02
1.06111e-02,1.12893e+02
1.07537e-02,1.06810e+02
1.08982e-02,1.01016e+02
1.10446e-02,9.54963e+01
1.11931e-02,9.02390e+01
1.13435e-02,8.52312e+01
1.14959e-02,8.04614e+01
1.16504e-02,7.59181e+01
1.18070e-02,7.15908e+01
1.19656e-02,6.74691e+01
1.21264e-02,6.35434e+01
1.22894e-02,5.98044e+01
1.24545e-02,5.62433e+01
1.26219e-02,5.28515e+01
1.27915e-02,4.96212e+01
1.29634e-02,4.65447e+01
1.31376e-02,4.36147e+01
1.33141e-02,4.08241e+01
1.34931e-02,3.81665e+01
1.36744e-02,3.56355e+01
1.38581e-02,3.32252e+01
1.40444e-02,3.09296e+01
1.42331e-02,2.87436e+01
1.44244e-02,2.66617e+01
1.46182e-02,2.46791e+01
1.48146e-02,2.27911e+01
1.50137e-02,2.09932e+01
1.52155e-02,1.92810e+01
1.54199e-02,1.76506e+01
1.56272e-02,1.60979e+01
1.58372e-02,1.46194e+01
1.60500e-02,1.32115e+01
1.62657e-02,1.18708e+01
1.64842e-02,1.05942e+01
1.67058e-02,9.37848e+00
1.69303e-02,8.22087e+00
1.71578e-02,7.11858e+00
1.73883e-02,6.06896e+00
1.76220e-02,5.06951e+00
1.78588e-02,4.11783e+00
1.80988e-02,3.21165e+00
1.83420e-02,2.34879e+00
1.85885e-02,1.52719e+00
1.88383e-02,7.44888e-01
1.90914e-02,0.00000e+00
