m1=1474.189, m2=65.509, gsp=2.325, rhosp=11.121
fGW[Hz],dPh[rad]
4.30448e-03,3.30161e+02
4.44880e-03,3.07896e+02
4.59796e-03,2.87133e+02
4.75212e-03,2.67770e+02
4.91145e-03,2.49712e+02
5.07612e-03,2.32872e+02
5.24631e-03,2.17168e+02
5.42221e-03,2.02522e+02
5.60401e-03,1.88864e+02
5.79190e-03,1.76127e+02
5.98609e-03,1.64248e+02
6.18679e-03,1.53171e+02
6.39422e-03,1.42840e+02
6.60861e-03,1.33206e+02
6.83018e-03,1.24222e+02
7.05918e-03,1.15843e+02
7.29586e-03,1.08030e+02
7.54048e-03,1.00743e+02
7.79330e-03,9.39476e+01
8.05459e-03,8.76105e+01
8.32464e-03,8.17006e+01
8.60375e-03,7.61893e+01
8.89222e-03,7.10496e+01
9.19036e-03,6.62565e+01
9.49849e-03,6.17866e+01
9.81696e-03,5.76182e+01
1.01461e-02,5.37308e+01
1.04863e-02,5.01056e+01
1.08379e-02,4.67249e+01
1.12012e-02,4.35721e+01
1.15768e-02,4.06320e+01
1.19649e-02,3.78901e+01
1.23661e-02,3.53332e+01
1.27807e-02,3.29487e+01
1.32092e-02,3.07250e+01
1.36521e-02,2.86513e+01
1.41098e-02,2.67174e+01
1.45829e-02,2.49140e+01
1.50718e-02,2.32322e+01
1.55772e-02,2.16638e+01
1.60994e-02,2.02013e+01
1.66392e-02,1.88373e+01
1.71971e-02,1.75654e+01
1.77737e-02,1.63793e+01
1.83696e-02,1.52732e+01
1.89855e-02,1.42417e+01
1.96220e-02,1.32798e+01
2.02799e-02,1.23828e+01
2.09599e-02,1.15462e+01
2.16626e-02,1.07662e+01
2.23889e-02,1.00387e+01
2.31396e-02,9.36037e+00
2.39154e-02,8.72778e+00
2.47172e-02,8.13788e+00
2.55460e-02,7.58778e+00
2.64025e-02,7.07480e+00
2.72877e-02,6.59644e+00
2.82026e-02,6.15036e+00
2.91482e-02,5.73439e+00
3.01254e-02,5.34649e+00
3.11355e-02,4.98477e+00
3.21794e-02,4.64748e+00
3.32583e-02,4.33295e+00
3.43734e-02,4.03965e+00
3.55259e-02,3.76616e+00
3.67170e-02,3.51113e+00
3.79480e-02,3.27333e+00
3.92203e-02,3.05158e+00
4.05353e-02,2.84481e+00
4.18944e-02,2.65200e+00
4.32990e-02,2.47222e+00
4.47508e-02,2.30458e+00
4.62512e-02,2.14826e+00
4.78019e-02,2.00251e+00
4.94046e-02,1.86661e+00
5.10610e-02,1.73989e+00
5.27730e-02,1.62174e+00
5.45424e-02,1.51157e+00
5.63711e-02,1.40886e+00
5.82611e-02,1.31308e+00
6.02144e-02,1.22379e+00
6.22333e-02,1.14053e+00
6.43199e-02,1.06291e+00
6.64764e-02,9.90535e-01
6.87052e-02,9.23060e-01
7.10088e-02,8.60152e-01
7.33895e-02,8.01502e-01
7.58501e-02,7.46824e-01
7.83932e-02,6.95849e-01
8.10216e-02,6.48326e-01
8.37381e-02,6.04024e-01
8.65457e-02,5.62724e-01
8.94474e-02,5.24224e-01
9.24464e-02,4.88334e-01
9.55459e-02,4.54878e-01
9.87494e-02,4.23693e-01
1.02060e-01,3.94624e-01
1.05482e-01,3.67528e-01
1.09019e-01,3.42272e-01
1.12674e-01,3.18733e-01
1.16452e-01,2.96793e-01
1.20356e-01,2.76344e-01
1.24391e-01,2.57287e-01
1.28562e-01,2.39526e-01
1.32872e-01,2.22975e-01
1.37327e-01,2.07551e-01
1.41932e-01,1.93177e-01
1.46690e-01,1.79784e-01
1.51609e-01,1.67305e-01
1.56692e-01,1.55677e-01
1.61945e-01,1.44843e-01
1.67375e-01,1.34750e-01
1.72987e-01,1.25347e-01
1.78787e-01,1.16587e-01
1.84781e-01,1.08427e-01
1.90976e-01,1.00826e-01
1.97379e-01,9.37471e-02
2.03997e-01,8.71537e-02
2.10837e-01,8.10132e-02
2.17906e-01,7.52950e-02
2.25212e-01,6.99704e-02
2.32762e-01,6.50126e-02
2.40567e-01,6.03967e-02
2.48632e-01,5.60996e-02
2.56968e-01,5.20994e-02
2.65584e-01,4.83760e-02
2.74489e-01,4.49107e-02
2.83692e-01,4.16857e-02
2.93203e-01,3.86848e-02
3.03034e-01,3.58926e-02
3.13194e-01,3.32950e-02
3.23695e-01,3.08786e-02
3.34547e-01,2.86311e-02
3.45764e-01,2.65410e-02
3.57357e-01,2.45974e-02
3.69338e-01,2.27904e-02
3.81722e-01,2.11105e-02
3.94520e-01,1.95492e-02
4.07747e-01,1.80982e-02
4.21418e-01,1.67500e-02
4.35548e-01,1.54975e-02
4.50151e-01,1.43341e-02
4.65243e-01,1.32537e-02
4.80842e-01,1.22505e-02
4.96964e-01,1.13193e-02
5.13626e-01,1.04550e-02
5.30847e-01,9.65309e-03
5.48645e-01,8.90914e-03
5.67040e-01,8.21915e-03
5.86052e-01,7.57938e-03
6.05701e-01,6.98632e-03
6.26009e-01,6.43672e-03
6.46998e-01,5.92753e-03
6.68690e-01,5.45592e-03
6.91110e-01,5.01925e-03
7.14282e-01,4.61506e-03
7.38230e-01,4.24106e-03
7.62981e-01,3.89512e-03
7.88563e-01,3.57523e-03
8.15001e-01,3.27956e-03
8.42327e-01,3.00637e-03
8.70568e-01,2.75405e-03
8.99757e-01,2.52110e-03
9.29924e-01,2.30613e-03
9.61102e-01,2.10784e-03
9.93326e-01,1.92501e-03
1.02663e+00,1.75652e-03
1.06105e+00,1.60133e-03
1.09663e+00,1.45844e-03
1.13339e+00,1.32696e-03
1.17139e+00,1.20603e-03
1.21067e+00,1.09488e-03
1.25126e+00,9.92759e-04
1.29321e+00,8.98996e-04
1.33657e+00,8.12956e-04
1.38138e+00,7.34049e-04
1.42770e+00,6.61729e-04
1.47557e+00,5.95487e-04
1.52504e+00,5.34851e-04
1.57617e+00,4.79383e-04
1.62902e+00,4.28675e-04
1.68363e+00,3.82350e-04
1.74008e+00,3.40058e-04
1.79843e+00,3.01476e-04
1.85872e+00,2.66301e-04
1.92104e+00,2.34255e-04
1.98545e+00,2.05082e-04
2.05202e+00,1.78542e-04
2.12082e+00,1.54416e-04
2.19193e+00,1.32500e-04
2.26542e+00,1.12605e-04
2.34137e+00,9.45593e-05
2.41987e+00,7.82024e-05
2.50101e+00,6.33870e-05
2.58486e+00,4.99778e-05
2.67153e+00,3.78501e-05
2.76110e+00,2.68893e-05
2.85367e+00,1.69904e-05
2.94935e+00,8.05674e-06
3.04823e+00,0.00000e+00
