m1=3910.963, m2=14.082, gsp=2.240, rhosp=5442.199
fGW[Hz],dPh[rad]
5.97294e-03,4.17168e+03
6.13229e-03,3.93816e+03
6.29589e-03,3.71766e+03
6.46385e-03,3.50946e+03
6.63630e-03,3.31287e+03
6.81335e-03,3.12724e+03
6.99512e-03,2.95196e+03
7.18174e-03,2.78647e+03
7.37334e-03,2.63020e+03
7.57005e-03,2.48266e+03
7.77200e-03,2.34335e+03
7.97935e-03,2.21182e+03
8.19223e-03,2.08762e+03
8.41079e-03,1.97037e+03
8.63517e-03,1.85966e+03
8.86555e-03,1.75513e+03
9.10207e-03,1.65644e+03
9.34490e-03,1.56326e+03
9.59421e-03,1.47529e+03
9.85017e-03,1.39223e+03
1.01130e-02,1.31382e+03
1.03828e-02,1.23979e+03
1.06598e-02,1.16990e+03
1.09441e-02,1.10392e+03
1.12361e-02,1.04163e+03
1.15359e-02,9.82821e+02
1.18436e-02,9.27306e+02
1.21596e-02,8.74899e+02
1.24840e-02,8.25425e+02
1.28171e-02,7.78723e+02
1.31590e-02,7.34636e+02
1.35101e-02,6.93020e+02
1.38705e-02,6.53737e+02
1.42406e-02,6.16656e+02
1.46205e-02,5.81654e+02
1.50105e-02,5.48616e+02
1.54110e-02,5.17432e+02
1.58221e-02,4.87999e+02
1.62442e-02,4.60219e+02
1.66776e-02,4.33999e+02
1.71226e-02,4.09253e+02
1.75794e-02,3.85899e+02
1.80484e-02,3.63857e+02
1.85299e-02,3.43057e+02
1.90242e-02,3.23427e+02
1.95318e-02,3.04903e+02
2.00528e-02,2.87422e+02
2.05878e-02,2.70927e+02
2.11371e-02,2.55363e+02
2.17010e-02,2.40676e+02
2.22799e-02,2.26820e+02
2.28743e-02,2.13746e+02
2.34846e-02,2.01411e+02
2.41111e-02,1.89774e+02
2.47544e-02,1.78795e+02
2.54148e-02,1.68439e+02
2.60928e-02,1.58669e+02
2.67889e-02,1.49454e+02
2.75036e-02,1.40761e+02
2.82374e-02,1.32563e+02
2.89907e-02,1.24830e+02
2.97642e-02,1.17538e+02
3.05582e-02,1.10661e+02
3.13735e-02,1.04175e+02
3.22105e-02,9.80600e+01
3.30698e-02,9.22939e+01
3.39521e-02,8.68574e+01
3.48579e-02,8.17319e+01
3.57878e-02,7.69000e+01
3.67426e-02,7.23452e+01
3.77228e-02,6.80518e+01
3.87292e-02,6.40052e+01
3.97625e-02,6.01914e+01
4.08233e-02,5.65973e+01
4.19124e-02,5.32106e+01
4.30305e-02,5.00195e+01
4.41785e-02,4.70129e+01
4.53572e-02,4.41805e+01
4.65672e-02,4.15125e+01
4.78096e-02,3.89994e+01
4.90851e-02,3.66326e+01
5.03946e-02,3.44037e+01
5.17391e-02,3.23050e+01
5.31194e-02,3.03290e+01
5.45365e-02,2.84687e+01
5.59915e-02,2.67177e+01
5.74853e-02,2.50697e+01
5.90189e-02,2.35188e+01
6.05934e-02,2.20594e+01
6.22100e-02,2.06865e+01
6.38697e-02,1.93949e+01
6.55736e-02,1.81801e+01
6.73230e-02,1.70377e+01
6.91191e-02,1.59635e+01
7.09631e-02,1.49536e+01
7.28563e-02,1.40044e+01
7.48000e-02,1.31122e+01
7.67956e-02,1.22739e+01
7.88444e-02,1.14863e+01
8.09479e-02,1.07465e+01
8.31074e-02,1.00517e+01
8.53246e-02,9.39926e+00
8.76010e-02,8.78681e+00
8.99380e-02,8.21198e+00
9.23375e-02,7.67257e+00
9.48009e-02,7.16651e+00
9.73301e-02,6.69184e+00
9.99267e-02,6.24672e+00
1.02593e-01,5.82942e+00
1.05330e-01,5.43829e+00
1.08140e-01,5.07178e+00
1.11025e-01,4.72843e+00
1.13987e-01,4.40687e+00
1.17028e-01,4.10579e+00
1.20150e-01,3.82397e+00
1.23355e-01,3.56026e+00
1.26646e-01,3.31356e+00
1.30025e-01,3.08285e+00
1.33494e-01,2.86716e+00
1.37055e-01,2.66557e+00
1.40712e-01,2.47723e+00
1.44466e-01,2.30132e+00
1.48320e-01,2.13707e+00
1.52277e-01,1.98378e+00
1.56339e-01,1.84076e+00
1.60510e-01,1.70736e+00
1.64792e-01,1.58300e+00
1.69189e-01,1.46709e+00
1.73703e-01,1.35911e+00
1.78337e-01,1.25855e+00
1.83095e-01,1.16495e+00
1.87979e-01,1.07784e+00
1.92994e-01,9.96830e-01
1.98143e-01,9.21508e-01
2.03429e-01,8.51508e-01
2.08857e-01,7.86482e-01
2.14429e-01,7.26101e-01
2.20149e-01,6.70060e-01
2.26022e-01,6.18069e-01
2.32052e-01,5.69856e-01
2.38243e-01,5.25168e-01
2.44599e-01,4.83765e-01
2.51125e-01,4.45423e-01
2.57825e-01,4.09932e-01
2.64703e-01,3.77096e-01
2.71765e-01,3.46730e-01
2.79015e-01,3.18660e-01
2.86459e-01,2.92726e-01
2.94101e-01,2.68776e-01
3.01947e-01,2.46669e-01
3.10003e-01,2.26272e-01
3.18273e-01,2.07461e-01
3.26765e-01,1.90122e-01
3.35482e-01,1.74146e-01
3.44432e-01,1.59434e-01
3.53621e-01,1.45891e-01
3.63055e-01,1.33430e-01
3.72741e-01,1.21970e-01
3.82686e-01,1.11435e-01
3.92895e-01,1.01755e-01
4.03377e-01,9.28648e-02
4.14139e-01,8.47027e-02
4.25187e-01,7.72126e-02
4.36531e-01,7.03421e-02
4.48177e-01,6.40427e-02
4.60133e-01,5.82691e-02
4.72409e-01,5.29798e-02
4.85012e-01,4.81359e-02
4.97952e-01,4.37018e-02
5.11236e-01,3.96443e-02
5.24875e-01,3.59329e-02
5.38878e-01,3.25393e-02
5.53255e-01,2.94374e-02
5.68015e-01,2.66032e-02
5.83169e-01,2.40144e-02
5.98727e-01,2.16507e-02
6.14700e-01,1.94931e-02
6.31100e-01,1.75244e-02
6.47937e-01,1.57286e-02
6.65223e-01,1.40910e-02
6.82970e-01,1.25982e-02
7.01190e-01,1.12376e-02
7.19897e-01,9.99809e-03
7.39103e-01,8.86907e-03
7.58821e-01,7.84100e-03
7.79066e-01,6.90510e-03
7.99850e-01,6.05333e-03
8.21189e-01,5.27832e-03
8.43097e-01,4.57333e-03
8.65590e-01,3.93218e-03
8.88683e-01,3.34922e-03
9.12391e-01,2.81928e-03
9.36733e-01,2.33766e-03
9.61724e-01,1.90003e-03
9.87381e-01,1.50245e-03
1.01372e+00,1.14134e-03
1.04077e+00,8.13397e-04
1.06853e+00,5.15642e-04
1.09704e+00,2.45339e-04
1.12631e+00,0.00000e+00
