m1=598178.795, m2=8.564, gsp=2.331, rhosp=2058.140
fGW[Hz],dPh[rad]
2.04575e-03,7.57587e+03
2.05894e-03,7.39337e+03
2.07221e-03,7.21523e+03
2.08557e-03,7.04133e+03
2.09902e-03,6.87159e+03
2.11256e-03,6.70589e+03
2.12618e-03,6.54415e+03
2.13989e-03,6.38626e+03
2.15369e-03,6.23215e+03
2.16757e-03,6.08171e+03
2.18155e-03,5.93486e+03
2.19562e-03,5.79151e+03
2.20977e-03,5.65159e+03
2.22402e-03,5.51501e+03
2.23836e-03,5.38168e+03
2.25280e-03,5.25154e+03
2.26732e-03,5.12451e+03
2.28194e-03,5.00051e+03
2.29666e-03,4.87947e+03
2.31147e-03,4.76132e+03
2.32637e-03,4.64599e+03
2.34137e-03,4.53341e+03
2.35647e-03,4.42353e+03
2.37166e-03,4.31626e+03
2.38696e-03,4.21156e+03
2.40235e-03,4.10936e+03
2.41784e-03,4.00960e+03
2.43343e-03,3.91222e+03
2.44912e-03,3.81717e+03
2.46491e-03,3.72439e+03
2.48080e-03,3.63383e+03
2.49680e-03,3.54543e+03
2.51290e-03,3.45914e+03
2.52910e-03,3.37492e+03
2.54541e-03,3.29270e+03
2.56182e-03,3.21245e+03
2.57834e-03,3.13412e+03
2.59497e-03,3.05766e+03
2.61170e-03,2.98303e+03
2.62854e-03,2.91018e+03
2.64549e-03,2.83907e+03
2.66255e-03,2.76966e+03
2.67972e-03,2.70192e+03
2.69700e-03,2.63579e+03
2.71439e-03,2.57124e+03
2.73189e-03,2.50823e+03
2.74950e-03,2.44673e+03
2.76723e-03,2.38670e+03
2.78508e-03,2.32811e+03
2.80303e-03,2.27091e+03
2.82111e-03,2.21509e+03
2.83930e-03,2.16060e+03
2.85761e-03,2.10741e+03
2.87603e-03,2.05549e+03
2.89458e-03,2.00482e+03
2.91324e-03,1.95536e+03
2.93203e-03,1.90708e+03
2.95093e-03,1.85995e+03
2.96996e-03,1.81395e+03
2.98911e-03,1.76906e+03
3.00838e-03,1.72523e+03
3.02778e-03,1.68246e+03
3.04731e-03,1.64070e+03
3.06695e-03,1.59995e+03
3.08673e-03,1.56017e+03
3.10663e-03,1.52134e+03
3.12667e-03,1.48345e+03
3.14683e-03,1.44645e+03
3.16712e-03,1.41035e+03
3.18754e-03,1.37511e+03
3.20809e-03,1.34071e+03
3.22878e-03,1.30713e+03
3.24960e-03,1.27436e+03
3.27055e-03,1.24237e+03
3.29164e-03,1.21114e+03
3.31287e-03,1.18067e+03
3.33423e-03,1.15092e+03
3.35573e-03,1.12189e+03
3.37736e-03,1.09355e+03
3.39914e-03,1.06589e+03
3.42106e-03,1.03889e+03
3.44312e-03,1.01253e+03
3.46532e-03,9.86809e+02
3.48766e-03,9.61702e+02
3.51015e-03,9.37196e+02
3.53279e-03,9.13277e+02
3.55557e-03,8.89930e+02
3.57849e-03,8.67142e+02
3.60157e-03,8.44900e+02
3.62479e-03,8.23190e+02
3.64816e-03,8.01999e+02
3.67169e-03,7.81317e+02
3.69536e-03,7.61129e+02
3.71919e-03,7.41424e+02
3.74317e-03,7.22192e+02
3.76731e-03,7.03419e+02
3.79160e-03,6.85097e+02
3.81605e-03,6.67213e+02
3.84065e-03,6.49757e+02
3.86542e-03,6.32719e+02
3.89034e-03,6.16089e+02
3.91543e-03,5.99858e+02
3.94067e-03,5.84015e+02
3.96608e-03,5.68552e+02
3.99166e-03,5.53458e+02
4.01740e-03,5.38727e+02
4.04330e-03,5.24348e+02
4.06937e-03,5.10313e+02
4.09561e-03,4.96615e+02
4.12202e-03,4.83245e+02
4.14860e-03,4.70195e+02
4.17535e-03,4.57457e+02
4.20227e-03,4.45025e+02
4.22937e-03,4.32890e+02
4.25664e-03,4.21046e+02
4.28409e-03,4.09486e+02
4.31171e-03,3.98202e+02
4.33951e-03,3.87189e+02
4.36749e-03,3.76440e+02
4.39566e-03,3.65948e+02
4.42400e-03,3.55708e+02
4.45253e-03,3.45713e+02
4.48124e-03,3.35957e+02
4.51013e-03,3.26435e+02
4.53921e-03,3.17141e+02
4.56848e-03,3.08070e+02
4.59794e-03,2.99216e+02
4.62759e-03,2.90574e+02
4.65743e-03,2.82140e+02
4.68746e-03,2.73907e+02
4.71768e-03,2.65872e+02
4.74810e-03,2.58029e+02
4.77872e-03,2.50374e+02
4.80953e-03,2.42903e+02
4.84054e-03,2.35610e+02
4.87176e-03,2.28493e+02
4.90317e-03,2.21545e+02
4.93478e-03,2.14765e+02
4.96660e-03,2.08147e+02
4.99863e-03,2.01687e+02
5.03086e-03,1.95382e+02
5.06330e-03,1.89228e+02
5.09595e-03,1.83222e+02
5.12881e-03,1.77360e+02
5.16188e-03,1.71638e+02
5.19516e-03,1.66053e+02
5.22866e-03,1.60602e+02
5.26238e-03,1.55282e+02
5.29631e-03,1.50089e+02
5.33046e-03,1.45021e+02
5.36483e-03,1.40074e+02
5.39942e-03,1.35246e+02
5.43424e-03,1.30534e+02
5.46928e-03,1.25934e+02
5.50454e-03,1.21445e+02
5.54004e-03,1.17063e+02
5.57576e-03,1.12786e+02
5.61171e-03,1.08612e+02
5.64790e-03,1.04538e+02
5.68432e-03,1.00562e+02
5.72097e-03,9.66804e+01
5.75786e-03,9.28922e+01
5.79498e-03,8.91949e+01
5.83235e-03,8.55862e+01
5.86996e-03,8.20640e+01
5.90781e-03,7.86262e+01
5.94590e-03,7.52709e+01
5.98424e-03,7.19959e+01
6.02283e-03,6.87995e+01
6.06166e-03,6.56797e+01
6.10075e-03,6.26347e+01
6.14009e-03,5.96627e+01
6.17968e-03,5.67619e+01
6.21953e-03,5.39307e+01
6.25963e-03,5.11674e+01
6.29999e-03,4.84703e+01
6.34061e-03,4.58379e+01
6.38150e-03,4.32685e+01
6.42265e-03,4.07608e+01
6.46406e-03,3.83132e+01
6.50574e-03,3.59243e+01
6.54769e-03,3.35926e+01
6.58991e-03,3.13169e+01
6.63240e-03,2.90957e+01
6.67517e-03,2.69278e+01
6.71821e-03,2.48118e+01
6.76153e-03,2.27466e+01
6.80513e-03,2.07309e+01
6.84901e-03,1.87636e+01
6.89317e-03,1.68434e+01
6.93762e-03,1.49692e+01
6.98235e-03,1.31400e+01
7.02738e-03,1.13546e+01
7.07269e-03,9.61208e+00
7.11829e-03,7.91131e+00
7.16419e-03,6.25133e+00
7.21039e-03,4.63115e+00
7.25688e-03,3.04982e+00
7.30367e-03,1.50640e+00
7.35077e-03,0.00000e+00
