m1=32580.758, m2=8.901, gsp=2.388, rhosp=41.580
fGW[Hz],dPh[rad]
4.17398e-03,9.80120e+04
4.24754e-03,9.36866e+04
4.32239e-03,8.95389e+04
4.39856e-03,8.55619e+04
4.47607e-03,8.17492e+04
4.55495e-03,7.80945e+04
4.63521e-03,7.45916e+04
4.71689e-03,7.12348e+04
4.80002e-03,6.80183e+04
4.88460e-03,6.49367e+04
4.97068e-03,6.19848e+04
5.05827e-03,5.91574e+04
5.14741e-03,5.64499e+04
5.23811e-03,5.38574e+04
5.33042e-03,5.13754e+04
5.42435e-03,4.89996e+04
5.51994e-03,4.67259e+04
5.61721e-03,4.45500e+04
5.71620e-03,4.24683e+04
5.81693e-03,4.04768e+04
5.91944e-03,3.85721e+04
6.02375e-03,3.67505e+04
6.12990e-03,3.50089e+04
6.23792e-03,3.33439e+04
6.34784e-03,3.17525e+04
6.45970e-03,3.02316e+04
6.57354e-03,2.87784e+04
6.68938e-03,2.73902e+04
6.80726e-03,2.60642e+04
6.92721e-03,2.47979e+04
7.04928e-03,2.35889e+04
7.17351e-03,2.24347e+04
7.29992e-03,2.13330e+04
7.42856e-03,2.02817e+04
7.55946e-03,1.92787e+04
7.69267e-03,1.83219e+04
7.82823e-03,1.74094e+04
7.96618e-03,1.65393e+04
8.10656e-03,1.57097e+04
8.24942e-03,1.49190e+04
8.39479e-03,1.41654e+04
8.54272e-03,1.34475e+04
8.69326e-03,1.27635e+04
8.84645e-03,1.21121e+04
9.00234e-03,1.14918e+04
9.16098e-03,1.09012e+04
9.32242e-03,1.03391e+04
9.48670e-03,9.80417e+03
9.65387e-03,9.29520e+03
9.82399e-03,8.81103e+03
9.99711e-03,8.35055e+03
1.01733e-02,7.91270e+03
1.03526e-02,7.49643e+03
1.05350e-02,7.10078e+03
1.07206e-02,6.72480e+03
1.09095e-02,6.36759e+03
1.11018e-02,6.02827e+03
1.12974e-02,5.70601e+03
1.14965e-02,5.40003e+03
1.16991e-02,5.10956e+03
1.19053e-02,4.83387e+03
1.21151e-02,4.57226e+03
1.23286e-02,4.32407e+03
1.25458e-02,4.08864e+03
1.27669e-02,3.86538e+03
1.29919e-02,3.65369e+03
1.32208e-02,3.45302e+03
1.34538e-02,3.26283e+03
1.36909e-02,3.08261e+03
1.39321e-02,2.91187e+03
1.41776e-02,2.75015e+03
1.44275e-02,2.59699e+03
1.46817e-02,2.45197e+03
1.49404e-02,2.31469e+03
1.52037e-02,2.18476e+03
1.54716e-02,2.06180e+03
1.57443e-02,1.94547e+03
1.60217e-02,1.83543e+03
1.63041e-02,1.73135e+03
1.65914e-02,1.63294e+03
1.68837e-02,1.53990e+03
1.71813e-02,1.45196e+03
1.74840e-02,1.36884e+03
1.77921e-02,1.29030e+03
1.81057e-02,1.21610e+03
1.84247e-02,1.14602e+03
1.87494e-02,1.07982e+03
1.90798e-02,1.01732e+03
1.94160e-02,9.58311e+02
1.97582e-02,9.02608e+02
2.01064e-02,8.50035e+02
2.04607e-02,8.00425e+02
2.08212e-02,7.53617e+02
2.11881e-02,7.09460e+02
2.15615e-02,6.67811e+02
2.19415e-02,6.28533e+02
2.23281e-02,5.91496e+02
2.27216e-02,5.56577e+02
2.31220e-02,5.23661e+02
2.35294e-02,4.92637e+02
2.39441e-02,4.63400e+02
2.43660e-02,4.35851e+02
2.47954e-02,4.09896e+02
2.52323e-02,3.85445e+02
2.56770e-02,3.62416e+02
2.61295e-02,3.40727e+02
2.65899e-02,3.20304e+02
2.70585e-02,3.01075e+02
2.75353e-02,2.82972e+02
2.80205e-02,2.65931e+02
2.85143e-02,2.49893e+02
2.90168e-02,2.34799e+02
2.95281e-02,2.20595e+02
3.00485e-02,2.07232e+02
3.05780e-02,1.94659e+02
3.11168e-02,1.82833e+02
3.16652e-02,1.71709e+02
3.22232e-02,1.61246e+02
3.27910e-02,1.51408e+02
3.33688e-02,1.42156e+02
3.39569e-02,1.33458e+02
3.45552e-02,1.25280e+02
3.51642e-02,1.17593e+02
3.57838e-02,1.10367e+02
3.64144e-02,1.03576e+02
3.70561e-02,9.71931e+01
3.77091e-02,9.11952e+01
3.83736e-02,8.55592e+01
3.90498e-02,8.02638e+01
3.97380e-02,7.52888e+01
4.04382e-02,7.06151e+01
4.11508e-02,6.62248e+01
4.18760e-02,6.21011e+01
4.26139e-02,5.82280e+01
4.33649e-02,5.45905e+01
4.41290e-02,5.11746e+01
4.49067e-02,4.79669e+01
4.56980e-02,4.49550e+01
4.65033e-02,4.21270e+01
4.73228e-02,3.94720e+01
4.81567e-02,3.69794e+01
4.90053e-02,3.46396e+01
4.98689e-02,3.24432e+01
5.07477e-02,3.03815e+01
5.16420e-02,2.84465e+01
5.25520e-02,2.66304e+01
5.34781e-02,2.49260e+01
5.44205e-02,2.33265e+01
5.53795e-02,2.18256e+01
5.63553e-02,2.04171e+01
5.73484e-02,1.90956e+01
5.83590e-02,1.78557e+01
5.93874e-02,1.66923e+01
6.04340e-02,1.56009e+01
6.14989e-02,1.45770e+01
6.25827e-02,1.36164e+01
6.36855e-02,1.27154e+01
6.48077e-02,1.18701e+01
6.59498e-02,1.10773e+01
6.71119e-02,1.03337e+01
6.82946e-02,9.63622e+00
6.94981e-02,8.98207e+00
7.07228e-02,8.36856e+00
7.19690e-02,7.79320e+00
7.32373e-02,7.25362e+00
7.45279e-02,6.74762e+00
7.58412e-02,6.27312e+00
7.71777e-02,5.82817e+00
7.85377e-02,5.41095e+00
7.99217e-02,5.01974e+00
8.13301e-02,4.65293e+00
8.27632e-02,4.30900e+00
8.42217e-02,3.98654e+00
8.57058e-02,3.68421e+00
8.72162e-02,3.40076e+00
8.87531e-02,3.13503e+00
9.03171e-02,2.88591e+00
9.19086e-02,2.65236e+00
9.35283e-02,2.43342e+00
9.51764e-02,2.22818e+00
9.68536e-02,2.03578e+00
9.85603e-02,1.85543e+00
1.00297e-01,1.68638e+00
1.02065e-01,1.52791e+00
1.03863e-01,1.37937e+00
1.05693e-01,1.24015e+00
1.07556e-01,1.10965e+00
1.09451e-01,9.87337e-01
1.11380e-01,8.72695e-01
1.13343e-01,7.65246e-01
1.15340e-01,6.64541e-01
1.17373e-01,5.70156e-01
1.19441e-01,4.81698e-01
1.21546e-01,3.98794e-01
1.23688e-01,3.21098e-01
1.25867e-01,2.48283e-01
1.28085e-01,1.80044e-01
1.30342e-01,1.16093e-01
1.32639e-01,5.61626e-02
1.34977e-01,0.00000e+00
