m1=3298.109, m2=35.519, gsp=2.282, rhosp=4252.863
fGW[Hz],dPh[rad]
4.40966e-03,2.51469e+03
4.53818e-03,2.36415e+03
4.67044e-03,2.22261e+03
4.80656e-03,2.08954e+03
4.94665e-03,1.96442e+03
5.09082e-03,1.84679e+03
5.23919e-03,1.73619e+03
5.39188e-03,1.63221e+03
5.54903e-03,1.53445e+03
5.71075e-03,1.44253e+03
5.87719e-03,1.35611e+03
6.04848e-03,1.27486e+03
6.22476e-03,1.19847e+03
6.40618e-03,1.12665e+03
6.59289e-03,1.05912e+03
6.78504e-03,9.95636e+02
6.98278e-03,9.35949e+02
7.18630e-03,8.79833e+02
7.39574e-03,8.27074e+02
7.61129e-03,7.77472e+02
7.83311e-03,7.30838e+02
8.06141e-03,6.86995e+02
8.29636e-03,6.45775e+02
8.53815e-03,6.07023e+02
8.78699e-03,5.70590e+02
9.04309e-03,5.36337e+02
9.30665e-03,5.04135e+02
9.57789e-03,4.73861e+02
9.85703e-03,4.45399e+02
1.01443e-02,4.18641e+02
1.04400e-02,3.93485e+02
1.07442e-02,3.69836e+02
1.10574e-02,3.47603e+02
1.13796e-02,3.26701e+02
1.17113e-02,3.07052e+02
1.20526e-02,2.88579e+02
1.24039e-02,2.71214e+02
1.27654e-02,2.54888e+02
1.31374e-02,2.39541e+02
1.35203e-02,2.25114e+02
1.39144e-02,2.11552e+02
1.43199e-02,1.98802e+02
1.47373e-02,1.86817e+02
1.51668e-02,1.75551e+02
1.56088e-02,1.64960e+02
1.60637e-02,1.55004e+02
1.65319e-02,1.45646e+02
1.70137e-02,1.36849e+02
1.75096e-02,1.28580e+02
1.80199e-02,1.20808e+02
1.85451e-02,1.13501e+02
1.90856e-02,1.06634e+02
1.96418e-02,1.00179e+02
2.02143e-02,9.41117e+01
2.08034e-02,8.84089e+01
2.14097e-02,8.30488e+01
2.20337e-02,7.80109e+01
2.26759e-02,7.32759e+01
2.33367e-02,6.88256e+01
2.40169e-02,6.46430e+01
2.47168e-02,6.07121e+01
2.54372e-02,5.70178e+01
2.61786e-02,5.35459e+01
2.69415e-02,5.02830e+01
2.77267e-02,4.72168e+01
2.85348e-02,4.43353e+01
2.93665e-02,4.16276e+01
3.02224e-02,3.90831e+01
3.11032e-02,3.66922e+01
3.20097e-02,3.44455e+01
3.29426e-02,3.23345e+01
3.39027e-02,3.03510e+01
3.48908e-02,2.84874e+01
3.59077e-02,2.67365e+01
3.69542e-02,2.50915e+01
3.80312e-02,2.35460e+01
3.91396e-02,2.20942e+01
4.02803e-02,2.07303e+01
4.14543e-02,1.94491e+01
4.26625e-02,1.82456e+01
4.39058e-02,1.71151e+01
4.51855e-02,1.60533e+01
4.65024e-02,1.50561e+01
4.78577e-02,1.41195e+01
4.92525e-02,1.32399e+01
5.06879e-02,1.24138e+01
5.21652e-02,1.16382e+01
5.36856e-02,1.09098e+01
5.52502e-02,1.02260e+01
5.68605e-02,9.58389e+00
5.85177e-02,8.98109e+00
6.02231e-02,8.41520e+00
6.19783e-02,7.88399e+00
6.37847e-02,7.38538e+00
6.56437e-02,6.91739e+00
6.75568e-02,6.47818e+00
6.95258e-02,6.06601e+00
7.15521e-02,5.67924e+00
7.36374e-02,5.31634e+00
7.57836e-02,4.97586e+00
7.79923e-02,4.65646e+00
8.02654e-02,4.35684e+00
8.26047e-02,4.07582e+00
8.50122e-02,3.81226e+00
8.74898e-02,3.56511e+00
9.00397e-02,3.33337e+00
9.26639e-02,3.11609e+00
9.53645e-02,2.91242e+00
9.81439e-02,2.72151e+00
1.01004e-01,2.54258e+00
1.03948e-01,2.37492e+00
1.06978e-01,2.21782e+00
1.10095e-01,2.07065e+00
1.13304e-01,1.93280e+00
1.16606e-01,1.80369e+00
1.20005e-01,1.68280e+00
1.23502e-01,1.56961e+00
1.27102e-01,1.46366e+00
1.30806e-01,1.36449e+00
1.34618e-01,1.27170e+00
1.38542e-01,1.18489e+00
1.42580e-01,1.10368e+00
1.46735e-01,1.02774e+00
1.51012e-01,9.56733e-01
1.55413e-01,8.90355e-01
1.59942e-01,8.28319e-01
1.64604e-01,7.70354e-01
1.69401e-01,7.16206e-01
1.74338e-01,6.65636e-01
1.79419e-01,6.18420e-01
1.84648e-01,5.74347e-01
1.90030e-01,5.33219e-01
1.95568e-01,4.94850e-01
2.01268e-01,4.59066e-01
2.07134e-01,4.25702e-01
2.13171e-01,3.94604e-01
2.19384e-01,3.65628e-01
2.25778e-01,3.38638e-01
2.32358e-01,3.13506e-01
2.39130e-01,2.90112e-01
2.46099e-01,2.68344e-01
2.53272e-01,2.48096e-01
2.60653e-01,2.29270e-01
2.68250e-01,2.11771e-01
2.76068e-01,1.95514e-01
2.84114e-01,1.80416e-01
2.92394e-01,1.66400e-01
3.00916e-01,1.53394e-01
3.09686e-01,1.41330e-01
3.18712e-01,1.30146e-01
3.28001e-01,1.19782e-01
3.37560e-01,1.10182e-01
3.47398e-01,1.01294e-01
3.57523e-01,9.30693e-02
3.67943e-01,8.54618e-02
3.78667e-01,7.84287e-02
3.89703e-01,7.19300e-02
4.01061e-01,6.59282e-02
4.12750e-01,6.03879e-02
4.24779e-01,5.52766e-02
4.37159e-01,5.05633e-02
4.49900e-01,4.62195e-02
4.63012e-01,4.22183e-02
4.76507e-01,3.85346e-02
4.90394e-01,3.51452e-02
5.04687e-01,3.20283e-02
5.19396e-01,2.91634e-02
5.34533e-01,2.65317e-02
5.50112e-01,2.41156e-02
5.66145e-01,2.18985e-02
5.82645e-01,1.98653e-02
5.99626e-01,1.80017e-02
6.17102e-01,1.62946e-02
6.35087e-01,1.47316e-02
6.53597e-01,1.33013e-02
6.72646e-01,1.19933e-02
6.92250e-01,1.07976e-02
7.12425e-01,9.70534e-03
7.33189e-01,8.70799e-03
7.54558e-01,7.79780e-03
7.76549e-01,6.96761e-03
7.99181e-01,6.21076e-03
8.22473e-01,5.52114e-03
8.46444e-01,4.89308e-03
8.71113e-01,4.32137e-03
8.96502e-01,3.80123e-03
9.22630e-01,3.32821e-03
9.49520e-01,2.89825e-03
9.77193e-01,2.50762e-03
1.00567e+00,2.15288e-03
1.03498e+00,1.83088e-03
1.06515e+00,1.53871e-03
1.09619e+00,1.27374e-03
1.12814e+00,1.03352e-03
1.16102e+00,8.15838e-04
1.19486e+00,6.18653e-04
1.22968e+00,4.40105e-04
1.26552e+00,2.78493e-04
1.30240e+00,1.32263e-04
1.34036e+00,0.00000e+00
