m1=2263.310, m2=18.364, gsp=2.379, rhosp=1298.004
fGW[Hz],dPh[rad]
6.20264e-03,1.62079e+04
6.38450e-03,1.52601e+04
6.57170e-03,1.43676e+04
6.76439e-03,1.35273e+04
6.96273e-03,1.27360e+04
7.16688e-03,1.19909e+04
7.37702e-03,1.12894e+04
7.59332e-03,1.06288e+04
7.81596e-03,1.00068e+04
8.04513e-03,9.42118e+03
8.28102e-03,8.86974e+03
8.52382e-03,8.35050e+03
8.77375e-03,7.86160e+03
9.03100e-03,7.40127e+03
9.29580e-03,6.96782e+03
9.56836e-03,6.55970e+03
9.84891e-03,6.17543e+03
1.01377e-02,5.81361e+03
1.04349e-02,5.47293e+03
1.07409e-02,5.15217e+03
1.10558e-02,4.85015e+03
1.13800e-02,4.56578e+03
1.17137e-02,4.29803e+03
1.20571e-02,4.04593e+03
1.24106e-02,3.80858e+03
1.27745e-02,3.58509e+03
1.31491e-02,3.37468e+03
1.35346e-02,3.17657e+03
1.39315e-02,2.99004e+03
1.43399e-02,2.81442e+03
1.47604e-02,2.64908e+03
1.51932e-02,2.49340e+03
1.56387e-02,2.34683e+03
1.60972e-02,2.20884e+03
1.65692e-02,2.07893e+03
1.70550e-02,1.95661e+03
1.75551e-02,1.84146e+03
1.80698e-02,1.73304e+03
1.85996e-02,1.63097e+03
1.91450e-02,1.53488e+03
1.97063e-02,1.44442e+03
2.02841e-02,1.35925e+03
2.08789e-02,1.27907e+03
2.14911e-02,1.20359e+03
2.21212e-02,1.13253e+03
2.27698e-02,1.06564e+03
2.34374e-02,1.00267e+03
2.41246e-02,9.43390e+02
2.48320e-02,8.87587e+02
2.55601e-02,8.35057e+02
2.63095e-02,7.85609e+02
2.70809e-02,7.39063e+02
2.78750e-02,6.95248e+02
2.86923e-02,6.54006e+02
2.95336e-02,6.15186e+02
3.03995e-02,5.78646e+02
3.12908e-02,5.44254e+02
3.22083e-02,5.11882e+02
3.31527e-02,4.81414e+02
3.41247e-02,4.52738e+02
3.51253e-02,4.25749e+02
3.61552e-02,4.00348e+02
3.72153e-02,3.76443e+02
3.83065e-02,3.53946e+02
3.94297e-02,3.32774e+02
4.05858e-02,3.12850e+02
4.17758e-02,2.94102e+02
4.30007e-02,2.76459e+02
4.42615e-02,2.59857e+02
4.55593e-02,2.44236e+02
4.68951e-02,2.29538e+02
4.82701e-02,2.15709e+02
4.96854e-02,2.02698e+02
5.11422e-02,1.90456e+02
5.26418e-02,1.78940e+02
5.41853e-02,1.68106e+02
5.57740e-02,1.57914e+02
5.74093e-02,1.48327e+02
5.90926e-02,1.39309e+02
6.08253e-02,1.30827e+02
6.26087e-02,1.22850e+02
6.44444e-02,1.15347e+02
6.63340e-02,1.08291e+02
6.82790e-02,1.01655e+02
7.02810e-02,9.54154e+01
7.23416e-02,8.95484e+01
7.44628e-02,8.40320e+01
7.66461e-02,7.88457e+01
7.88934e-02,7.39701e+01
8.12066e-02,6.93868e+01
8.35876e-02,6.50786e+01
8.60385e-02,6.10294e+01
8.85612e-02,5.72237e+01
9.11579e-02,5.36474e+01
9.38307e-02,5.02868e+01
9.65819e-02,4.71293e+01
9.94137e-02,4.41627e+01
1.02329e-01,4.13759e+01
1.05329e-01,3.87582e+01
1.08417e-01,3.62996e+01
1.11596e-01,3.39906e+01
1.14868e-01,3.18225e+01
1.18236e-01,2.97868e+01
1.21703e-01,2.78757e+01
1.25271e-01,2.60818e+01
1.28945e-01,2.43981e+01
1.32725e-01,2.28180e+01
1.36617e-01,2.13355e+01
1.40623e-01,1.99446e+01
1.44746e-01,1.86399e+01
1.48990e-01,1.74163e+01
1.53358e-01,1.62689e+01
1.57855e-01,1.51931e+01
1.62483e-01,1.41847e+01
1.67247e-01,1.32396e+01
1.72151e-01,1.23540e+01
1.77199e-01,1.15243e+01
1.82394e-01,1.07471e+01
1.87742e-01,1.00193e+01
1.93247e-01,9.33785e+00
1.98913e-01,8.69999e+00
2.04746e-01,8.10305e+00
2.10749e-01,7.54454e+00
2.16928e-01,7.02212e+00
2.23289e-01,6.53358e+00
2.29836e-01,6.07685e+00
2.36575e-01,5.64997e+00
2.43511e-01,5.25111e+00
2.50651e-01,4.87853e+00
2.58000e-01,4.53062e+00
2.65565e-01,4.20583e+00
2.73352e-01,3.90273e+00
2.81367e-01,3.61996e+00
2.89617e-01,3.35626e+00
2.98108e-01,3.11042e+00
3.06849e-01,2.88131e+00
3.15846e-01,2.66788e+00
3.25107e-01,2.46913e+00
3.34639e-01,2.28411e+00
3.44451e-01,2.11196e+00
3.54551e-01,1.95184e+00
3.64946e-01,1.80298e+00
3.75647e-01,1.66463e+00
3.86661e-01,1.53612e+00
3.97998e-01,1.41680e+00
4.09668e-01,1.30607e+00
4.21680e-01,1.20335e+00
4.34044e-01,1.10811e+00
4.46770e-01,1.01984e+00
4.59870e-01,9.38085e-01
4.73354e-01,8.62393e-01
4.87233e-01,7.92352e-01
5.01519e-01,7.27574e-01
5.16224e-01,6.67694e-01
5.31360e-01,6.12371e-01
5.46940e-01,5.61286e-01
5.62976e-01,5.14140e-01
5.79483e-01,4.70653e-01
5.96474e-01,4.30562e-01
6.13963e-01,3.93624e-01
6.31965e-01,3.59608e-01
6.50495e-01,3.28302e-01
6.69568e-01,2.99506e-01
6.89200e-01,2.73033e-01
7.09408e-01,2.48710e-01
7.30208e-01,2.26375e-01
7.51618e-01,2.05876e-01
7.73656e-01,1.87074e-01
7.96341e-01,1.69837e-01
8.19690e-01,1.54044e-01
8.43724e-01,1.39582e-01
8.68462e-01,1.26347e-01
8.93926e-01,1.14240e-01
9.20137e-01,1.03172e-01
9.47116e-01,9.30586e-02
9.74886e-01,8.38227e-02
1.00347e+00,7.53926e-02
1.03289e+00,6.77018e-02
1.06318e+00,6.06892e-02
1.09435e+00,5.42981e-02
1.12644e+00,4.84763e-02
1.15947e+00,4.31757e-02
1.19346e+00,3.83520e-02
1.22846e+00,3.39642e-02
1.26448e+00,2.99749e-02
1.30155e+00,2.63494e-02
1.33971e+00,2.30560e-02
1.37899e+00,2.00656e-02
1.41943e+00,1.73515e-02
1.46105e+00,1.48891e-02
1.50389e+00,1.26559e-02
1.54798e+00,1.06315e-02
1.59337e+00,8.79697e-03
1.64009e+00,7.13514e-03
1.68818e+00,5.63029e-03
1.73767e+00,4.26806e-03
1.78862e+00,3.03534e-03
1.84107e+00,1.92020e-03
1.89505e+00,9.11724e-04
1.95061e+00,0.00000e+00
