m1=9791.472, m2=81.775, gsp=2.448, rhosp=1095.239
fGW[Hz],dPh[rad]
2.45650e-03,2.75924e+04
2.52170e-03,2.61541e+04
2.58862e-03,2.47906e+04
2.65733e-03,2.34979e+04
2.72785e-03,2.22724e+04
2.80025e-03,2.11107e+04
2.87457e-03,2.00093e+04
2.95086e-03,1.89651e+04
3.02917e-03,1.79753e+04
3.10957e-03,1.70369e+04
3.19210e-03,1.61473e+04
3.27681e-03,1.53040e+04
3.36378e-03,1.45045e+04
3.45306e-03,1.37466e+04
3.54470e-03,1.30281e+04
3.63878e-03,1.23470e+04
3.73535e-03,1.17013e+04
3.83449e-03,1.10893e+04
3.93625e-03,1.05090e+04
4.04072e-03,9.95900e+03
4.14796e-03,9.43759e+03
4.25805e-03,8.94332e+03
4.37106e-03,8.47478e+03
4.48707e-03,8.03063e+03
4.60615e-03,7.60961e+03
4.72840e-03,7.21052e+03
4.85389e-03,6.83222e+03
4.98271e-03,6.47362e+03
5.11496e-03,6.13370e+03
5.25071e-03,5.81150e+03
5.39006e-03,5.50609e+03
5.53311e-03,5.21660e+03
5.67996e-03,4.94221e+03
5.83071e-03,4.68212e+03
5.98546e-03,4.43560e+03
6.14431e-03,4.20193e+03
6.30738e-03,3.98046e+03
6.47478e-03,3.77055e+03
6.64662e-03,3.57160e+03
6.82302e-03,3.38303e+03
7.00410e-03,3.20431e+03
7.18999e-03,3.03493e+03
7.38081e-03,2.87440e+03
7.57670e-03,2.72226e+03
7.77779e-03,2.57807e+03
7.98421e-03,2.44142e+03
8.19611e-03,2.31192e+03
8.41364e-03,2.18920e+03
8.63693e-03,2.07290e+03
8.86616e-03,1.96270e+03
9.10147e-03,1.85826e+03
9.34302e-03,1.75930e+03
9.59098e-03,1.66553e+03
9.84553e-03,1.57667e+03
1.01068e-02,1.49248e+03
1.03751e-02,1.41270e+03
1.06504e-02,1.33711e+03
1.09331e-02,1.26550e+03
1.12232e-02,1.19765e+03
1.15211e-02,1.13336e+03
1.18269e-02,1.07246e+03
1.21408e-02,1.01477e+03
1.24630e-02,9.60113e+02
1.27938e-02,9.08338e+02
1.31333e-02,8.59293e+02
1.34819e-02,8.12835e+02
1.38397e-02,7.68831e+02
1.42070e-02,7.27152e+02
1.45840e-02,6.87676e+02
1.49711e-02,6.50290e+02
1.53684e-02,6.14882e+02
1.57763e-02,5.81351e+02
1.61950e-02,5.49599e+02
1.66248e-02,5.19531e+02
1.70660e-02,4.91061e+02
1.75190e-02,4.64105e+02
1.79839e-02,4.38584e+02
1.84612e-02,4.14422e+02
1.89512e-02,3.91548e+02
1.94541e-02,3.69896e+02
1.99705e-02,3.49401e+02
2.05005e-02,3.30002e+02
2.10446e-02,3.11642e+02
2.16031e-02,2.94266e+02
2.21764e-02,2.77824e+02
2.27650e-02,2.62265e+02
2.33692e-02,2.47544e+02
2.39894e-02,2.33617e+02
2.46261e-02,2.20441e+02
2.52796e-02,2.07978e+02
2.59506e-02,1.96189e+02
2.66393e-02,1.85040e+02
2.73463e-02,1.74496e+02
2.80721e-02,1.64526e+02
2.88171e-02,1.55099e+02
2.95819e-02,1.46187e+02
3.03670e-02,1.37762e+02
3.11730e-02,1.29800e+02
3.20003e-02,1.22274e+02
3.28496e-02,1.15163e+02
3.37214e-02,1.08444e+02
3.46164e-02,1.02096e+02
3.55351e-02,9.60995e+01
3.64782e-02,9.04362e+01
3.74463e-02,8.50881e+01
3.84402e-02,8.00384e+01
3.94604e-02,7.52712e+01
4.05076e-02,7.07714e+01
4.15827e-02,6.65246e+01
4.26863e-02,6.25174e+01
4.38192e-02,5.87367e+01
4.49822e-02,5.51706e+01
4.61760e-02,5.18074e+01
4.74015e-02,4.86361e+01
4.86596e-02,4.56465e+01
4.99510e-02,4.28286e+01
5.12767e-02,4.01732e+01
5.26376e-02,3.76714e+01
5.40346e-02,3.53149e+01
5.54687e-02,3.30957e+01
5.69408e-02,3.10064e+01
5.84520e-02,2.90398e+01
6.00033e-02,2.71891e+01
6.15958e-02,2.54480e+01
6.32306e-02,2.38104e+01
6.49087e-02,2.22706e+01
6.66314e-02,2.08231e+01
6.83998e-02,1.94628e+01
7.02151e-02,1.81848e+01
7.20786e-02,1.69845e+01
7.39916e-02,1.58575e+01
7.59553e-02,1.47997e+01
7.79712e-02,1.38071e+01
8.00405e-02,1.28761e+01
8.21648e-02,1.20030e+01
8.43455e-02,1.11847e+01
8.65840e-02,1.04178e+01
8.88820e-02,9.69953e+00
9.12409e-02,9.02694e+00
9.36624e-02,8.39737e+00
9.61482e-02,7.80832e+00
9.87000e-02,7.25738e+00
1.01320e-01,6.74228e+00
1.04009e-01,6.26090e+00
1.06769e-01,5.81120e+00
1.09603e-01,5.39128e+00
1.12511e-01,4.99932e+00
1.15497e-01,4.63362e+00
1.18563e-01,4.29257e+00
1.21709e-01,3.97464e+00
1.24940e-01,3.67840e+00
1.28256e-01,3.40248e+00
1.31659e-01,3.14561e+00
1.35154e-01,2.90658e+00
1.38741e-01,2.68425e+00
1.42423e-01,2.47755e+00
1.46203e-01,2.28547e+00
1.50083e-01,2.10706e+00
1.54066e-01,1.94142e+00
1.58155e-01,1.78770e+00
1.62353e-01,1.64512e+00
1.66661e-01,1.51294e+00
1.71085e-01,1.39044e+00
1.75625e-01,1.27697e+00
1.80286e-01,1.17192e+00
1.85071e-01,1.07470e+00
1.89983e-01,9.84773e-01
1.95025e-01,9.01631e-01
2.00201e-01,8.24796e-01
2.05514e-01,7.53821e-01
2.10969e-01,6.88289e-01
2.16568e-01,6.27810e-01
2.22315e-01,5.72017e-01
2.28216e-01,5.20571e-01
2.34273e-01,4.73154e-01
2.40490e-01,4.29467e-01
2.46873e-01,3.89236e-01
2.53425e-01,3.52201e-01
2.60151e-01,3.18123e-01
2.67055e-01,2.86779e-01
2.74143e-01,2.57960e-01
2.81419e-01,2.31473e-01
2.88887e-01,2.07139e-01
2.96554e-01,1.84792e-01
3.04425e-01,1.64276e-01
3.12504e-01,1.45448e-01
3.20798e-01,1.28176e-01
3.29312e-01,1.12336e-01
3.38052e-01,9.78153e-02
3.47024e-01,8.45075e-02
3.56234e-01,7.23154e-02
3.65689e-01,6.11491e-02
3.75394e-01,5.09253e-02
3.85357e-01,4.15674e-02
3.95584e-01,3.30045e-02
4.06083e-01,2.51712e-02
4.16861e-01,1.80074e-02
4.27924e-01,1.14577e-02
4.39281e-01,5.47086e-03
4.50940e-01,0.00000e+00
