m1=704080.200, m2=17.824, gsp=2.202, rhosp=725.154
fGW[Hz],dPh[rad]
1.49203e-03,7.33867e+02
1.50280e-03,7.13832e+02
1.51365e-03,6.94340e+02
1.52458e-03,6.75376e+02
1.53559e-03,6.56926e+02
1.54668e-03,6.38976e+02
1.55785e-03,6.21512e+02
1.56909e-03,6.04522e+02
1.58042e-03,5.87993e+02
1.59183e-03,5.71912e+02
1.60333e-03,5.56267e+02
1.61490e-03,5.41047e+02
1.62656e-03,5.26239e+02
1.63831e-03,5.11834e+02
1.65014e-03,4.97819e+02
1.66205e-03,4.84184e+02
1.67405e-03,4.70920e+02
1.68614e-03,4.58016e+02
1.69831e-03,4.45462e+02
1.71058e-03,4.33249e+02
1.72293e-03,4.21367e+02
1.73537e-03,4.09809e+02
1.74790e-03,3.98564e+02
1.76052e-03,3.87625e+02
1.77323e-03,3.76983e+02
1.78603e-03,3.66630e+02
1.79893e-03,3.56558e+02
1.81192e-03,3.46760e+02
1.82500e-03,3.37229e+02
1.83817e-03,3.27956e+02
1.85145e-03,3.18936e+02
1.86481e-03,3.10161e+02
1.87828e-03,3.01624e+02
1.89184e-03,2.93320e+02
1.90550e-03,2.85242e+02
1.91926e-03,2.77383e+02
1.93312e-03,2.69738e+02
1.94707e-03,2.62301e+02
1.96113e-03,2.55066e+02
1.97529e-03,2.48028e+02
1.98955e-03,2.41182e+02
2.00392e-03,2.34522e+02
2.01839e-03,2.28043e+02
2.03296e-03,2.21741e+02
2.04764e-03,2.15610e+02
2.06242e-03,2.09646e+02
2.07732e-03,2.03845e+02
2.09231e-03,1.98201e+02
2.10742e-03,1.92711e+02
2.12264e-03,1.87371e+02
2.13796e-03,1.82176e+02
2.15340e-03,1.77123e+02
2.16895e-03,1.72207e+02
2.18461e-03,1.67425e+02
2.20038e-03,1.62773e+02
2.21627e-03,1.58249e+02
2.23227e-03,1.53847e+02
2.24839e-03,1.49566e+02
2.26462e-03,1.45401e+02
2.28097e-03,1.41349e+02
2.29744e-03,1.37408e+02
2.31403e-03,1.33575e+02
2.33074e-03,1.29846e+02
2.34757e-03,1.26218e+02
2.36452e-03,1.22690e+02
2.38159e-03,1.19258e+02
2.39879e-03,1.15919e+02
2.41611e-03,1.12671e+02
2.43355e-03,1.09512e+02
2.45112e-03,1.06440e+02
2.46882e-03,1.03450e+02
2.48665e-03,1.00543e+02
2.50460e-03,9.77147e+01
2.52268e-03,9.49637e+01
2.54090e-03,9.22877e+01
2.55924e-03,8.96847e+01
2.57772e-03,8.71527e+01
2.59633e-03,8.46899e+01
2.61508e-03,8.22942e+01
2.63396e-03,7.99639e+01
2.65298e-03,7.76972e+01
2.67213e-03,7.54924e+01
2.69143e-03,7.33478e+01
2.71086e-03,7.12617e+01
2.73043e-03,6.92325e+01
2.75015e-03,6.72588e+01
2.77001e-03,6.53389e+01
2.79001e-03,6.34715e+01
2.81015e-03,6.16550e+01
2.83044e-03,5.98882e+01
2.85088e-03,5.81695e+01
2.87146e-03,5.64979e+01
2.89219e-03,5.48718e+01
2.91308e-03,5.32902e+01
2.93411e-03,5.17518e+01
2.95529e-03,5.02554e+01
2.97663e-03,4.87999e+01
2.99812e-03,4.73841e+01
3.01977e-03,4.60070e+01
3.04158e-03,4.46676e+01
3.06354e-03,4.33647e+01
3.08566e-03,4.20974e+01
3.10793e-03,4.08648e+01
3.13038e-03,3.96658e+01
3.15298e-03,3.84996e+01
3.17574e-03,3.73653e+01
3.19867e-03,3.62619e+01
3.22177e-03,3.51887e+01
3.24503e-03,3.41449e+01
3.26846e-03,3.31295e+01
3.29206e-03,3.21420e+01
3.31583e-03,3.11814e+01
3.33977e-03,3.02470e+01
3.36388e-03,2.93383e+01
3.38817e-03,2.84543e+01
3.41263e-03,2.75945e+01
3.43728e-03,2.67583e+01
3.46209e-03,2.59449e+01
3.48709e-03,2.51537e+01
3.51227e-03,2.43841e+01
3.53763e-03,2.36356e+01
3.56317e-03,2.29076e+01
3.58890e-03,2.21995e+01
3.61481e-03,2.15107e+01
3.64091e-03,2.08408e+01
3.66720e-03,2.01892e+01
3.69368e-03,1.95554e+01
3.72035e-03,1.89390e+01
3.74721e-03,1.83394e+01
3.77426e-03,1.77562e+01
3.80151e-03,1.71889e+01
3.82896e-03,1.66372e+01
3.85661e-03,1.61006e+01
3.88445e-03,1.55786e+01
3.91250e-03,1.50709e+01
3.94075e-03,1.45771e+01
3.96920e-03,1.40969e+01
3.99786e-03,1.36297e+01
4.02673e-03,1.31754e+01
4.05580e-03,1.27334e+01
4.08509e-03,1.23036e+01
4.11458e-03,1.18855e+01
4.14429e-03,1.14789e+01
4.17421e-03,1.10834e+01
4.20435e-03,1.06987e+01
4.23471e-03,1.03245e+01
4.26528e-03,9.96059e+00
4.29608e-03,9.60662e+00
4.32710e-03,9.26234e+00
4.35834e-03,8.92748e+00
4.38981e-03,8.60179e+00
4.42151e-03,8.28501e+00
4.45343e-03,7.97690e+00
4.48558e-03,7.67722e+00
4.51797e-03,7.38575e+00
4.55059e-03,7.10225e+00
4.58345e-03,6.82651e+00
4.61654e-03,6.55832e+00
4.64988e-03,6.29747e+00
4.68345e-03,6.04376e+00
4.71726e-03,5.79700e+00
4.75132e-03,5.55699e+00
4.78563e-03,5.32355e+00
4.82018e-03,5.09650e+00
4.85499e-03,4.87567e+00
4.89004e-03,4.66088e+00
4.92535e-03,4.45197e+00
4.96091e-03,4.24878e+00
4.99673e-03,4.05116e+00
5.03281e-03,3.85895e+00
5.06915e-03,3.67199e+00
5.10575e-03,3.49016e+00
5.14261e-03,3.31331e+00
5.17974e-03,3.14130e+00
5.21714e-03,2.97400e+00
5.25481e-03,2.81128e+00
5.29275e-03,2.65301e+00
5.33097e-03,2.49908e+00
5.36946e-03,2.34936e+00
5.40823e-03,2.20375e+00
5.44728e-03,2.06212e+00
5.48661e-03,1.92437e+00
5.52622e-03,1.79039e+00
5.56612e-03,1.66008e+00
5.60631e-03,1.53334e+00
5.64679e-03,1.41008e+00
5.68756e-03,1.29018e+00
5.72863e-03,1.17357e+00
5.76999e-03,1.06016e+00
5.81165e-03,9.49849e-01
5.85361e-03,8.42561e-01
5.89588e-03,7.38212e-01
5.93845e-03,6.36721e-01
5.98132e-03,5.38009e-01
6.02451e-03,4.42002e-01
6.06801e-03,3.48624e-01
6.11182e-03,2.57804e-01
6.15595e-03,1.69472e-01
6.20040e-03,8.35593e-02
6.24517e-03,0.00000e+00
