m1=308631.339, m2=37.412, gsp=2.177, rhosp=531.525
fGW[Hz],dPh[rad]
1.38861e-03,1.30946e+03
1.40495e-03,1.25662e+03
1.42148e-03,1.20585e+03
1.43821e-03,1.15706e+03
1.45514e-03,1.11017e+03
1.47226e-03,1.06513e+03
1.48959e-03,1.02185e+03
1.50712e-03,9.80267e+02
1.52486e-03,9.40326e+02
1.54280e-03,9.01961e+02
1.56096e-03,8.65112e+02
1.57933e-03,8.29723e+02
1.59792e-03,7.95737e+02
1.61672e-03,7.63101e+02
1.63575e-03,7.31765e+02
1.65500e-03,7.01677e+02
1.67448e-03,6.72791e+02
1.69418e-03,6.45060e+02
1.71412e-03,6.18441e+02
1.73430e-03,5.92889e+02
1.75471e-03,5.68364e+02
1.77536e-03,5.44826e+02
1.79625e-03,5.22238e+02
1.81739e-03,5.00561e+02
1.83878e-03,4.79760e+02
1.86042e-03,4.59802e+02
1.88231e-03,4.40654e+02
1.90447e-03,4.22283e+02
1.92688e-03,4.04659e+02
1.94956e-03,3.87753e+02
1.97250e-03,3.71536e+02
1.99571e-03,3.55982e+02
2.01920e-03,3.41064e+02
2.04296e-03,3.26757e+02
2.06701e-03,3.13036e+02
2.09133e-03,2.99879e+02
2.11595e-03,2.87263e+02
2.14085e-03,2.75166e+02
2.16604e-03,2.63567e+02
2.19153e-03,2.52447e+02
2.21733e-03,2.41787e+02
2.24342e-03,2.31567e+02
2.26982e-03,2.21771e+02
2.29654e-03,2.12381e+02
2.32356e-03,2.03381e+02
2.35091e-03,1.94755e+02
2.37857e-03,1.86487e+02
2.40657e-03,1.78564e+02
2.43489e-03,1.70972e+02
2.46355e-03,1.63696e+02
2.49254e-03,1.56724e+02
2.52187e-03,1.50044e+02
2.55155e-03,1.43643e+02
2.58158e-03,1.37511e+02
2.61196e-03,1.31636e+02
2.64270e-03,1.26008e+02
2.67380e-03,1.20616e+02
2.70527e-03,1.15451e+02
2.73711e-03,1.10504e+02
2.76932e-03,1.05765e+02
2.80191e-03,1.01226e+02
2.83489e-03,9.68788e+01
2.86825e-03,9.27153e+01
2.90200e-03,8.87279e+01
2.93616e-03,8.49094e+01
2.97071e-03,8.12526e+01
3.00567e-03,7.77509e+01
3.04105e-03,7.43978e+01
3.07683e-03,7.11871e+01
3.11305e-03,6.81129e+01
3.14968e-03,6.51695e+01
3.18675e-03,6.23514e+01
3.22425e-03,5.96533e+01
3.26220e-03,5.70703e+01
3.30059e-03,5.45975e+01
3.33943e-03,5.22303e+01
3.37873e-03,4.99642e+01
3.41850e-03,4.77950e+01
3.45873e-03,4.57186e+01
3.49943e-03,4.37311e+01
3.54062e-03,4.18288e+01
3.58229e-03,4.00080e+01
3.62445e-03,3.82653e+01
3.66710e-03,3.65974e+01
3.71026e-03,3.50011e+01
3.75392e-03,3.34735e+01
3.79810e-03,3.20115e+01
3.84280e-03,3.06124e+01
3.88802e-03,2.92736e+01
3.93378e-03,2.79924e+01
3.98008e-03,2.67665e+01
4.02692e-03,2.55934e+01
4.07431e-03,2.44709e+01
4.12226e-03,2.33969e+01
4.17077e-03,2.23693e+01
4.21986e-03,2.13860e+01
4.26952e-03,2.04453e+01
4.31977e-03,1.95453e+01
4.37060e-03,1.86842e+01
4.42204e-03,1.78604e+01
4.47408e-03,1.70722e+01
4.52674e-03,1.63183e+01
4.58001e-03,1.55970e+01
4.63391e-03,1.49070e+01
4.68845e-03,1.42469e+01
4.74362e-03,1.36155e+01
4.79945e-03,1.30115e+01
4.85593e-03,1.24337e+01
4.91308e-03,1.18811e+01
4.97090e-03,1.13525e+01
5.02940e-03,1.08469e+01
5.08859e-03,1.03633e+01
5.14848e-03,9.90069e+00
5.20907e-03,9.45827e+00
5.27037e-03,9.03512e+00
5.33240e-03,8.63041e+00
5.39515e-03,8.24334e+00
5.45865e-03,7.87316e+00
5.52289e-03,7.51911e+00
5.58789e-03,7.18052e+00
5.65365e-03,6.85671e+00
5.72018e-03,6.54704e+00
5.78750e-03,6.25089e+00
5.85561e-03,5.96768e+00
5.92453e-03,5.69685e+00
5.99425e-03,5.43786e+00
6.06480e-03,5.19019e+00
6.13617e-03,4.95336e+00
6.20839e-03,4.72689e+00
6.28145e-03,4.51033e+00
6.35538e-03,4.30326e+00
6.43017e-03,4.10525e+00
6.50584e-03,3.91591e+00
6.58241e-03,3.73487e+00
6.65988e-03,3.56176e+00
6.73825e-03,3.39624e+00
6.81755e-03,3.23798e+00
6.89779e-03,3.08666e+00
6.97897e-03,2.94198e+00
7.06110e-03,2.80364e+00
7.14420e-03,2.67138e+00
7.22828e-03,2.54492e+00
7.31335e-03,2.42401e+00
7.39941e-03,2.30841e+00
7.48650e-03,2.19789e+00
7.57460e-03,2.09223e+00
7.66375e-03,1.99121e+00
7.75394e-03,1.89463e+00
7.84519e-03,1.80229e+00
7.93752e-03,1.71401e+00
8.03093e-03,1.62962e+00
8.12545e-03,1.54894e+00
8.22107e-03,1.47180e+00
8.31782e-03,1.39806e+00
8.41571e-03,1.32757e+00
8.51476e-03,1.26017e+00
8.61496e-03,1.19575e+00
8.71635e-03,1.13416e+00
8.81893e-03,1.07528e+00
8.92272e-03,1.01900e+00
9.02773e-03,9.65194e-01
9.13397e-03,9.13760e-01
9.24147e-03,8.64592e-01
9.35023e-03,8.17590e-01
9.46027e-03,7.72660e-01
9.57160e-03,7.29711e-01
9.68425e-03,6.88655e-01
9.79822e-03,6.49410e-01
9.91353e-03,6.11895e-01
1.00302e-02,5.76034e-01
1.01482e-02,5.41756e-01
1.02677e-02,5.08989e-01
1.03885e-02,4.77668e-01
1.05108e-02,4.47730e-01
1.06345e-02,4.19112e-01
1.07596e-02,3.91758e-01
1.08863e-02,3.65611e-01
1.10144e-02,3.40618e-01
1.11440e-02,3.16729e-01
1.12751e-02,2.93895e-01
1.14078e-02,2.72069e-01
1.15421e-02,2.51207e-01
1.16779e-02,2.31266e-01
1.18154e-02,2.12206e-01
1.19544e-02,1.93989e-01
1.20951e-02,1.76576e-01
1.22374e-02,1.59932e-01
1.23815e-02,1.44024e-01
1.25272e-02,1.28819e-01
1.26746e-02,1.14287e-01
1.28238e-02,1.00396e-01
1.29747e-02,8.71197e-02
1.31274e-02,7.44302e-02
1.32819e-02,6.23017e-02
1.34382e-02,5.07096e-02
1.35963e-02,3.96300e-02
1.37563e-02,2.90404e-02
1.39182e-02,1.89192e-02
1.40820e-02,9.24566e-03
1.42478e-02,0.00000e+00
