m1=144723.708, m2=13.873, gsp=2.262, rhosp=2458.763
fGW[Hz],dPh[rad]
2.43425e-03,1.42326e+04
2.46532e-03,1.36255e+04
2.49679e-03,1.30432e+04
2.52867e-03,1.24849e+04
2.56094e-03,1.19497e+04
2.59364e-03,1.14365e+04
2.62675e-03,1.09446e+04
2.66028e-03,1.04731e+04
2.69424e-03,1.00212e+04
2.72863e-03,9.58814e+03
2.76346e-03,9.17315e+03
2.79874e-03,8.77553e+03
2.83447e-03,8.39457e+03
2.87065e-03,8.02962e+03
2.90730e-03,7.68002e+03
2.94441e-03,7.34517e+03
2.98200e-03,7.02445e+03
3.02007e-03,6.71732e+03
3.05862e-03,6.42320e+03
3.09766e-03,6.14159e+03
3.13721e-03,5.87195e+03
3.17725e-03,5.61381e+03
3.21781e-03,5.36670e+03
3.25889e-03,5.13016e+03
3.30049e-03,4.90375e+03
3.34263e-03,4.68707e+03
3.38530e-03,4.47971e+03
3.42851e-03,4.28127e+03
3.47228e-03,4.09140e+03
3.51660e-03,3.90973e+03
3.56150e-03,3.73593e+03
3.60696e-03,3.56966e+03
3.65301e-03,3.41061e+03
3.69964e-03,3.25848e+03
3.74687e-03,3.11297e+03
3.79470e-03,2.97380e+03
3.84314e-03,2.84072e+03
3.89220e-03,2.71346e+03
3.94188e-03,2.59177e+03
3.99220e-03,2.47542e+03
4.04317e-03,2.36418e+03
4.09478e-03,2.25783e+03
4.14705e-03,2.15617e+03
4.19999e-03,2.05899e+03
4.25361e-03,1.96610e+03
4.30791e-03,1.87732e+03
4.36290e-03,1.79246e+03
4.41860e-03,1.71137e+03
4.47500e-03,1.63388e+03
4.53213e-03,1.55983e+03
4.58998e-03,1.48908e+03
4.64858e-03,1.42147e+03
4.70792e-03,1.35689e+03
4.76802e-03,1.29518e+03
4.82888e-03,1.23623e+03
4.89053e-03,1.17992e+03
4.95296e-03,1.12613e+03
5.01619e-03,1.07475e+03
5.08022e-03,1.02567e+03
5.14507e-03,9.78805e+02
5.21075e-03,9.34044e+02
5.27727e-03,8.91297e+02
5.34464e-03,8.50476e+02
5.41286e-03,8.11496e+02
5.48196e-03,7.74275e+02
5.55194e-03,7.38736e+02
5.62282e-03,7.04804e+02
5.69460e-03,6.72408e+02
5.76729e-03,6.41480e+02
5.84091e-03,6.11953e+02
5.91548e-03,5.83767e+02
5.99099e-03,5.56860e+02
6.06747e-03,5.31177e+02
6.14492e-03,5.06661e+02
6.22337e-03,4.83262e+02
6.30281e-03,4.60929e+02
6.38327e-03,4.39614e+02
6.46476e-03,4.19271e+02
6.54728e-03,3.99858e+02
6.63086e-03,3.81331e+02
6.71551e-03,3.63652e+02
6.80124e-03,3.46781e+02
6.88806e-03,3.30683e+02
6.97599e-03,3.15322e+02
7.06504e-03,3.00666e+02
7.15523e-03,2.86682e+02
7.24657e-03,2.73340e+02
7.33908e-03,2.60611e+02
7.43277e-03,2.48467e+02
7.52765e-03,2.36881e+02
7.62374e-03,2.25828e+02
7.72107e-03,2.15285e+02
7.81963e-03,2.05227e+02
7.91945e-03,1.95633e+02
8.02055e-03,1.86481e+02
8.12293e-03,1.77751e+02
8.22663e-03,1.69425e+02
8.33165e-03,1.61483e+02
8.43800e-03,1.53908e+02
8.54572e-03,1.46683e+02
8.65481e-03,1.39793e+02
8.76529e-03,1.33221e+02
8.87719e-03,1.26954e+02
8.99051e-03,1.20977e+02
9.10528e-03,1.15277e+02
9.22151e-03,1.09841e+02
9.33923e-03,1.04658e+02
9.45845e-03,9.97145e+01
9.57920e-03,9.50009e+01
9.70148e-03,9.05062e+01
9.82532e-03,8.62204e+01
9.95075e-03,8.21337e+01
1.00778e-02,7.82371e+01
1.02064e-02,7.45217e+01
1.03367e-02,7.09792e+01
1.04687e-02,6.76016e+01
1.06023e-02,6.43812e+01
1.07377e-02,6.13109e+01
1.08747e-02,5.83836e+01
1.10135e-02,5.55927e+01
1.11541e-02,5.29320e+01
1.12965e-02,5.03954e+01
1.14407e-02,4.79772e+01
1.15868e-02,4.56717e+01
1.17347e-02,4.34740e+01
1.18845e-02,4.13788e+01
1.20362e-02,3.93815e+01
1.21899e-02,3.74776e+01
1.23455e-02,3.56626e+01
1.25031e-02,3.39325e+01
1.26627e-02,3.22833e+01
1.28243e-02,3.07112e+01
1.29880e-02,2.92127e+01
1.31538e-02,2.77843e+01
1.33217e-02,2.64228e+01
1.34918e-02,2.51250e+01
1.36640e-02,2.38880e+01
1.38385e-02,2.27090e+01
1.40151e-02,2.15852e+01
1.41940e-02,2.05140e+01
1.43752e-02,1.94931e+01
1.45587e-02,1.85200e+01
1.47446e-02,1.75926e+01
1.49328e-02,1.67087e+01
1.51234e-02,1.58662e+01
1.53165e-02,1.50633e+01
1.55120e-02,1.42980e+01
1.57100e-02,1.35687e+01
1.59106e-02,1.28736e+01
1.61137e-02,1.22112e+01
1.63194e-02,1.15799e+01
1.65277e-02,1.09782e+01
1.67387e-02,1.04048e+01
1.69524e-02,9.85833e+00
1.71688e-02,9.33755e+00
1.73880e-02,8.84126e+00
1.76099e-02,8.36830e+00
1.78347e-02,7.91757e+00
1.80624e-02,7.48805e+00
1.82930e-02,7.07872e+00
1.85265e-02,6.68865e+00
1.87630e-02,6.31694e+00
1.90025e-02,5.96271e+00
1.92451e-02,5.62516e+00
1.94908e-02,5.30349e+00
1.97396e-02,4.99697e+00
1.99916e-02,4.70487e+00
2.02468e-02,4.42654e+00
2.05052e-02,4.16130e+00
2.07670e-02,3.90856e+00
2.10321e-02,3.66773e+00
2.13006e-02,3.43824e+00
2.15725e-02,3.21956e+00
2.18479e-02,3.01119e+00
2.21268e-02,2.81263e+00
2.24093e-02,2.62344e+00
2.26953e-02,2.44316e+00
2.29850e-02,2.27138e+00
2.32785e-02,2.10770e+00
2.35756e-02,1.95173e+00
2.38766e-02,1.80312e+00
2.41814e-02,1.66152e+00
2.44901e-02,1.52659e+00
2.48027e-02,1.39803e+00
2.51193e-02,1.27554e+00
2.54400e-02,1.15882e+00
2.57647e-02,1.04761e+00
2.60936e-02,9.41644e-01
2.64267e-02,8.40681e-01
2.67641e-02,7.44481e-01
2.71057e-02,6.52822e-01
2.74518e-02,5.65489e-01
2.78022e-02,4.82277e-01
2.81571e-02,4.02994e-01
2.85166e-02,3.27454e-01
2.88806e-02,2.55480e-01
2.92493e-02,1.86904e-01
2.96226e-02,1.21566e-01
3.00008e-02,5.93129e-02
3.03838e-02,0.00000e+00
