m1=1182.896, m2=4.993, gsp=2.393, rhosp=183.512
fGW[Hz],dPh[rad]
1.18824e-02,3.85032e+04
1.22306e-02,3.62602e+04
1.25890e-02,3.41476e+04
1.29580e-02,3.21579e+04
1.33377e-02,3.02838e+04
1.37285e-02,2.85186e+04
1.41308e-02,2.68561e+04
1.45449e-02,2.52902e+04
1.49712e-02,2.38154e+04
1.54099e-02,2.24264e+04
1.58615e-02,2.11181e+04
1.63263e-02,1.98859e+04
1.68047e-02,1.87254e+04
1.72972e-02,1.76324e+04
1.78040e-02,1.66030e+04
1.83258e-02,1.56334e+04
1.88628e-02,1.47203e+04
1.94156e-02,1.38603e+04
1.99845e-02,1.30503e+04
2.05702e-02,1.22875e+04
2.11730e-02,1.15691e+04
2.17934e-02,1.08925e+04
2.24321e-02,1.02552e+04
2.30894e-02,9.65510e+03
2.37660e-02,9.08992e+03
2.44625e-02,8.55765e+03
2.51794e-02,8.05638e+03
2.59172e-02,7.58430e+03
2.66767e-02,7.13973e+03
2.74585e-02,6.72106e+03
2.82631e-02,6.32679e+03
2.90913e-02,5.95550e+03
2.99439e-02,5.60585e+03
3.08213e-02,5.27658e+03
3.17245e-02,4.96652e+03
3.26542e-02,4.67453e+03
3.36111e-02,4.39959e+03
3.45961e-02,4.14068e+03
3.56099e-02,3.89688e+03
3.66534e-02,3.66731e+03
3.77275e-02,3.45115e+03
3.88331e-02,3.24760e+03
3.99711e-02,3.05595e+03
4.11424e-02,2.87550e+03
4.23481e-02,2.70559e+03
4.35891e-02,2.54561e+03
4.48664e-02,2.39499e+03
4.61812e-02,2.25318e+03
4.75345e-02,2.11966e+03
4.89275e-02,1.99396e+03
5.03613e-02,1.87562e+03
5.18371e-02,1.76422e+03
5.33561e-02,1.65933e+03
5.49197e-02,1.56060e+03
5.65291e-02,1.46766e+03
5.81857e-02,1.38017e+03
5.98908e-02,1.29781e+03
6.16458e-02,1.22029e+03
6.34523e-02,1.14732e+03
6.53117e-02,1.07865e+03
6.72257e-02,1.01401e+03
6.91957e-02,9.53171e+02
7.12234e-02,8.95916e+02
7.33106e-02,8.42034e+02
7.54589e-02,7.91328e+02
7.76702e-02,7.43612e+02
7.99463e-02,6.98712e+02
8.22890e-02,6.56464e+02
8.47005e-02,6.16712e+02
8.71826e-02,5.79312e+02
8.97374e-02,5.44125e+02
9.23671e-02,5.11023e+02
9.50739e-02,4.79883e+02
9.78600e-02,4.50591e+02
1.00728e-01,4.23039e+02
1.03679e-01,3.97125e+02
1.06718e-01,3.72753e+02
1.09845e-01,3.49832e+02
1.13064e-01,3.28279e+02
1.16377e-01,3.08012e+02
1.19788e-01,2.88957e+02
1.23298e-01,2.71041e+02
1.26911e-01,2.54200e+02
1.30630e-01,2.38368e+02
1.34458e-01,2.23488e+02
1.38398e-01,2.09502e+02
1.42454e-01,1.96360e+02
1.46629e-01,1.84010e+02
1.50925e-01,1.72406e+02
1.55348e-01,1.61505e+02
1.59901e-01,1.51265e+02
1.64586e-01,1.41647e+02
1.69410e-01,1.32614e+02
1.74374e-01,1.24132e+02
1.79484e-01,1.16168e+02
1.84744e-01,1.08691e+02
1.90157e-01,1.01673e+02
1.95730e-01,9.50861e+01
2.01466e-01,8.89052e+01
2.07369e-01,8.31060e+01
2.13446e-01,7.76657e+01
2.19701e-01,7.25631e+01
2.26139e-01,6.77780e+01
2.32766e-01,6.32915e+01
2.39587e-01,5.90856e+01
2.46608e-01,5.51436e+01
2.53835e-01,5.14497e+01
2.61274e-01,4.79889e+01
2.68930e-01,4.47473e+01
2.76811e-01,4.17116e+01
2.84923e-01,3.88695e+01
2.93272e-01,3.62091e+01
3.01866e-01,3.37195e+01
3.10712e-01,3.13904e+01
3.19818e-01,2.92119e+01
3.29190e-01,2.71748e+01
3.38836e-01,2.52706e+01
3.48766e-01,2.34910e+01
3.58986e-01,2.18284e+01
3.69506e-01,2.02756e+01
3.80334e-01,1.88258e+01
3.91480e-01,1.74726e+01
4.02952e-01,1.62100e+01
4.14760e-01,1.50323e+01
4.26914e-01,1.39343e+01
4.39425e-01,1.29108e+01
4.52302e-01,1.19572e+01
4.65556e-01,1.10692e+01
4.79199e-01,1.02424e+01
4.93242e-01,9.47295e+00
5.07696e-01,8.75723e+00
5.22574e-01,8.09175e+00
5.37887e-01,7.47323e+00
5.53650e-01,6.89864e+00
5.69874e-01,6.36508e+00
5.86574e-01,5.86986e+00
6.03763e-01,5.41044e+00
6.21456e-01,4.98443e+00
6.39668e-01,4.58961e+00
6.58413e-01,4.22386e+00
6.77707e-01,3.88523e+00
6.97567e-01,3.57185e+00
7.18009e-01,3.28200e+00
7.39050e-01,3.01405e+00
7.60707e-01,2.76649e+00
7.82999e-01,2.53787e+00
8.05945e-01,2.32687e+00
8.29562e-01,2.13223e+00
8.53872e-01,1.95279e+00
8.78894e-01,1.78744e+00
9.04650e-01,1.63518e+00
9.31160e-01,1.49503e+00
9.58447e-01,1.36612e+00
9.86534e-01,1.24760e+00
1.01544e+00,1.13870e+00
1.04520e+00,1.03869e+00
1.07583e+00,9.46908e-01
1.10736e+00,8.62713e-01
1.13981e+00,7.85525e-01
1.17321e+00,7.14800e-01
1.20759e+00,6.50032e-01
1.24298e+00,5.90753e-01
1.27940e+00,5.36525e-01
1.31689e+00,4.86947e-01
1.35548e+00,4.41643e-01
1.39521e+00,4.00267e-01
1.43609e+00,3.62497e-01
1.47817e+00,3.28038e-01
1.52149e+00,2.96614e-01
1.56608e+00,2.67973e-01
1.61197e+00,2.41881e-01
1.65921e+00,2.18123e-01
1.70783e+00,1.96500e-01
1.75788e+00,1.76829e-01
1.80939e+00,1.58942e-01
1.86242e+00,1.42685e-01
1.91699e+00,1.27915e-01
1.97317e+00,1.14503e-01
2.03099e+00,1.02328e-01
2.09051e+00,9.12804e-02
2.15177e+00,8.12603e-02
2.21483e+00,7.21753e-02
2.27973e+00,6.39413e-02
2.34654e+00,5.64813e-02
2.41530e+00,4.97248e-02
2.48608e+00,4.36077e-02
2.55893e+00,3.80712e-02
2.63392e+00,3.30619e-02
2.71111e+00,2.85309e-02
2.79055e+00,2.44338e-02
2.87233e+00,2.07302e-02
2.95650e+00,1.73831e-02
3.04314e+00,1.43592e-02
3.13232e+00,1.16279e-02
3.22411e+00,9.16149e-03
3.31859e+00,6.93487e-03
3.41584e+00,4.92519e-03
3.51594e+00,3.11173e-03
3.61897e+00,1.47568e-03
3.72502e+00,0.00000e+00
