m1=657075.869, m2=30.610, gsp=2.165, rhosp=38.895
fGW[Hz],dPh[rad]
1.23939e-03,2.27989e+02
1.24994e-03,2.20734e+02
1.26057e-03,2.13708e+02
1.27130e-03,2.06903e+02
1.28212e-03,2.00312e+02
1.29303e-03,1.93930e+02
1.30403e-03,1.87749e+02
1.31513e-03,1.81763e+02
1.32632e-03,1.75966e+02
1.33761e-03,1.70352e+02
1.34899e-03,1.64916e+02
1.36047e-03,1.59652e+02
1.37205e-03,1.54554e+02
1.38373e-03,1.49617e+02
1.39550e-03,1.44837e+02
1.40738e-03,1.40208e+02
1.41935e-03,1.35725e+02
1.43143e-03,1.31385e+02
1.44361e-03,1.27182e+02
1.45590e-03,1.23112e+02
1.46829e-03,1.19171e+02
1.48078e-03,1.15356e+02
1.49338e-03,1.11661e+02
1.50609e-03,1.08084e+02
1.51891e-03,1.04620e+02
1.53183e-03,1.01266e+02
1.54487e-03,9.80188e+01
1.55802e-03,9.48746e+01
1.57127e-03,9.18304e+01
1.58465e-03,8.88830e+01
1.59813e-03,8.60292e+01
1.61173e-03,8.32663e+01
1.62545e-03,8.05912e+01
1.63928e-03,7.80012e+01
1.65323e-03,7.54937e+01
1.66730e-03,7.30661e+01
1.68149e-03,7.07157e+01
1.69579e-03,6.84402e+01
1.71023e-03,6.62372e+01
1.72478e-03,6.41044e+01
1.73946e-03,6.20396e+01
1.75426e-03,6.00406e+01
1.76919e-03,5.81054e+01
1.78424e-03,5.62319e+01
1.79943e-03,5.44182e+01
1.81474e-03,5.26624e+01
1.83018e-03,5.09626e+01
1.84576e-03,4.93170e+01
1.86146e-03,4.77241e+01
1.87731e-03,4.61819e+01
1.89328e-03,4.46891e+01
1.90939e-03,4.32440e+01
1.92564e-03,4.18450e+01
1.94203e-03,4.04908e+01
1.95855e-03,3.91798e+01
1.97522e-03,3.79108e+01
1.99203e-03,3.66824e+01
2.00898e-03,3.54932e+01
2.02608e-03,3.43421e+01
2.04332e-03,3.32279e+01
2.06071e-03,3.21493e+01
2.07824e-03,3.11052e+01
2.09593e-03,3.00946e+01
2.11377e-03,2.91163e+01
2.13175e-03,2.81694e+01
2.14989e-03,2.72528e+01
2.16819e-03,2.63656e+01
2.18664e-03,2.55068e+01
2.20525e-03,2.46755e+01
2.22401e-03,2.38709e+01
2.24294e-03,2.30920e+01
2.26203e-03,2.23382e+01
2.28128e-03,2.16085e+01
2.30069e-03,2.09022e+01
2.32027e-03,2.02186e+01
2.34001e-03,1.95569e+01
2.35993e-03,1.89164e+01
2.38001e-03,1.82965e+01
2.40026e-03,1.76965e+01
2.42069e-03,1.71158e+01
2.44129e-03,1.65537e+01
2.46206e-03,1.60097e+01
2.48302e-03,1.54831e+01
2.50415e-03,1.49734e+01
2.52546e-03,1.44802e+01
2.54695e-03,1.40027e+01
2.56862e-03,1.35406e+01
2.59048e-03,1.30934e+01
2.61252e-03,1.26605e+01
2.63476e-03,1.22415e+01
2.65718e-03,1.18361e+01
2.67979e-03,1.14436e+01
2.70259e-03,1.10638e+01
2.72559e-03,1.06962e+01
2.74879e-03,1.03404e+01
2.77218e-03,9.99602e+00
2.79577e-03,9.66275e+00
2.81956e-03,9.34020e+00
2.84355e-03,9.02803e+00
2.86775e-03,8.72591e+00
2.89216e-03,8.43351e+00
2.91677e-03,8.15052e+00
2.94159e-03,7.87665e+00
2.96662e-03,7.61159e+00
2.99187e-03,7.35506e+00
3.01733e-03,7.10679e+00
3.04300e-03,6.86652e+00
3.06890e-03,6.63399e+00
3.09502e-03,6.40894e+00
3.12135e-03,6.19115e+00
3.14792e-03,5.98037e+00
3.17470e-03,5.77638e+00
3.20172e-03,5.57897e+00
3.22897e-03,5.38792e+00
3.25644e-03,5.20302e+00
3.28416e-03,5.02408e+00
3.31210e-03,4.85091e+00
3.34029e-03,4.68333e+00
3.36871e-03,4.52114e+00
3.39738e-03,4.36418e+00
3.42629e-03,4.21229e+00
3.45545e-03,4.06529e+00
3.48486e-03,3.92303e+00
3.51451e-03,3.78537e+00
3.54442e-03,3.65214e+00
3.57458e-03,3.52320e+00
3.60500e-03,3.39843e+00
3.63568e-03,3.27768e+00
3.66662e-03,3.16083e+00
3.69782e-03,3.04775e+00
3.72929e-03,2.93832e+00
3.76102e-03,2.83241e+00
3.79303e-03,2.72993e+00
3.82531e-03,2.63075e+00
3.85786e-03,2.53477e+00
3.89069e-03,2.44190e+00
3.92380e-03,2.35202e+00
3.95719e-03,2.26504e+00
3.99086e-03,2.18087e+00
4.02483e-03,2.09941e+00
4.05908e-03,2.02059e+00
4.09362e-03,1.94431e+00
4.12845e-03,1.87049e+00
4.16359e-03,1.79906e+00
4.19902e-03,1.72994e+00
4.23475e-03,1.66305e+00
4.27079e-03,1.59831e+00
4.30713e-03,1.53567e+00
4.34378e-03,1.47505e+00
4.38075e-03,1.41639e+00
4.41803e-03,1.35963e+00
4.45563e-03,1.30470e+00
4.49354e-03,1.25154e+00
4.53178e-03,1.20010e+00
4.57035e-03,1.15033e+00
4.60924e-03,1.10216e+00
4.64846e-03,1.05555e+00
4.68802e-03,1.01044e+00
4.72791e-03,9.66796e-01
4.76815e-03,9.24559e-01
4.80872e-03,8.83687e-01
4.84965e-03,8.44137e-01
4.89092e-03,8.05864e-01
4.93254e-03,7.68829e-01
4.97451e-03,7.32991e-01
5.01684e-03,6.98312e-01
5.05954e-03,6.64754e-01
5.10259e-03,6.32281e-01
5.14601e-03,6.00857e-01
5.18981e-03,5.70450e-01
5.23397e-03,5.41026e-01
5.27851e-03,5.12553e-01
5.32343e-03,4.85001e-01
5.36873e-03,4.58340e-01
5.41442e-03,4.32541e-01
5.46049e-03,4.07577e-01
5.50696e-03,3.83420e-01
5.55383e-03,3.60044e-01
5.60109e-03,3.37424e-01
5.64875e-03,3.15536e-01
5.69682e-03,2.94356e-01
5.74530e-03,2.73861e-01
5.79419e-03,2.54029e-01
5.84350e-03,2.34839e-01
5.89323e-03,2.16269e-01
5.94338e-03,1.98301e-01
5.99395e-03,1.80913e-01
6.04496e-03,1.64088e-01
6.09640e-03,1.47808e-01
6.14828e-03,1.32054e-01
6.20060e-03,1.16810e-01
6.25337e-03,1.02059e-01
6.30658e-03,8.77853e-02
6.36025e-03,7.39736e-02
6.41438e-03,6.06090e-02
6.46896e-03,4.76768e-02
6.52401e-03,3.51631e-02
6.57953e-03,2.30544e-02
6.63552e-03,1.13376e-02
6.69199e-03,0.00000e+00
