m1=148741.409, m2=67.905, gsp=2.054, rhosp=6877.895
fGW[Hz],dPh[rad]
1.33280e-03,3.98333e+02
1.35372e-03,3.81199e+02
1.37497e-03,3.64758e+02
1.39655e-03,3.48984e+02
1.41847e-03,3.33852e+02
1.44074e-03,3.19336e+02
1.46335e-03,3.05413e+02
1.48632e-03,2.92060e+02
1.50965e-03,2.79256e+02
1.53335e-03,2.66979e+02
1.55742e-03,2.55209e+02
1.58187e-03,2.43926e+02
1.60670e-03,2.33112e+02
1.63192e-03,2.22748e+02
1.65753e-03,2.12816e+02
1.68355e-03,2.03300e+02
1.70998e-03,1.94183e+02
1.73682e-03,1.85450e+02
1.76408e-03,1.77086e+02
1.79177e-03,1.69076e+02
1.81990e-03,1.61406e+02
1.84846e-03,1.54063e+02
1.87748e-03,1.47033e+02
1.90695e-03,1.40304e+02
1.93688e-03,1.33865e+02
1.96729e-03,1.27703e+02
1.99817e-03,1.21807e+02
2.02953e-03,1.16167e+02
2.06139e-03,1.10772e+02
2.09375e-03,1.05613e+02
2.12661e-03,1.00679e+02
2.15999e-03,9.59625e+01
2.19390e-03,9.14532e+01
2.22834e-03,8.71431e+01
2.26331e-03,8.30241e+01
2.29884e-03,7.90882e+01
2.33493e-03,7.53278e+01
2.37158e-03,7.17357e+01
2.40880e-03,6.83048e+01
2.44661e-03,6.50285e+01
2.48502e-03,6.19002e+01
2.52403e-03,5.89136e+01
2.56364e-03,5.60629e+01
2.60389e-03,5.33423e+01
2.64476e-03,5.07462e+01
2.68627e-03,4.82693e+01
2.72844e-03,4.59065e+01
2.77127e-03,4.36529e+01
2.81477e-03,4.15039e+01
2.85895e-03,3.94548e+01
2.90383e-03,3.75014e+01
2.94941e-03,3.56395e+01
2.99571e-03,3.38650e+01
3.04273e-03,3.21742e+01
3.09049e-03,3.05634e+01
3.13900e-03,2.90290e+01
3.18828e-03,2.75676e+01
3.23832e-03,2.61760e+01
3.28915e-03,2.48511e+01
3.34078e-03,2.35899e+01
3.39322e-03,2.23894e+01
3.44649e-03,2.12471e+01
3.50059e-03,2.01601e+01
3.55553e-03,1.91261e+01
3.61134e-03,1.81426e+01
3.66803e-03,1.72072e+01
3.72561e-03,1.63178e+01
3.78409e-03,1.54723e+01
3.84349e-03,1.46685e+01
3.90382e-03,1.39046e+01
3.96510e-03,1.31787e+01
4.02734e-03,1.24890e+01
4.09055e-03,1.18339e+01
4.15476e-03,1.12116e+01
4.21998e-03,1.06206e+01
4.28622e-03,1.00595e+01
4.35350e-03,9.52679e+00
4.42184e-03,9.02113e+00
4.49125e-03,8.54122e+00
4.56175e-03,8.08581e+00
4.63335e-03,7.65373e+00
4.70608e-03,7.24383e+00
4.77995e-03,6.85505e+00
4.85498e-03,6.48633e+00
4.93119e-03,6.13671e+00
5.00859e-03,5.80523e+00
5.08721e-03,5.49101e+00
5.16707e-03,5.19318e+00
5.24817e-03,4.91094e+00
5.33056e-03,4.64349e+00
5.41423e-03,4.39011e+00
5.49922e-03,4.15009e+00
5.58554e-03,3.92274e+00
5.67321e-03,3.70744e+00
5.76226e-03,3.50357e+00
5.85271e-03,3.31055e+00
5.94458e-03,3.12783e+00
6.03789e-03,2.95487e+00
6.13267e-03,2.79118e+00
6.22894e-03,2.63628e+00
6.32671e-03,2.48972e+00
6.42602e-03,2.35106e+00
6.52689e-03,2.21990e+00
6.62934e-03,2.09584e+00
6.73340e-03,1.97851e+00
6.83910e-03,1.86757e+00
6.94645e-03,1.76267e+00
7.05549e-03,1.66350e+00
7.16624e-03,1.56975e+00
7.27872e-03,1.48114e+00
7.39298e-03,1.39740e+00
7.50902e-03,1.31826e+00
7.62689e-03,1.24349e+00
7.74661e-03,1.17284e+00
7.86821e-03,1.10610e+00
7.99172e-03,1.04306e+00
8.11716e-03,9.83517e-01
8.24458e-03,9.27283e-01
8.37399e-03,8.74180e-01
8.50544e-03,8.24039e-01
8.63895e-03,7.76698e-01
8.77455e-03,7.32005e-01
8.91228e-03,6.89817e-01
9.05218e-03,6.49995e-01
9.19427e-03,6.12410e-01
9.33859e-03,5.76941e-01
9.48518e-03,5.43469e-01
9.63407e-03,5.11887e-01
9.78529e-03,4.82089e-01
9.93889e-03,4.53976e-01
1.00949e-02,4.27456e-01
1.02534e-02,4.02440e-01
1.04143e-02,3.78845e-01
1.05778e-02,3.56591e-01
1.07438e-02,3.35604e-01
1.09125e-02,3.15813e-01
1.10838e-02,2.97152e-01
1.12577e-02,2.79556e-01
1.14345e-02,2.62966e-01
1.16139e-02,2.47326e-01
1.17962e-02,2.32582e-01
1.19814e-02,2.18684e-01
1.21695e-02,2.05584e-01
1.23605e-02,1.93237e-01
1.25545e-02,1.81600e-01
1.27516e-02,1.70634e-01
1.29517e-02,1.60299e-01
1.31551e-02,1.50561e-01
1.33615e-02,1.41385e-01
1.35713e-02,1.32739e-01
1.37843e-02,1.24593e-01
1.40007e-02,1.16919e-01
1.42204e-02,1.09690e-01
1.44437e-02,1.02879e-01
1.46704e-02,9.64640e-02
1.49007e-02,9.04213e-02
1.51346e-02,8.47297e-02
1.53721e-02,7.93692e-02
1.56134e-02,7.43206e-02
1.58585e-02,6.95659e-02
1.61074e-02,6.50884e-02
1.63603e-02,6.08719e-02
1.66171e-02,5.69015e-02
1.68779e-02,5.31629e-02
1.71428e-02,4.96427e-02
1.74119e-02,4.63283e-02
1.76852e-02,4.32077e-02
1.79629e-02,4.02698e-02
1.82448e-02,3.75039e-02
1.85312e-02,3.49000e-02
1.88221e-02,3.24488e-02
1.91175e-02,3.01413e-02
1.94176e-02,2.79693e-02
1.97224e-02,2.59248e-02
2.00320e-02,2.40003e-02
2.03464e-02,2.21890e-02
2.06658e-02,2.04841e-02
2.09902e-02,1.88795e-02
2.13197e-02,1.73694e-02
2.16543e-02,1.59481e-02
2.19943e-02,1.46105e-02
2.23395e-02,1.33518e-02
2.26902e-02,1.21672e-02
2.30463e-02,1.10525e-02
2.34081e-02,1.00036e-02
2.37755e-02,9.01652e-03
2.41487e-02,8.08773e-03
2.45278e-02,7.21379e-03
2.49128e-02,6.39147e-03
2.53038e-02,5.61774e-03
2.57010e-02,4.88975e-03
2.61045e-02,4.20481e-03
2.65142e-02,3.56038e-03
2.69304e-02,2.95407e-03
2.73531e-02,2.38365e-03
2.77825e-02,1.84700e-03
2.82186e-02,1.34213e-03
2.86615e-02,8.67166e-04
2.91114e-02,4.20342e-04
2.95684e-02,0.00000e+00
