m1=4024.517, m2=3.152, gsp=2.164, rhosp=125.035
fGW[Hz],dPh[rad]
1.03926e-02,1.94466e+03
1.06386e-02,1.84286e+03
1.08904e-02,1.74630e+03
1.11482e-02,1.65472e+03
1.14121e-02,1.56784e+03
1.16822e-02,1.48545e+03
1.19588e-02,1.40730e+03
1.22418e-02,1.33319e+03
1.25316e-02,1.26290e+03
1.28282e-02,1.19624e+03
1.31319e-02,1.13302e+03
1.34427e-02,1.07308e+03
1.37609e-02,1.01623e+03
1.40867e-02,9.62334e+02
1.44201e-02,9.11227e+02
1.47614e-02,8.62770e+02
1.51108e-02,8.16828e+02
1.54685e-02,7.73272e+02
1.58347e-02,7.31980e+02
1.62095e-02,6.92836e+02
1.65932e-02,6.55730e+02
1.69860e-02,6.20557e+02
1.73880e-02,5.87219e+02
1.77996e-02,5.55621e+02
1.82209e-02,5.25674e+02
1.86522e-02,4.97294e+02
1.90938e-02,4.70400e+02
1.95457e-02,4.44915e+02
2.00084e-02,4.20768e+02
2.04820e-02,3.97889e+02
2.09668e-02,3.76213e+02
2.14631e-02,3.55679e+02
2.19712e-02,3.36227e+02
2.24912e-02,3.17802e+02
2.30236e-02,3.00350e+02
2.35686e-02,2.83822e+02
2.41265e-02,2.68170e+02
2.46976e-02,2.53349e+02
2.52822e-02,2.39316e+02
2.58806e-02,2.26029e+02
2.64932e-02,2.13451e+02
2.71204e-02,2.01544e+02
2.77623e-02,1.90274e+02
2.84195e-02,1.79608e+02
2.90922e-02,1.69514e+02
2.97808e-02,1.59963e+02
3.04857e-02,1.50926e+02
3.12073e-02,1.42377e+02
3.19460e-02,1.34290e+02
3.27022e-02,1.26641e+02
3.34763e-02,1.19407e+02
3.42687e-02,1.12567e+02
3.50799e-02,1.06099e+02
3.59103e-02,9.99850e+01
3.67603e-02,9.42057e+01
3.76304e-02,8.87435e+01
3.85211e-02,8.35818e+01
3.94330e-02,7.87047e+01
4.03664e-02,7.40972e+01
4.13219e-02,6.97452e+01
4.23000e-02,6.56349e+01
4.33013e-02,6.17538e+01
4.43262e-02,5.80894e+01
4.53755e-02,5.46304e+01
4.64495e-02,5.13658e+01
4.75490e-02,4.82852e+01
4.86745e-02,4.53787e+01
4.98267e-02,4.26371e+01
5.10061e-02,4.00514e+01
5.22135e-02,3.76133e+01
5.34494e-02,3.53148e+01
5.47146e-02,3.31483e+01
5.60097e-02,3.11068e+01
5.73355e-02,2.91834e+01
5.86927e-02,2.73716e+01
6.00820e-02,2.56654e+01
6.15042e-02,2.40590e+01
6.29600e-02,2.25469e+01
6.44503e-02,2.11240e+01
6.59759e-02,1.97852e+01
6.75376e-02,1.85260e+01
6.91362e-02,1.73418e+01
7.07727e-02,1.62286e+01
7.24480e-02,1.51824e+01
7.41629e-02,1.41993e+01
7.59184e-02,1.32758e+01
7.77154e-02,1.24086e+01
7.95550e-02,1.15945e+01
8.14381e-02,1.08304e+01
8.33658e-02,1.01135e+01
8.53391e-02,9.44104e+00
8.73592e-02,8.81048e+00
8.94270e-02,8.21940e+00
9.15438e-02,7.66550e+00
9.37107e-02,7.14660e+00
9.59289e-02,6.66065e+00
9.81996e-02,6.20570e+00
1.00524e-01,5.77992e+00
1.02904e-01,5.38158e+00
1.05339e-01,5.00902e+00
1.07833e-01,4.66071e+00
1.10385e-01,4.33517e+00
1.12998e-01,4.03102e+00
1.15673e-01,3.74696e+00
1.18411e-01,3.48175e+00
1.21214e-01,3.23423e+00
1.24083e-01,3.00331e+00
1.27020e-01,2.78794e+00
1.30027e-01,2.58716e+00
1.33105e-01,2.40004e+00
1.36255e-01,2.22572e+00
1.39481e-01,2.06338e+00
1.42782e-01,1.91225e+00
1.46162e-01,1.77161e+00
1.49622e-01,1.64078e+00
1.53163e-01,1.51912e+00
1.56789e-01,1.40604e+00
1.60500e-01,1.30095e+00
1.64299e-01,1.20334e+00
1.68188e-01,1.11270e+00
1.72169e-01,1.02857e+00
1.76245e-01,9.50505e-01
1.80417e-01,8.78096e-01
1.84687e-01,8.10957e-01
1.89059e-01,7.48727e-01
1.93534e-01,6.91066e-01
1.98115e-01,6.37658e-01
2.02805e-01,5.88206e-01
2.07605e-01,5.42432e-01
2.12519e-01,5.00078e-01
2.17550e-01,4.60900e-01
2.22699e-01,4.24673e-01
2.27971e-01,3.91186e-01
2.33367e-01,3.60240e-01
2.38891e-01,3.31652e-01
2.44546e-01,3.05251e-01
2.50334e-01,2.80877e-01
2.56260e-01,2.58381e-01
2.62326e-01,2.37625e-01
2.68535e-01,2.18479e-01
2.74891e-01,2.00824e-01
2.81398e-01,1.84549e-01
2.88059e-01,1.69548e-01
2.94878e-01,1.55728e-01
3.01858e-01,1.42997e-01
3.09003e-01,1.31274e-01
3.16317e-01,1.20481e-01
3.23805e-01,1.10546e-01
3.31469e-01,1.01405e-01
3.39315e-01,9.29947e-02
3.47347e-01,8.52595e-02
3.55569e-01,7.81466e-02
3.63986e-01,7.16074e-02
3.72602e-01,6.55969e-02
3.81421e-01,6.00735e-02
3.90450e-01,5.49988e-02
3.99692e-01,5.03373e-02
4.09153e-01,4.60562e-02
4.18838e-01,4.21252e-02
4.28752e-01,3.85164e-02
4.38901e-01,3.52038e-02
4.49290e-01,3.21638e-02
4.59925e-01,2.93744e-02
4.70812e-01,2.68154e-02
4.81956e-01,2.44680e-02
4.93364e-01,2.23152e-02
5.05043e-01,2.03412e-02
5.16997e-01,1.85312e-02
5.29235e-01,1.68720e-02
5.41762e-01,1.53512e-02
5.54586e-01,1.39575e-02
5.67714e-01,1.26803e-02
5.81152e-01,1.15101e-02
5.94908e-01,1.04381e-02
6.08990e-01,9.45607e-03
6.23405e-01,8.55666e-03
6.38162e-01,7.73297e-03
6.53267e-01,6.97872e-03
6.68731e-01,6.28813e-03
6.84560e-01,5.65587e-03
7.00764e-01,5.07709e-03
7.17352e-01,4.54731e-03
7.34332e-01,4.06243e-03
7.51714e-01,3.61867e-03
7.69508e-01,3.21259e-03
7.87722e-01,2.84102e-03
8.06368e-01,2.50105e-03
8.25455e-01,2.19002e-03
8.44995e-01,1.90548e-03
8.64996e-01,1.64521e-03
8.85471e-01,1.40713e-03
9.06431e-01,1.18939e-03
9.27887e-01,9.90251e-04
9.49850e-01,8.08136e-04
9.72334e-01,6.41601e-04
9.95350e-01,4.89323e-04
1.01891e+00,3.50088e-04
1.04303e+00,2.22786e-04
1.06772e+00,1.06400e-04
1.09299e+00,0.00000e+00
