m1=2034.361, m2=19.588, gsp=2.360, rhosp=4362.960
fGW[Hz],dPh[rad]
6.21906e-03,1.27433e+04
6.40478e-03,1.19808e+04
6.59604e-03,1.12638e+04
6.79302e-03,1.05896e+04
6.99587e-03,9.95580e+03
7.20479e-03,9.35986e+03
7.41994e-03,8.79954e+03
7.64152e-03,8.27272e+03
7.86972e-03,7.77740e+03
8.10473e-03,7.31170e+03
8.34676e-03,6.87383e+03
8.59602e-03,6.46215e+03
8.85272e-03,6.07509e+03
9.11709e-03,5.71117e+03
9.38935e-03,5.36901e+03
9.66974e-03,5.04732e+03
9.95850e-03,4.74486e+03
1.02559e-02,4.46050e+03
1.05622e-02,4.19314e+03
1.08776e-02,3.94177e+03
1.12024e-02,3.70543e+03
1.15369e-02,3.48324e+03
1.18815e-02,3.27433e+03
1.22363e-02,3.07793e+03
1.26017e-02,2.89327e+03
1.29780e-02,2.71966e+03
1.33656e-02,2.55644e+03
1.37647e-02,2.40299e+03
1.41758e-02,2.25872e+03
1.45991e-02,2.12308e+03
1.50350e-02,1.99557e+03
1.54840e-02,1.87568e+03
1.59464e-02,1.76297e+03
1.64226e-02,1.65701e+03
1.69131e-02,1.55740e+03
1.74181e-02,1.46374e+03
1.79383e-02,1.37570e+03
1.84740e-02,1.29293e+03
1.90257e-02,1.21512e+03
1.95938e-02,1.14197e+03
2.01789e-02,1.07320e+03
2.07815e-02,1.00855e+03
2.14021e-02,9.47773e+02
2.20413e-02,8.90641e+02
2.26995e-02,8.36933e+02
2.33773e-02,7.86445e+02
2.40754e-02,7.38984e+02
2.47944e-02,6.94370e+02
2.55348e-02,6.52431e+02
2.62974e-02,6.13008e+02
2.70827e-02,5.75951e+02
2.78914e-02,5.41117e+02
2.87244e-02,5.08374e+02
2.95821e-02,4.77597e+02
3.04656e-02,4.48668e+02
3.13753e-02,4.21476e+02
3.23123e-02,3.95918e+02
3.32772e-02,3.71896e+02
3.42710e-02,3.49317e+02
3.52944e-02,3.28096e+02
3.63484e-02,3.08151e+02
3.74338e-02,2.89406e+02
3.85517e-02,2.71788e+02
3.97030e-02,2.55231e+02
4.08886e-02,2.39671e+02
4.21097e-02,2.25049e+02
4.33672e-02,2.11307e+02
4.46622e-02,1.98393e+02
4.59960e-02,1.86258e+02
4.73695e-02,1.74855e+02
4.87841e-02,1.64140e+02
5.02409e-02,1.54073e+02
5.17413e-02,1.44613e+02
5.32864e-02,1.35724e+02
5.48777e-02,1.27374e+02
5.65165e-02,1.19528e+02
5.82042e-02,1.12157e+02
5.99424e-02,1.05232e+02
6.17324e-02,9.87274e+01
6.35759e-02,9.26168e+01
6.54745e-02,8.68768e+01
6.74297e-02,8.14853e+01
6.94433e-02,7.64214e+01
7.15171e-02,7.16653e+01
7.36528e-02,6.71985e+01
7.58523e-02,6.30036e+01
7.81174e-02,5.90644e+01
8.04502e-02,5.53654e+01
8.28527e-02,5.18921e+01
8.53269e-02,4.86311e+01
8.78750e-02,4.55694e+01
9.04992e-02,4.26952e+01
9.32017e-02,3.99971e+01
9.59850e-02,3.74644e+01
9.88514e-02,3.50873e+01
1.01803e-01,3.28564e+01
1.04843e-01,3.07627e+01
1.07974e-01,2.87981e+01
1.11199e-01,2.69547e+01
1.14519e-01,2.52253e+01
1.17939e-01,2.36028e+01
1.21461e-01,2.20809e+01
1.25089e-01,2.06535e+01
1.28824e-01,1.93148e+01
1.32671e-01,1.80594e+01
1.36633e-01,1.68824e+01
1.40713e-01,1.57789e+01
1.44915e-01,1.47444e+01
1.49243e-01,1.37749e+01
1.53700e-01,1.28663e+01
1.58290e-01,1.20149e+01
1.63016e-01,1.12172e+01
1.67885e-01,1.04700e+01
1.72898e-01,9.77009e+00
1.78061e-01,9.11471e+00
1.83379e-01,8.50107e+00
1.88855e-01,7.92662e+00
1.94495e-01,7.38895e+00
2.00303e-01,6.88580e+00
2.06284e-01,6.41505e+00
2.12445e-01,5.97470e+00
2.18789e-01,5.56287e+00
2.25322e-01,5.17780e+00
2.32051e-01,4.81782e+00
2.38981e-01,4.48139e+00
2.46117e-01,4.16704e+00
2.53467e-01,3.87340e+00
2.61036e-01,3.59916e+00
2.68832e-01,3.34312e+00
2.76860e-01,3.10413e+00
2.85127e-01,2.88112e+00
2.93642e-01,2.67309e+00
3.02411e-01,2.47909e+00
3.11442e-01,2.29823e+00
3.20742e-01,2.12967e+00
3.30321e-01,1.97263e+00
3.40185e-01,1.82637e+00
3.50344e-01,1.69020e+00
3.60806e-01,1.56348e+00
3.71581e-01,1.44558e+00
3.82677e-01,1.33594e+00
3.94105e-01,1.23402e+00
4.05874e-01,1.13932e+00
4.17994e-01,1.05135e+00
4.30477e-01,9.69685e-01
4.43332e-01,8.93895e-01
4.56571e-01,8.23592e-01
4.70206e-01,7.58408e-01
4.84247e-01,6.97999e-01
4.98708e-01,6.42042e-01
5.13601e-01,5.90235e-01
5.28938e-01,5.42293e-01
5.44734e-01,4.97950e-01
5.61001e-01,4.56957e-01
5.77754e-01,4.19082e-01
5.95008e-01,3.84104e-01
6.12776e-01,3.51821e-01
6.31075e-01,3.22041e-01
6.49921e-01,2.94584e-01
6.69329e-01,2.69285e-01
6.89317e-01,2.45985e-01
7.09902e-01,2.24540e-01
7.31102e-01,2.04813e-01
7.52935e-01,1.86677e-01
7.75419e-01,1.70013e-01
7.98575e-01,1.54711e-01
8.22423e-01,1.40668e-01
8.46983e-01,1.27786e-01
8.72276e-01,1.15978e-01
8.98325e-01,1.05161e-01
9.25151e-01,9.52555e-02
9.52778e-01,8.61916e-02
9.81231e-01,7.79021e-02
1.01053e+00,7.03253e-02
1.04071e+00,6.34037e-02
1.07179e+00,5.70845e-02
1.10380e+00,5.13183e-02
1.13676e+00,4.60597e-02
1.17070e+00,4.12667e-02
1.20567e+00,3.69004e-02
1.24167e+00,3.29250e-02
1.27875e+00,2.93074e-02
1.31694e+00,2.60170e-02
1.35626e+00,2.30259e-02
1.39677e+00,2.03082e-02
1.43848e+00,1.78401e-02
1.48143e+00,1.55997e-02
1.52567e+00,1.35671e-02
1.57123e+00,1.17238e-02
1.61815e+00,1.00530e-02
1.66648e+00,8.53914e-03
1.71624e+00,7.16812e-03
1.76749e+00,5.92698e-03
1.82028e+00,4.80387e-03
1.87464e+00,3.78799e-03
1.93062e+00,2.86945e-03
1.98827e+00,2.03924e-03
2.04765e+00,1.28914e-03
2.10879e+00,6.11669e-04
2.17177e+00,0.00000e+00
