m1=2201.347, m2=63.716, gsp=2.020, rhosp=39.474
fGW[Hz],dPh[rad]
3.92731e-03,2.18798e+00
4.05253e-03,2.03425e+00
4.18174e-03,1.89132e+00
4.31507e-03,1.75843e+00
4.45265e-03,1.63487e+00
4.59462e-03,1.51999e+00
4.74112e-03,1.41319e+00
4.89229e-03,1.31388e+00
5.04828e-03,1.22155e+00
5.20924e-03,1.13571e+00
5.37533e-03,1.05590e+00
5.54672e-03,9.81697e-01
5.72357e-03,9.12706e-01
5.90606e-03,8.48561e-01
6.09438e-03,7.88923e-01
6.28869e-03,7.33475e-01
6.48920e-03,6.81922e-01
6.69610e-03,6.33991e-01
6.90961e-03,5.89428e-01
7.12991e-03,5.47995e-01
7.35725e-03,5.09474e-01
7.59183e-03,4.73659e-01
7.83389e-03,4.40360e-01
8.08367e-03,4.09401e-01
8.34141e-03,3.80617e-01
8.60737e-03,3.53856e-01
8.88181e-03,3.28975e-01
9.16500e-03,3.05843e-01
9.45722e-03,2.84336e-01
9.75876e-03,2.64340e-01
1.00699e-02,2.45749e-01
1.03910e-02,2.28465e-01
1.07223e-02,2.12396e-01
1.10642e-02,1.97455e-01
1.14169e-02,1.83565e-01
1.17810e-02,1.70651e-01
1.21566e-02,1.58645e-01
1.25442e-02,1.47482e-01
1.29442e-02,1.37104e-01
1.33569e-02,1.27456e-01
1.37827e-02,1.18485e-01
1.42222e-02,1.10146e-01
1.46757e-02,1.02392e-01
1.51436e-02,9.51836e-02
1.56264e-02,8.84820e-02
1.61247e-02,8.22515e-02
1.66388e-02,7.64591e-02
1.71693e-02,7.10739e-02
1.77167e-02,6.60674e-02
1.82816e-02,6.14130e-02
1.88645e-02,5.70858e-02
1.94660e-02,5.30630e-02
2.00867e-02,4.93231e-02
2.07271e-02,4.58463e-02
2.13880e-02,4.26141e-02
2.20699e-02,3.96092e-02
2.27736e-02,3.68157e-02
2.34997e-02,3.42187e-02
2.42490e-02,3.18045e-02
2.50222e-02,2.95601e-02
2.58200e-02,2.74737e-02
2.66432e-02,2.55342e-02
2.74927e-02,2.37311e-02
2.83693e-02,2.20550e-02
2.92739e-02,2.04969e-02
3.02073e-02,1.90485e-02
3.11704e-02,1.77021e-02
3.21642e-02,1.64505e-02
3.31898e-02,1.52870e-02
3.42480e-02,1.42055e-02
3.53400e-02,1.32002e-02
3.64668e-02,1.22658e-02
3.76295e-02,1.13972e-02
3.88293e-02,1.05898e-02
4.00673e-02,9.83935e-03
4.13449e-02,9.14180e-03
4.26631e-02,8.49345e-03
4.40234e-02,7.89082e-03
4.54270e-02,7.33071e-03
4.68755e-02,6.81012e-03
4.83701e-02,6.32628e-03
4.99123e-02,5.87659e-03
5.15037e-02,5.45865e-03
5.31459e-02,5.07023e-03
5.48404e-02,4.70924e-03
5.65890e-02,4.37377e-03
5.83933e-02,4.06201e-03
6.02551e-02,3.77229e-03
6.21763e-02,3.50306e-03
6.41587e-02,3.25288e-03
6.62044e-02,3.02041e-03
6.83153e-02,2.80439e-03
7.04935e-02,2.60367e-03
7.27411e-02,2.41717e-03
7.50604e-02,2.24389e-03
7.74536e-02,2.08290e-03
7.99232e-02,1.93333e-03
8.24715e-02,1.79437e-03
8.51010e-02,1.66527e-03
8.78144e-02,1.54535e-03
9.06143e-02,1.43395e-03
9.35035e-02,1.33047e-03
9.64848e-02,1.23436e-03
9.95612e-02,1.14508e-03
1.02736e-01,1.06217e-03
1.06011e-01,9.85164e-04
1.09391e-01,9.13652e-04
1.12879e-01,8.47244e-04
1.16478e-01,7.85579e-04
1.20192e-01,7.28321e-04
1.24024e-01,6.75160e-04
1.27979e-01,6.25804e-04
1.32059e-01,5.79985e-04
1.36270e-01,5.37452e-04
1.40615e-01,4.97972e-04
1.45098e-01,4.61329e-04
1.49725e-01,4.27321e-04
1.54499e-01,3.95762e-04
1.59425e-01,3.66477e-04
1.64508e-01,3.39306e-04
1.69753e-01,3.14097e-04
1.75165e-01,2.90712e-04
1.80750e-01,2.69020e-04
1.86514e-01,2.48902e-04
1.92460e-01,2.30244e-04
1.98597e-01,2.12943e-04
2.04929e-01,1.96903e-04
2.11463e-01,1.82032e-04
2.18205e-01,1.68248e-04
2.25163e-01,1.55473e-04
2.32342e-01,1.43634e-04
2.39750e-01,1.32665e-04
2.47394e-01,1.22504e-04
2.55282e-01,1.13091e-04
2.63422e-01,1.04374e-04
2.71821e-01,9.63023e-05
2.80488e-01,8.88295e-05
2.89431e-01,8.19126e-05
2.98659e-01,7.55112e-05
3.08182e-01,6.95883e-05
3.18008e-01,6.41091e-05
3.28147e-01,5.90416e-05
3.38610e-01,5.43557e-05
3.49406e-01,5.00238e-05
3.60547e-01,4.60201e-05
3.72043e-01,4.23206e-05
3.83905e-01,3.89031e-05
3.96146e-01,3.57470e-05
4.08777e-01,3.28330e-05
4.21810e-01,3.01434e-05
4.35259e-01,2.76616e-05
4.49137e-01,2.53723e-05
4.63458e-01,2.32612e-05
4.78235e-01,2.13151e-05
4.93483e-01,1.95217e-05
5.09217e-01,1.78696e-05
5.25453e-01,1.63482e-05
5.42207e-01,1.49477e-05
5.59495e-01,1.36590e-05
5.77334e-01,1.24737e-05
5.95742e-01,1.13839e-05
6.14737e-01,1.03823e-05
6.34337e-01,9.46218e-06
6.54563e-01,8.61733e-06
6.75433e-01,7.84192e-06
6.96969e-01,7.13059e-06
7.19191e-01,6.47836e-06
7.42122e-01,5.88062e-06
7.65784e-01,5.33308e-06
7.90201e-01,4.83181e-06
8.15396e-01,4.37313e-06
8.41394e-01,3.95365e-06
8.68221e-01,3.57023e-06
8.95904e-01,3.21998e-06
9.24469e-01,2.90021e-06
9.53945e-01,2.60843e-06
9.84361e-01,2.34236e-06
1.01575e+00,2.09987e-06
1.04813e+00,1.87902e-06
1.08155e+00,1.67799e-06
1.11604e+00,1.49513e-06
1.15162e+00,1.32889e-06
1.18834e+00,1.17786e-06
1.22623e+00,1.04074e-06
1.26533e+00,9.16323e-07
1.30567e+00,8.03513e-07
1.34730e+00,7.01290e-07
1.39026e+00,6.08722e-07
1.43459e+00,5.24952e-07
1.48033e+00,4.49193e-07
1.52753e+00,3.80725e-07
1.57623e+00,3.18886e-07
1.62649e+00,2.63071e-07
1.67835e+00,2.12725e-07
1.73186e+00,1.67342e-07
1.78708e+00,1.26458e-07
1.84406e+00,8.96508e-08
1.90286e+00,5.65348e-08
1.96353e+00,2.67580e-08
2.02613e+00,0.00000e+00
