m1=1315.079, m2=5.717, gsp=2.353, rhosp=329.793
fGW[Hz],dPh[rad]
1.09992e-02,1.93471e+04
1.13199e-02,1.82115e+04
1.16500e-02,1.71424e+04
1.19897e-02,1.61360e+04
1.23392e-02,1.51885e+04
1.26990e-02,1.42965e+04
1.30693e-02,1.34567e+04
1.34503e-02,1.26662e+04
1.38425e-02,1.19220e+04
1.42461e-02,1.12214e+04
1.46614e-02,1.05618e+04
1.50889e-02,9.94089e+03
1.55288e-02,9.35638e+03
1.59816e-02,8.80611e+03
1.64476e-02,8.28811e+03
1.69271e-02,7.80047e+03
1.74207e-02,7.34141e+03
1.79286e-02,6.90927e+03
1.84513e-02,6.50247e+03
1.89893e-02,6.11952e+03
1.95429e-02,5.75903e+03
2.01127e-02,5.41968e+03
2.06991e-02,5.10024e+03
2.13027e-02,4.79954e+03
2.19238e-02,4.51648e+03
2.25630e-02,4.25003e+03
2.32208e-02,3.99922e+03
2.38979e-02,3.76313e+03
2.45946e-02,3.54089e+03
2.53117e-02,3.33171e+03
2.60497e-02,3.13480e+03
2.68092e-02,2.94946e+03
2.75909e-02,2.77501e+03
2.83954e-02,2.61080e+03
2.92233e-02,2.45625e+03
3.00753e-02,2.31077e+03
3.09522e-02,2.17385e+03
3.18546e-02,2.04498e+03
3.27834e-02,1.92368e+03
3.37392e-02,1.80952e+03
3.47230e-02,1.70207e+03
3.57354e-02,1.60095e+03
3.67773e-02,1.50578e+03
3.78496e-02,1.41621e+03
3.89531e-02,1.33192e+03
4.00888e-02,1.25259e+03
4.12577e-02,1.17793e+03
4.24606e-02,1.10768e+03
4.36986e-02,1.04157e+03
4.49727e-02,9.79354e+02
4.62839e-02,9.20811e+02
4.76334e-02,8.65722e+02
4.90222e-02,8.13887e+02
5.04515e-02,7.65112e+02
5.19225e-02,7.19220e+02
5.34364e-02,6.76040e+02
5.49944e-02,6.35414e+02
5.65978e-02,5.97192e+02
5.82480e-02,5.61231e+02
5.99463e-02,5.27401e+02
6.16941e-02,4.95575e+02
6.34929e-02,4.65635e+02
6.53441e-02,4.37471e+02
6.72493e-02,4.10979e+02
6.92100e-02,3.86060e+02
7.12279e-02,3.62622e+02
7.33047e-02,3.40578e+02
7.54420e-02,3.19845e+02
7.76416e-02,3.00346e+02
7.99053e-02,2.82010e+02
8.22351e-02,2.64767e+02
8.46328e-02,2.48553e+02
8.71003e-02,2.33307e+02
8.96399e-02,2.18973e+02
9.22534e-02,2.05496e+02
9.49432e-02,1.92827e+02
9.77114e-02,1.80917e+02
1.00560e-01,1.69722e+02
1.03492e-01,1.59199e+02
1.06510e-01,1.49309e+02
1.09615e-01,1.40015e+02
1.12811e-01,1.31280e+02
1.16100e-01,1.23073e+02
1.19485e-01,1.15362e+02
1.22969e-01,1.08117e+02
1.26554e-01,1.01312e+02
1.30244e-01,9.49188e+01
1.34042e-01,8.89145e+01
1.37950e-01,8.32756e+01
1.41972e-01,7.79803e+01
1.46111e-01,7.30084e+01
1.50371e-01,6.83406e+01
1.54756e-01,6.39588e+01
1.59268e-01,5.98459e+01
1.63912e-01,5.59860e+01
1.68691e-01,5.23639e+01
1.73609e-01,4.89655e+01
1.78671e-01,4.57774e+01
1.83880e-01,4.27870e+01
1.89241e-01,3.99825e+01
1.94759e-01,3.73527e+01
2.00437e-01,3.48871e+01
2.06281e-01,3.25760e+01
2.12296e-01,3.04099e+01
2.18486e-01,2.83802e+01
2.24856e-01,2.64786e+01
2.31412e-01,2.46975e+01
2.38159e-01,2.30294e+01
2.45103e-01,2.14675e+01
2.52249e-01,2.00055e+01
2.59604e-01,1.86372e+01
2.67173e-01,1.73569e+01
2.74963e-01,1.61593e+01
2.82980e-01,1.50392e+01
2.91230e-01,1.39920e+01
2.99721e-01,1.30131e+01
3.08460e-01,1.20983e+01
3.17454e-01,1.12438e+01
3.26710e-01,1.04457e+01
3.36235e-01,9.70052e+00
3.46039e-01,9.00501e+00
3.56128e-01,8.35606e+00
3.66511e-01,7.75074e+00
3.77197e-01,7.18631e+00
3.88195e-01,6.66020e+00
3.99513e-01,6.16997e+00
4.11162e-01,5.71335e+00
4.23150e-01,5.28819e+00
4.35487e-01,4.89248e+00
4.48184e-01,4.52432e+00
4.61252e-01,4.18194e+00
4.74700e-01,3.86367e+00
4.88541e-01,3.56792e+00
5.02785e-01,3.29323e+00
5.17444e-01,3.03822e+00
5.32531e-01,2.80157e+00
5.48057e-01,2.58207e+00
5.64037e-01,2.37858e+00
5.80482e-01,2.19001e+00
5.97407e-01,2.01535e+00
6.14825e-01,1.85366e+00
6.32751e-01,1.70406e+00
6.51200e-01,1.56570e+00
6.70186e-01,1.43781e+00
6.89726e-01,1.31966e+00
7.09836e-01,1.21057e+00
7.30532e-01,1.10989e+00
7.51832e-01,1.01703e+00
7.73753e-01,9.31423e-01
7.96312e-01,8.52547e-01
8.19530e-01,7.79915e-01
8.43425e-01,7.13067e-01
8.68016e-01,6.51578e-01
8.93324e-01,5.95050e-01
9.19370e-01,5.43110e-01
9.46175e-01,4.95414e-01
9.73762e-01,4.51639e-01
1.00215e+00,4.11485e-01
1.03137e+00,3.74672e-01
1.06144e+00,3.40942e-01
1.09239e+00,3.10052e-01
1.12424e+00,2.81780e-01
1.15702e+00,2.55918e-01
1.19075e+00,2.32272e-01
1.22547e+00,2.10665e-01
1.26120e+00,1.90930e-01
1.29798e+00,1.72915e-01
1.33582e+00,1.56479e-01
1.37477e+00,1.41490e-01
1.41485e+00,1.27829e-01
1.45610e+00,1.15383e-01
1.49856e+00,1.04050e-01
1.54225e+00,9.37350e-02
1.58722e+00,8.43514e-02
1.63349e+00,7.58188e-02
1.68112e+00,6.80633e-02
1.73013e+00,6.10175e-02
1.78058e+00,5.46189e-02
1.83249e+00,4.88107e-02
1.88592e+00,4.35404e-02
1.94091e+00,3.87602e-02
1.99750e+00,3.44261e-02
2.05574e+00,3.04980e-02
2.11568e+00,2.69391e-02
2.17736e+00,2.37160e-02
2.24085e+00,2.07979e-02
2.30618e+00,1.81568e-02
2.37342e+00,1.57673e-02
2.44262e+00,1.36060e-02
2.51384e+00,1.16517e-02
2.58713e+00,9.88522e-03
2.66256e+00,8.28888e-03
2.74019e+00,6.84669e-03
2.82009e+00,5.54414e-03
2.90231e+00,4.36799e-03
2.98693e+00,3.30625e-03
3.07402e+00,2.34802e-03
3.16365e+00,1.48341e-03
3.25589e+00,7.03452e-04
3.35082e+00,0.00000e+00
