m1=12922.601, m2=26.400, gsp=2.012, rhosp=112.729
fGW[Hz],dPh[rad]
3.49933e-03,3.05319e+01
3.58076e-03,2.89124e+01
3.66410e-03,2.73779e+01
3.74937e-03,2.59241e+01
3.83663e-03,2.45467e+01
3.92592e-03,2.32416e+01
4.01728e-03,2.20053e+01
4.11077e-03,2.08339e+01
4.20644e-03,1.97242e+01
4.30434e-03,1.86728e+01
4.40451e-03,1.76769e+01
4.50701e-03,1.67334e+01
4.61190e-03,1.58396e+01
4.71923e-03,1.49929e+01
4.82906e-03,1.41909e+01
4.94144e-03,1.34312e+01
5.05644e-03,1.27115e+01
5.17412e-03,1.20299e+01
5.29454e-03,1.13843e+01
5.41775e-03,1.07728e+01
5.54384e-03,1.01936e+01
5.67286e-03,9.64503e+00
5.80488e-03,9.12551e+00
5.93997e-03,8.63351e+00
6.07821e-03,8.16757e+00
6.21966e-03,7.72632e+00
6.36441e-03,7.30848e+00
6.51253e-03,6.91282e+00
6.66409e-03,6.53816e+00
6.81918e-03,6.18341e+00
6.97788e-03,5.84752e+00
7.14027e-03,5.52950e+00
7.30644e-03,5.22842e+00
7.47648e-03,4.94337e+00
7.65048e-03,4.67352e+00
7.82853e-03,4.41807e+00
8.01072e-03,4.17626e+00
8.19715e-03,3.94737e+00
8.38791e-03,3.73072e+00
8.58312e-03,3.52567e+00
8.78287e-03,3.33161e+00
8.98727e-03,3.14795e+00
9.19643e-03,2.97415e+00
9.41045e-03,2.80968e+00
9.62946e-03,2.65406e+00
9.85356e-03,2.50682e+00
1.00829e-02,2.36751e+00
1.03175e-02,2.23571e+00
1.05576e-02,2.11103e+00
1.08033e-02,1.99309e+00
1.10548e-02,1.88154e+00
1.13120e-02,1.77603e+00
1.15753e-02,1.67624e+00
1.18447e-02,1.58188e+00
1.21203e-02,1.49265e+00
1.24024e-02,1.40828e+00
1.26910e-02,1.32851e+00
1.29864e-02,1.25310e+00
1.32886e-02,1.18181e+00
1.35979e-02,1.11443e+00
1.39143e-02,1.05075e+00
1.42382e-02,9.90562e-01
1.45695e-02,9.33691e-01
1.49086e-02,8.79955e-01
1.52555e-02,8.29187e-01
1.56106e-02,7.81228e-01
1.59739e-02,7.35927e-01
1.63456e-02,6.93142e-01
1.67260e-02,6.52738e-01
1.71153e-02,6.14586e-01
1.75136e-02,5.78565e-01
1.79212e-02,5.44560e-01
1.83383e-02,5.12463e-01
1.87650e-02,4.82170e-01
1.92018e-02,4.53584e-01
1.96486e-02,4.26612e-01
2.01059e-02,4.01167e-01
2.05738e-02,3.77166e-01
2.10526e-02,3.54529e-01
2.15426e-02,3.33183e-01
2.20439e-02,3.13058e-01
2.25569e-02,2.94086e-01
2.30819e-02,2.76205e-01
2.36191e-02,2.59354e-01
2.41687e-02,2.43476e-01
2.47312e-02,2.28519e-01
2.53068e-02,2.14432e-01
2.58957e-02,2.01165e-01
2.64984e-02,1.88675e-01
2.71151e-02,1.76917e-01
2.77461e-02,1.65852e-01
2.83918e-02,1.55439e-01
2.90526e-02,1.45644e-01
2.97287e-02,1.36431e-01
3.04205e-02,1.27767e-01
3.11285e-02,1.19622e-01
3.18529e-02,1.11966e-01
3.25942e-02,1.04772e-01
3.33528e-02,9.80129e-02
3.41290e-02,9.16645e-02
3.49233e-02,8.57031e-02
3.57360e-02,8.01066e-02
3.65677e-02,7.48541e-02
3.74187e-02,6.99255e-02
3.82895e-02,6.53023e-02
3.91806e-02,6.09666e-02
4.00924e-02,5.69017e-02
4.10255e-02,5.30918e-02
4.19803e-02,4.95218e-02
4.29573e-02,4.61776e-02
4.39570e-02,4.30459e-02
4.49800e-02,4.01141e-02
4.60268e-02,3.73702e-02
4.70979e-02,3.48029e-02
4.81940e-02,3.24016e-02
4.93156e-02,3.01564e-02
5.04633e-02,2.80577e-02
5.16377e-02,2.60966e-02
5.28394e-02,2.42646e-02
5.40691e-02,2.25539e-02
5.53275e-02,2.09569e-02
5.66151e-02,1.94666e-02
5.79327e-02,1.80763e-02
5.92809e-02,1.67798e-02
6.06605e-02,1.55711e-02
6.20722e-02,1.44446e-02
6.35168e-02,1.33952e-02
6.49950e-02,1.24179e-02
6.65076e-02,1.15081e-02
6.80554e-02,1.06614e-02
6.96392e-02,9.87366e-03
7.12599e-02,9.14110e-03
7.29183e-02,8.46008e-03
7.46153e-02,7.82718e-03
7.63518e-02,7.23922e-03
7.81287e-02,6.69319e-03
7.99469e-02,6.18629e-03
8.18075e-02,5.71588e-03
8.37113e-02,5.27948e-03
8.56595e-02,4.87478e-03
8.76530e-02,4.49959e-03
8.96929e-02,4.15190e-03
9.17803e-02,3.82980e-03
9.39163e-02,3.53149e-03
9.61019e-02,3.25533e-03
9.83385e-02,2.99975e-03
1.00627e-01,2.76330e-03
1.02969e-01,2.54462e-03
1.05365e-01,2.34243e-03
1.07817e-01,2.15556e-03
1.10327e-01,1.98290e-03
1.12894e-01,1.82342e-03
1.15521e-01,1.67616e-03
1.18210e-01,1.54022e-03
1.20961e-01,1.41478e-03
1.23776e-01,1.29906e-03
1.26657e-01,1.19233e-03
1.29604e-01,1.09393e-03
1.32620e-01,1.00323e-03
1.35707e-01,9.19650e-04
1.38865e-01,8.42658e-04
1.42097e-01,7.71750e-04
1.45404e-01,7.06465e-04
1.48788e-01,6.46371e-04
1.52250e-01,5.91070e-04
1.55794e-01,5.40193e-04
1.59419e-01,4.93398e-04
1.63129e-01,4.50366e-04
1.66926e-01,4.10806e-04
1.70811e-01,3.74444e-04
1.74786e-01,3.41031e-04
1.78853e-01,3.10334e-04
1.83016e-01,2.82138e-04
1.87275e-01,2.56245e-04
1.91633e-01,2.32471e-04
1.96093e-01,2.10648e-04
2.00657e-01,1.90620e-04
2.05327e-01,1.72242e-04
2.10105e-01,1.55381e-04
2.14995e-01,1.39915e-04
2.19998e-01,1.25732e-04
2.25118e-01,1.12726e-04
2.30357e-01,1.00803e-04
2.35718e-01,8.98730e-05
2.41204e-01,7.98561e-05
2.46817e-01,7.06770e-05
2.52561e-01,6.22669e-05
2.58439e-01,5.45625e-05
2.64454e-01,4.75056e-05
2.70608e-01,4.10426e-05
2.76906e-01,3.51243e-05
2.83350e-01,2.97055e-05
2.89944e-01,2.47447e-05
2.96692e-01,2.02037e-05
3.03597e-01,1.60475e-05
3.10662e-01,1.22439e-05
3.17892e-01,8.76333e-06
3.25290e-01,5.57872e-06
3.32861e-01,2.66522e-06
3.40607e-01,0.00000e+00
