m1=30311.027, m2=44.172, gsp=2.263, rhosp=4386.190
fGW[Hz],dPh[rad]
2.33109e-03,7.65025e+03
2.38000e-03,7.29965e+03
2.42992e-03,6.96473e+03
2.48090e-03,6.64481e+03
2.53295e-03,6.33921e+03
2.58609e-03,6.04732e+03
2.64034e-03,5.76852e+03
2.69573e-03,5.50223e+03
2.75228e-03,5.24790e+03
2.81002e-03,5.00501e+03
2.86897e-03,4.77304e+03
2.92916e-03,4.55151e+03
2.99061e-03,4.33997e+03
3.05335e-03,4.13797e+03
3.11740e-03,3.94508e+03
3.18280e-03,3.76090e+03
3.24957e-03,3.58506e+03
3.31774e-03,3.41717e+03
3.38735e-03,3.25688e+03
3.45841e-03,3.10386e+03
3.53096e-03,2.95779e+03
3.60504e-03,2.81835e+03
3.68066e-03,2.68526e+03
3.75788e-03,2.55822e+03
3.83671e-03,2.43697e+03
3.91720e-03,2.32126e+03
3.99938e-03,2.21083e+03
4.08328e-03,2.10546e+03
4.16895e-03,2.00491e+03
4.25640e-03,1.90897e+03
4.34570e-03,1.81743e+03
4.43686e-03,1.73011e+03
4.52994e-03,1.64680e+03
4.62498e-03,1.56734e+03
4.72200e-03,1.49154e+03
4.82106e-03,1.41925e+03
4.92220e-03,1.35030e+03
5.02546e-03,1.28456e+03
5.13089e-03,1.22186e+03
5.23853e-03,1.16209e+03
5.34843e-03,1.10510e+03
5.46063e-03,1.05077e+03
5.57519e-03,9.98982e+02
5.69215e-03,9.49620e+02
5.81156e-03,9.02576e+02
5.93348e-03,8.57744e+02
6.05796e-03,8.15025e+02
6.18504e-03,7.74323e+02
6.31480e-03,7.35546e+02
6.44727e-03,6.98608e+02
6.58253e-03,6.63425e+02
6.72062e-03,6.29917e+02
6.86161e-03,5.98008e+02
7.00556e-03,5.67625e+02
7.15253e-03,5.38699e+02
7.30258e-03,5.11163e+02
7.45578e-03,4.84953e+02
7.61219e-03,4.60009e+02
7.77188e-03,4.36273e+02
7.93493e-03,4.13688e+02
8.10139e-03,3.92203e+02
8.27135e-03,3.71767e+02
8.44487e-03,3.52331e+02
8.62203e-03,3.33848e+02
8.80291e-03,3.16275e+02
8.98758e-03,2.99569e+02
9.17613e-03,2.83691e+02
9.36863e-03,2.68601e+02
9.56517e-03,2.54262e+02
9.76584e-03,2.40640e+02
9.97071e-03,2.27701e+02
1.01799e-02,2.15413e+02
1.03934e-02,2.03745e+02
1.06115e-02,1.92667e+02
1.08341e-02,1.82153e+02
1.10614e-02,1.72174e+02
1.12934e-02,1.62706e+02
1.15304e-02,1.53724e+02
1.17723e-02,1.45205e+02
1.20192e-02,1.37126e+02
1.22714e-02,1.29467e+02
1.25288e-02,1.22208e+02
1.27916e-02,1.15328e+02
1.30600e-02,1.08809e+02
1.33340e-02,1.02634e+02
1.36137e-02,9.67864e+01
1.38993e-02,9.12494e+01
1.41909e-02,8.60079e+01
1.44886e-02,8.10474e+01
1.47925e-02,7.63538e+01
1.51029e-02,7.19140e+01
1.54197e-02,6.77151e+01
1.57432e-02,6.37452e+01
1.60735e-02,5.99925e+01
1.64107e-02,5.64463e+01
1.67549e-02,5.30959e+01
1.71064e-02,4.99314e+01
1.74653e-02,4.69432e+01
1.78317e-02,4.41223e+01
1.82058e-02,4.14600e+01
1.85877e-02,3.89480e+01
1.89777e-02,3.65786e+01
1.93758e-02,3.43442e+01
1.97823e-02,3.22377e+01
2.01973e-02,3.02524e+01
2.06210e-02,2.83818e+01
2.10536e-02,2.66198e+01
2.14953e-02,2.49605e+01
2.19462e-02,2.33984e+01
2.24066e-02,2.19283e+01
2.28767e-02,2.05450e+01
2.33566e-02,1.92439e+01
2.38466e-02,1.80204e+01
2.43469e-02,1.68703e+01
2.48576e-02,1.57894e+01
2.53791e-02,1.47738e+01
2.59115e-02,1.38199e+01
2.64551e-02,1.29243e+01
2.70101e-02,1.20835e+01
2.75767e-02,1.12945e+01
2.81553e-02,1.05543e+01
2.87459e-02,9.86004e+00
2.93490e-02,9.20908e+00
2.99647e-02,8.59890e+00
3.05933e-02,8.02711e+00
3.12351e-02,7.49143e+00
3.18904e-02,6.98973e+00
3.25594e-02,6.51999e+00
3.32424e-02,6.08029e+00
3.39398e-02,5.66882e+00
3.46518e-02,5.28388e+00
3.53788e-02,4.92386e+00
3.61210e-02,4.58723e+00
3.68787e-02,4.27255e+00
3.76524e-02,3.97848e+00
3.84423e-02,3.70373e+00
3.92488e-02,3.44710e+00
4.00722e-02,3.20746e+00
4.09128e-02,2.98374e+00
4.17711e-02,2.77494e+00
4.26474e-02,2.58010e+00
4.35421e-02,2.39834e+00
4.44556e-02,2.22882e+00
4.53882e-02,2.07075e+00
4.63404e-02,1.92340e+00
4.73125e-02,1.78606e+00
4.83051e-02,1.65809e+00
4.93185e-02,1.53888e+00
5.03531e-02,1.42785e+00
5.14094e-02,1.32445e+00
5.24879e-02,1.22819e+00
5.35891e-02,1.13860e+00
5.47133e-02,1.05522e+00
5.58611e-02,9.77637e-01
5.70330e-02,9.05469e-01
5.82295e-02,8.38347e-01
5.94510e-02,7.75932e-01
6.06982e-02,7.17903e-01
6.19716e-02,6.63961e-01
6.32717e-02,6.13829e-01
6.45991e-02,5.67244e-01
6.59543e-02,5.23963e-01
6.73379e-02,4.83759e-01
6.87505e-02,4.46418e-01
7.01928e-02,4.11742e-01
7.16654e-02,3.79546e-01
7.31688e-02,3.49657e-01
7.47038e-02,3.21914e-01
7.62710e-02,2.96166e-01
7.78711e-02,2.72273e-01
7.95047e-02,2.50105e-01
8.11726e-02,2.29540e-01
8.28755e-02,2.10464e-01
8.46141e-02,1.92772e-01
8.63892e-02,1.76365e-01
8.82015e-02,1.61152e-01
9.00519e-02,1.47048e-01
9.19411e-02,1.33972e-01
9.38699e-02,1.21853e-01
9.58391e-02,1.10620e-01
9.78497e-02,1.00210e-01
9.99025e-02,9.05641e-02
1.01998e-01,8.16267e-02
1.04138e-01,7.33466e-02
1.06323e-01,6.56763e-02
1.08553e-01,5.85713e-02
1.10831e-01,5.19907e-02
1.13156e-01,4.58963e-02
1.15529e-01,4.02526e-02
1.17953e-01,3.50268e-02
1.20428e-01,3.01881e-02
1.22954e-01,2.57084e-02
1.25533e-01,2.15613e-02
1.28167e-01,1.77223e-02
1.30856e-01,1.41688e-02
1.33601e-01,1.08799e-02
1.36404e-01,7.83596e-03
1.39265e-01,5.01897e-03
1.42187e-01,2.41216e-03
1.45170e-01,0.00000e+00
