m1=602729.747, m2=62.175, gsp=2.369, rhosp=1537.759
fGW[Hz],dPh[rad]
9.70913e-04,2.11438e+04
9.80803e-04,2.03962e+04
9.90794e-04,1.96744e+04
1.00089e-03,1.89775e+04
1.01108e-03,1.83049e+04
1.02138e-03,1.76555e+04
1.03178e-03,1.70287e+04
1.04229e-03,1.64237e+04
1.05291e-03,1.58397e+04
1.06364e-03,1.52760e+04
1.07447e-03,1.47320e+04
1.08542e-03,1.42070e+04
1.09647e-03,1.37003e+04
1.10764e-03,1.32113e+04
1.11892e-03,1.27395e+04
1.13032e-03,1.22841e+04
1.14183e-03,1.18448e+04
1.15346e-03,1.14208e+04
1.16521e-03,1.10117e+04
1.17708e-03,1.06171e+04
1.18907e-03,1.02363e+04
1.20119e-03,9.86889e+03
1.21342e-03,9.51446e+03
1.22578e-03,9.17254e+03
1.23827e-03,8.84269e+03
1.25088e-03,8.52449e+03
1.26362e-03,8.21756e+03
1.27649e-03,7.92148e+03
1.28950e-03,7.63590e+03
1.30263e-03,7.36044e+03
1.31590e-03,7.09475e+03
1.32930e-03,6.83850e+03
1.34284e-03,6.59136e+03
1.35652e-03,6.35300e+03
1.37034e-03,6.12313e+03
1.38430e-03,5.90145e+03
1.39840e-03,5.68766e+03
1.41264e-03,5.48151e+03
1.42703e-03,5.28271e+03
1.44157e-03,5.09101e+03
1.45625e-03,4.90616e+03
1.47109e-03,4.72792e+03
1.48607e-03,4.55607e+03
1.50121e-03,4.39036e+03
1.51650e-03,4.23060e+03
1.53195e-03,4.07656e+03
1.54755e-03,3.92806e+03
1.56331e-03,3.78488e+03
1.57924e-03,3.64685e+03
1.59533e-03,3.51377e+03
1.61158e-03,3.38549e+03
1.62799e-03,3.26182e+03
1.64457e-03,3.14261e+03
1.66133e-03,3.02769e+03
1.67825e-03,2.91691e+03
1.69534e-03,2.81013e+03
1.71261e-03,2.70720e+03
1.73006e-03,2.60799e+03
1.74768e-03,2.51236e+03
1.76548e-03,2.42019e+03
1.78347e-03,2.33135e+03
1.80163e-03,2.24573e+03
1.81998e-03,2.16321e+03
1.83852e-03,2.08367e+03
1.85725e-03,2.00702e+03
1.87617e-03,1.93315e+03
1.89528e-03,1.86195e+03
1.91458e-03,1.79334e+03
1.93409e-03,1.72722e+03
1.95379e-03,1.66350e+03
1.97369e-03,1.60210e+03
1.99379e-03,1.54293e+03
2.01410e-03,1.48591e+03
2.03462e-03,1.43096e+03
2.05534e-03,1.37801e+03
2.07628e-03,1.32700e+03
2.09743e-03,1.27784e+03
2.11879e-03,1.23047e+03
2.14038e-03,1.18483e+03
2.16218e-03,1.14085e+03
2.18420e-03,1.09848e+03
2.20645e-03,1.05765e+03
2.22893e-03,1.01831e+03
2.25163e-03,9.80415e+02
2.27457e-03,9.43901e+02
2.29774e-03,9.08720e+02
2.32114e-03,8.74826e+02
2.34478e-03,8.42172e+02
2.36867e-03,8.10712e+02
2.39280e-03,7.80403e+02
2.41717e-03,7.51204e+02
2.44179e-03,7.23074e+02
2.46666e-03,6.95974e+02
2.49179e-03,6.69868e+02
2.51717e-03,6.44718e+02
2.54281e-03,6.20491e+02
2.56871e-03,5.97152e+02
2.59488e-03,5.74669e+02
2.62131e-03,5.53011e+02
2.64801e-03,5.32148e+02
2.67498e-03,5.12051e+02
2.70223e-03,4.92692e+02
2.72976e-03,4.74045e+02
2.75756e-03,4.56082e+02
2.78565e-03,4.38780e+02
2.81403e-03,4.22114e+02
2.84269e-03,4.06061e+02
2.87165e-03,3.90598e+02
2.90090e-03,3.75704e+02
2.93045e-03,3.61358e+02
2.96030e-03,3.47540e+02
2.99045e-03,3.34231e+02
3.02091e-03,3.21412e+02
3.05168e-03,3.09066e+02
3.08277e-03,2.97174e+02
3.11417e-03,2.85720e+02
3.14589e-03,2.74689e+02
3.17793e-03,2.64064e+02
3.21031e-03,2.53831e+02
3.24301e-03,2.43975e+02
3.27604e-03,2.34483e+02
3.30941e-03,2.25341e+02
3.34312e-03,2.16536e+02
3.37717e-03,2.08057e+02
3.41157e-03,1.99890e+02
3.44633e-03,1.92025e+02
3.48143e-03,1.84451e+02
3.51689e-03,1.77156e+02
3.55272e-03,1.70130e+02
3.58890e-03,1.63365e+02
3.62546e-03,1.56849e+02
3.66239e-03,1.50574e+02
3.69970e-03,1.44531e+02
3.73738e-03,1.38712e+02
3.77545e-03,1.33107e+02
3.81391e-03,1.27710e+02
3.85276e-03,1.22513e+02
3.89200e-03,1.17508e+02
3.93165e-03,1.12688e+02
3.97170e-03,1.08046e+02
4.01215e-03,1.03577e+02
4.05302e-03,9.92724e+01
4.09430e-03,9.51275e+01
4.13601e-03,9.11361e+01
4.17814e-03,8.72925e+01
4.22070e-03,8.35912e+01
4.26369e-03,8.00270e+01
4.30712e-03,7.65949e+01
4.35100e-03,7.32900e+01
4.39532e-03,7.01075e+01
4.44009e-03,6.70430e+01
4.48531e-03,6.40921e+01
4.53100e-03,6.12505e+01
4.57716e-03,5.85143e+01
4.62378e-03,5.58796e+01
4.67088e-03,5.33426e+01
4.71846e-03,5.08996e+01
4.76652e-03,4.85473e+01
4.81507e-03,4.62822e+01
4.86412e-03,4.41012e+01
4.91366e-03,4.20011e+01
4.96372e-03,3.99789e+01
5.01428e-03,3.80317e+01
5.06535e-03,3.61569e+01
5.11695e-03,3.43516e+01
5.16907e-03,3.26133e+01
5.22172e-03,3.09396e+01
5.27491e-03,2.93280e+01
5.32864e-03,2.77762e+01
5.38292e-03,2.62821e+01
5.43775e-03,2.48435e+01
5.49314e-03,2.34583e+01
5.54910e-03,2.21245e+01
5.60562e-03,2.08403e+01
5.66272e-03,1.96038e+01
5.72040e-03,1.84133e+01
5.77867e-03,1.72669e+01
5.83753e-03,1.61632e+01
5.89700e-03,1.51005e+01
5.95706e-03,1.40773e+01
6.01774e-03,1.30921e+01
6.07904e-03,1.21436e+01
6.14096e-03,1.12303e+01
6.20352e-03,1.03509e+01
6.26671e-03,9.50429e+00
6.33054e-03,8.68912e+00
6.39502e-03,7.90427e+00
6.46016e-03,7.14859e+00
6.52597e-03,6.42102e+00
6.59244e-03,5.72051e+00
6.65959e-03,5.04605e+00
6.72743e-03,4.39669e+00
6.79596e-03,3.77147e+00
6.86518e-03,3.16952e+00
6.93511e-03,2.58995e+00
7.00575e-03,2.03195e+00
7.07711e-03,1.49472e+00
7.14920e-03,9.77469e-01
7.22202e-03,4.79468e-01
7.29559e-03,0.00000e+00
