m1=48428.198, m2=8.971, gsp=2.017, rhosp=316.709
fGW[Hz],dPh[rad]
3.76903e-03,2.07805e+02
3.82978e-03,1.98003e+02
3.89151e-03,1.88635e+02
3.95423e-03,1.79684e+02
4.01796e-03,1.71133e+02
4.08273e-03,1.62964e+02
4.14853e-03,1.55161e+02
4.21540e-03,1.47710e+02
4.28334e-03,1.40596e+02
4.35238e-03,1.33803e+02
4.42253e-03,1.27320e+02
4.49381e-03,1.21132e+02
4.56624e-03,1.15227e+02
4.63984e-03,1.09594e+02
4.71462e-03,1.04219e+02
4.79061e-03,9.90931e+01
4.86783e-03,9.42046e+01
4.94629e-03,8.95434e+01
5.02601e-03,8.50996e+01
5.10702e-03,8.08638e+01
5.18933e-03,7.68269e+01
5.27297e-03,7.29801e+01
5.35796e-03,6.93153e+01
5.44432e-03,6.58242e+01
5.53207e-03,6.24992e+01
5.62124e-03,5.93330e+01
5.71184e-03,5.63185e+01
5.80390e-03,5.34488e+01
5.89745e-03,5.07175e+01
5.99250e-03,4.81184e+01
6.08909e-03,4.56454e+01
6.18723e-03,4.32929e+01
6.28696e-03,4.10553e+01
6.38829e-03,3.89274e+01
6.49125e-03,3.69042e+01
6.59588e-03,3.49808e+01
6.70219e-03,3.31527e+01
6.81022e-03,3.14153e+01
6.91998e-03,2.97646e+01
7.03152e-03,2.81963e+01
7.14485e-03,2.67068e+01
7.26001e-03,2.52921e+01
7.37703e-03,2.39489e+01
7.49593e-03,2.26737e+01
7.61675e-03,2.14633e+01
7.73951e-03,2.03146e+01
7.86426e-03,1.92246e+01
7.99101e-03,1.81905e+01
8.11981e-03,1.72096e+01
8.25068e-03,1.62793e+01
8.38367e-03,1.53972e+01
8.51879e-03,1.45608e+01
8.65610e-03,1.37680e+01
8.79561e-03,1.30166e+01
8.93738e-03,1.23045e+01
9.08143e-03,1.16299e+01
9.22781e-03,1.09907e+01
9.37654e-03,1.03854e+01
9.52767e-03,9.81210e+00
9.68123e-03,9.26927e+00
9.83727e-03,8.75536e+00
9.99583e-03,8.26890e+00
1.01569e-02,7.80851e+00
1.03206e-02,7.37284e+00
1.04870e-02,6.96063e+00
1.06560e-02,6.57068e+00
1.08278e-02,6.20184e+00
1.10023e-02,5.85302e+00
1.11796e-02,5.52317e+00
1.13598e-02,5.21132e+00
1.15429e-02,4.91652e+00
1.17290e-02,4.63788e+00
1.19180e-02,4.37455e+00
1.21101e-02,4.12573e+00
1.23053e-02,3.89064e+00
1.25036e-02,3.66855e+00
1.27052e-02,3.45879e+00
1.29099e-02,3.26068e+00
1.31180e-02,3.07360e+00
1.33295e-02,2.89697e+00
1.35443e-02,2.73022e+00
1.37626e-02,2.57282e+00
1.39844e-02,2.42426e+00
1.42098e-02,2.28406e+00
1.44389e-02,2.15177e+00
1.46716e-02,2.02696e+00
1.49081e-02,1.90921e+00
1.51483e-02,1.79814e+00
1.53925e-02,1.69338e+00
1.56406e-02,1.59459e+00
1.58927e-02,1.50143e+00
1.61488e-02,1.41360e+00
1.64091e-02,1.33079e+00
1.66736e-02,1.25273e+00
1.69423e-02,1.17916e+00
1.72154e-02,1.10982e+00
1.74929e-02,1.04447e+00
1.77748e-02,9.82893e-01
1.80613e-02,9.24876e-01
1.83525e-02,8.70217e-01
1.86483e-02,8.18728e-01
1.89488e-02,7.70228e-01
1.92542e-02,7.24548e-01
1.95646e-02,6.81527e-01
1.98799e-02,6.41015e-01
2.02003e-02,6.02868e-01
2.05259e-02,5.66951e-01
2.08568e-02,5.33137e-01
2.11929e-02,5.01304e-01
2.15345e-02,4.71340e-01
2.18816e-02,4.43136e-01
2.22343e-02,4.16591e-01
2.25926e-02,3.91609e-01
2.29568e-02,3.68101e-01
2.33268e-02,3.45980e-01
2.37028e-02,3.25166e-01
2.40848e-02,3.05583e-01
2.44730e-02,2.87160e-01
2.48675e-02,2.69829e-01
2.52683e-02,2.53526e-01
2.56756e-02,2.38192e-01
2.60894e-02,2.23769e-01
2.65099e-02,2.10205e-01
2.69372e-02,1.97448e-01
2.73713e-02,1.85452e-01
2.78125e-02,1.74172e-01
2.82608e-02,1.63565e-01
2.87163e-02,1.53592e-01
2.91791e-02,1.44216e-01
2.96494e-02,1.35401e-01
3.01273e-02,1.27115e-01
3.06129e-02,1.19325e-01
3.11063e-02,1.12002e-01
3.16077e-02,1.05119e-01
3.21172e-02,9.86498e-02
3.26348e-02,9.25695e-02
3.31608e-02,8.68550e-02
3.36953e-02,8.14846e-02
3.42384e-02,7.64378e-02
3.47902e-02,7.16952e-02
3.53510e-02,6.72387e-02
3.59208e-02,6.30512e-02
3.64997e-02,5.91166e-02
3.70880e-02,5.54198e-02
3.76858e-02,5.19465e-02
3.82932e-02,4.86833e-02
3.89104e-02,4.56176e-02
3.95376e-02,4.27376e-02
4.01748e-02,4.00321e-02
4.08224e-02,3.74906e-02
4.14803e-02,3.51033e-02
4.21489e-02,3.28608e-02
4.28283e-02,3.07544e-02
4.35186e-02,2.87760e-02
4.42200e-02,2.69178e-02
4.49327e-02,2.51725e-02
4.56569e-02,2.35334e-02
4.63928e-02,2.19939e-02
4.71406e-02,2.05482e-02
4.79004e-02,1.91905e-02
4.86725e-02,1.79155e-02
4.94569e-02,1.67182e-02
5.02541e-02,1.55938e-02
5.10641e-02,1.45381e-02
5.18871e-02,1.35467e-02
5.27234e-02,1.26158e-02
5.35732e-02,1.17417e-02
5.44367e-02,1.09209e-02
5.53141e-02,1.01503e-02
5.62056e-02,9.42682e-03
5.71116e-02,8.74750e-03
5.80321e-02,8.10972e-03
5.89674e-02,7.51092e-03
5.99179e-02,6.94875e-03
6.08836e-02,6.42097e-03
6.18649e-02,5.92549e-03
6.28621e-02,5.46033e-03
6.38753e-02,5.02365e-03
6.49048e-02,4.61371e-03
6.59509e-02,4.22887e-03
6.70139e-02,3.86762e-03
6.80940e-02,3.52850e-03
6.91916e-02,3.21017e-03
7.03068e-02,2.91135e-03
7.14400e-02,2.63085e-03
7.25914e-02,2.36756e-03
7.37614e-02,2.12041e-03
7.49503e-02,1.88843e-03
7.61584e-02,1.67069e-03
7.73859e-02,1.46631e-03
7.86332e-02,1.27447e-03
7.99006e-02,1.09441e-03
8.11884e-02,9.25411e-04
8.24970e-02,7.66789e-04
8.38266e-02,6.17910e-04
8.51778e-02,4.78177e-04
8.65506e-02,3.47031e-04
8.79456e-02,2.23943e-04
8.93631e-02,1.08421e-04
9.08035e-02,0.00000e+00
