m1=34906.350, m2=71.799, gsp=2.402, rhosp=89.570
fGW[Hz],dPh[rad]
1.87565e-03,2.23136e+04
1.91573e-03,2.13239e+04
1.95667e-03,2.03771e+04
1.99849e-03,1.94715e+04
2.04120e-03,1.86052e+04
2.08482e-03,1.77766e+04
2.12938e-03,1.69840e+04
2.17489e-03,1.62260e+04
2.22137e-03,1.55009e+04
2.26884e-03,1.48075e+04
2.31733e-03,1.41443e+04
2.36685e-03,1.35100e+04
2.41744e-03,1.29034e+04
2.46910e-03,1.23234e+04
2.52187e-03,1.17686e+04
2.57577e-03,1.12382e+04
2.63081e-03,1.07310e+04
2.68704e-03,1.02460e+04
2.74446e-03,9.78223e+03
2.80312e-03,9.33884e+03
2.86302e-03,8.91492e+03
2.92421e-03,8.50964e+03
2.98670e-03,8.12218e+03
3.05053e-03,7.75178e+03
3.11573e-03,7.39771e+03
3.18231e-03,7.05925e+03
3.25032e-03,6.73573e+03
3.31979e-03,6.42652e+03
3.39074e-03,6.13098e+03
3.46320e-03,5.84853e+03
3.53721e-03,5.57860e+03
3.61281e-03,5.32065e+03
3.69002e-03,5.07416e+03
3.76888e-03,4.83863e+03
3.84943e-03,4.61359e+03
3.93169e-03,4.39859e+03
4.01572e-03,4.19319e+03
4.10154e-03,3.99697e+03
4.18920e-03,3.80953e+03
4.27873e-03,3.63049e+03
4.37017e-03,3.45949e+03
4.46356e-03,3.29618e+03
4.55896e-03,3.14021e+03
4.65639e-03,2.99128e+03
4.75590e-03,2.84908e+03
4.85754e-03,2.71330e+03
4.96135e-03,2.58368e+03
5.06738e-03,2.45994e+03
5.17568e-03,2.34182e+03
5.28629e-03,2.22909e+03
5.39927e-03,2.12149e+03
5.51466e-03,2.01882e+03
5.63251e-03,1.92085e+03
5.75289e-03,1.82737e+03
5.87584e-03,1.73819e+03
6.00141e-03,1.65311e+03
6.12967e-03,1.57197e+03
6.26067e-03,1.49458e+03
6.39447e-03,1.42078e+03
6.53112e-03,1.35041e+03
6.67070e-03,1.28332e+03
6.81327e-03,1.21936e+03
6.95887e-03,1.15839e+03
7.10760e-03,1.10029e+03
7.25949e-03,1.04492e+03
7.41464e-03,9.92161e+02
7.57310e-03,9.41897e+02
7.73495e-03,8.94018e+02
7.90025e-03,8.48415e+02
8.06909e-03,8.04988e+02
8.24154e-03,7.63637e+02
8.41767e-03,7.24271e+02
8.59757e-03,6.86798e+02
8.78131e-03,6.51135e+02
8.96898e-03,6.17198e+02
9.16066e-03,5.84910e+02
9.35644e-03,5.54195e+02
9.55640e-03,5.24982e+02
9.76063e-03,4.97203e+02
9.96923e-03,4.70791e+02
1.01823e-02,4.45684e+02
1.03999e-02,4.21822e+02
1.06222e-02,3.99147e+02
1.08492e-02,3.77605e+02
1.10810e-02,3.57143e+02
1.13178e-02,3.37711e+02
1.15597e-02,3.19261e+02
1.18068e-02,3.01747e+02
1.20591e-02,2.85124e+02
1.23168e-02,2.69351e+02
1.25800e-02,2.54389e+02
1.28489e-02,2.40197e+02
1.31235e-02,2.26741e+02
1.34040e-02,2.13984e+02
1.36904e-02,2.01893e+02
1.39830e-02,1.90436e+02
1.42818e-02,1.79583e+02
1.45871e-02,1.69304e+02
1.48988e-02,1.59571e+02
1.52172e-02,1.50358e+02
1.55424e-02,1.41639e+02
1.58746e-02,1.33390e+02
1.62138e-02,1.25588e+02
1.65604e-02,1.18209e+02
1.69143e-02,1.11234e+02
1.72758e-02,1.04642e+02
1.76450e-02,9.84138e+01
1.80221e-02,9.25305e+01
1.84072e-02,8.69749e+01
1.88006e-02,8.17301e+01
1.92024e-02,7.67803e+01
1.96128e-02,7.21101e+01
2.00319e-02,6.77051e+01
2.04600e-02,6.35515e+01
2.08973e-02,5.96359e+01
2.13439e-02,5.59459e+01
2.18000e-02,5.24696e+01
2.22659e-02,4.91954e+01
2.27418e-02,4.61127e+01
2.32278e-02,4.32110e+01
2.37242e-02,4.04805e+01
2.42312e-02,3.79120e+01
2.47491e-02,3.54965e+01
2.52780e-02,3.32256e+01
2.58182e-02,3.10914e+01
2.63700e-02,2.90861e+01
2.69336e-02,2.72026e+01
2.75092e-02,2.54339e+01
2.80971e-02,2.37737e+01
2.86976e-02,2.22157e+01
2.93109e-02,2.07540e+01
2.99373e-02,1.93832e+01
3.05771e-02,1.80978e+01
3.12306e-02,1.68931e+01
3.18980e-02,1.57641e+01
3.25797e-02,1.47066e+01
3.32760e-02,1.37162e+01
3.39871e-02,1.27889e+01
3.47135e-02,1.19210e+01
3.54554e-02,1.11089e+01
3.62131e-02,1.03492e+01
3.69870e-02,9.63874e+00
3.77775e-02,8.97450e+00
3.85848e-02,8.35363e+00
3.94094e-02,7.77347e+00
4.02517e-02,7.23148e+00
4.11119e-02,6.72529e+00
4.19905e-02,6.25265e+00
4.28879e-02,5.81145e+00
4.38045e-02,5.39970e+00
4.47407e-02,5.01553e+00
4.56968e-02,4.65717e+00
4.66734e-02,4.32298e+00
4.76709e-02,4.01139e+00
4.86897e-02,3.72095e+00
4.97303e-02,3.45028e+00
5.07931e-02,3.19808e+00
5.18786e-02,2.96316e+00
5.29873e-02,2.74437e+00
5.41197e-02,2.54065e+00
5.52763e-02,2.35099e+00
5.64576e-02,2.17447e+00
5.76642e-02,2.01021e+00
5.88966e-02,1.85738e+00
6.01553e-02,1.71522e+00
6.14409e-02,1.58300e+00
6.27540e-02,1.46006e+00
6.40951e-02,1.34575e+00
6.54649e-02,1.23950e+00
6.68640e-02,1.14076e+00
6.82929e-02,1.04900e+00
6.97525e-02,9.63746e-01
7.12432e-02,8.84552e-01
7.27657e-02,8.10997e-01
7.43208e-02,7.42690e-01
7.59092e-02,6.79265e-01
7.75314e-02,6.20383e-01
7.91884e-02,5.65724e-01
8.08808e-02,5.14994e-01
8.26093e-02,4.67915e-01
8.43748e-02,4.24231e-01
8.61780e-02,3.83703e-01
8.80197e-02,3.46106e-01
8.99008e-02,3.11232e-01
9.18221e-02,2.78889e-01
9.37845e-02,2.48896e-01
9.57888e-02,2.21085e-01
9.78359e-02,1.95300e-01
9.99268e-02,1.71396e-01
1.02062e-01,1.49239e-01
1.04244e-01,1.28701e-01
1.06471e-01,1.09668e-01
1.08747e-01,9.20295e-02
1.11071e-01,7.56856e-02
1.13445e-01,6.05426e-02
1.15869e-01,4.65132e-02
1.18345e-01,3.35168e-02
1.20875e-01,2.14780e-02
1.23458e-01,1.03274e-02
1.26096e-01,0.00000e+00
