m1=77994.968, m2=8.120, gsp=2.401, rhosp=18.222
fGW[Hz],dPh[rad]
3.47303e-03,8.63727e+04
3.52202e-03,8.25704e+04
3.57169e-03,7.89270e+04
3.62206e-03,7.54363e+04
3.67315e-03,7.20924e+04
3.72496e-03,6.88895e+04
3.77749e-03,6.58220e+04
3.83077e-03,6.28847e+04
3.88480e-03,6.00722e+04
3.93959e-03,5.73797e+04
3.99515e-03,5.48024e+04
4.05150e-03,5.23356e+04
4.10864e-03,4.99749e+04
4.16659e-03,4.77160e+04
4.22535e-03,4.55548e+04
4.28495e-03,4.34873e+04
4.34538e-03,4.15096e+04
4.40667e-03,3.96182e+04
4.46882e-03,3.78094e+04
4.53185e-03,3.60798e+04
4.59577e-03,3.44263e+04
4.66058e-03,3.28455e+04
4.72632e-03,3.13345e+04
4.79298e-03,2.98903e+04
4.86058e-03,2.85103e+04
4.92913e-03,2.71915e+04
4.99865e-03,2.59316e+04
5.06915e-03,2.47279e+04
5.14064e-03,2.35782e+04
5.21315e-03,2.24800e+04
5.28667e-03,2.14313e+04
5.36124e-03,2.04298e+04
5.43685e-03,1.94735e+04
5.51353e-03,1.85606e+04
5.59129e-03,1.76891e+04
5.67015e-03,1.68572e+04
5.75012e-03,1.60632e+04
5.83122e-03,1.53055e+04
5.91346e-03,1.45825e+04
5.99687e-03,1.38925e+04
6.08145e-03,1.32343e+04
6.16722e-03,1.26064e+04
6.25420e-03,1.20074e+04
6.34241e-03,1.14361e+04
6.43186e-03,1.08913e+04
6.52258e-03,1.03717e+04
6.61457e-03,9.87625e+03
6.70786e-03,9.40386e+03
6.80247e-03,8.95348e+03
6.89841e-03,8.52414e+03
6.99570e-03,8.11488e+03
7.09437e-03,7.72480e+03
7.19443e-03,7.35302e+03
7.29590e-03,6.99872e+03
7.39880e-03,6.66110e+03
7.50315e-03,6.33940e+03
7.60897e-03,6.03290e+03
7.71629e-03,5.74089e+03
7.82512e-03,5.46271e+03
7.93549e-03,5.19773e+03
8.04741e-03,4.94533e+03
8.16091e-03,4.70495e+03
8.27601e-03,4.47601e+03
8.39273e-03,4.25800e+03
8.51110e-03,4.05040e+03
8.63114e-03,3.85272e+03
8.75287e-03,3.66452e+03
8.87632e-03,3.48534e+03
9.00151e-03,3.31476e+03
9.12847e-03,3.15238e+03
9.25722e-03,2.99782e+03
9.38778e-03,2.85070e+03
9.52018e-03,2.71069e+03
9.65446e-03,2.57743e+03
9.79062e-03,2.45061e+03
9.92871e-03,2.32994e+03
1.00687e-02,2.21511e+03
1.02107e-02,2.10585e+03
1.03548e-02,2.00189e+03
1.05008e-02,1.90299e+03
1.06489e-02,1.80890e+03
1.07991e-02,1.71939e+03
1.09514e-02,1.63424e+03
1.11059e-02,1.55325e+03
1.12625e-02,1.47621e+03
1.14213e-02,1.40294e+03
1.15824e-02,1.33325e+03
1.17458e-02,1.26698e+03
1.19114e-02,1.20395e+03
1.20794e-02,1.14402e+03
1.22498e-02,1.08702e+03
1.24226e-02,1.03283e+03
1.25978e-02,9.81297e+02
1.27755e-02,9.32302e+02
1.29557e-02,8.85720e+02
1.31384e-02,8.41433e+02
1.33237e-02,7.99330e+02
1.35116e-02,7.59304e+02
1.37022e-02,7.21254e+02
1.38954e-02,6.85085e+02
1.40914e-02,6.50704e+02
1.42901e-02,6.18024e+02
1.44917e-02,5.86962e+02
1.46961e-02,5.57439e+02
1.49033e-02,5.29379e+02
1.51135e-02,5.02710e+02
1.53267e-02,4.77366e+02
1.55429e-02,4.53279e+02
1.57621e-02,4.30390e+02
1.59844e-02,4.08638e+02
1.62098e-02,3.87968e+02
1.64385e-02,3.68327e+02
1.66703e-02,3.49664e+02
1.69054e-02,3.31930e+02
1.71438e-02,3.15080e+02
1.73856e-02,2.99071e+02
1.76308e-02,2.83860e+02
1.78795e-02,2.69408e+02
1.81317e-02,2.55678e+02
1.83874e-02,2.42634e+02
1.86467e-02,2.30241e+02
1.89097e-02,2.18468e+02
1.91764e-02,2.07284e+02
1.94469e-02,1.96660e+02
1.97212e-02,1.86567e+02
1.99993e-02,1.76980e+02
2.02814e-02,1.67873e+02
2.05674e-02,1.59223e+02
2.08575e-02,1.51006e+02
2.11517e-02,1.43201e+02
2.14500e-02,1.35788e+02
2.17525e-02,1.28747e+02
2.20593e-02,1.22059e+02
2.23705e-02,1.15708e+02
2.26860e-02,1.09675e+02
2.30059e-02,1.03945e+02
2.33304e-02,9.85038e+01
2.36595e-02,9.33358e+01
2.39931e-02,8.84278e+01
2.43315e-02,8.37667e+01
2.46747e-02,7.93401e+01
2.50227e-02,7.51364e+01
2.53756e-02,7.11443e+01
2.57335e-02,6.73533e+01
2.60965e-02,6.37532e+01
2.64645e-02,6.03346e+01
2.68378e-02,5.70883e+01
2.72163e-02,5.40056e+01
2.76002e-02,5.10784e+01
2.79894e-02,4.82988e+01
2.83842e-02,4.56594e+01
2.87845e-02,4.31532e+01
2.91905e-02,4.07736e+01
2.96022e-02,3.85140e+01
3.00197e-02,3.63685e+01
3.04431e-02,3.43314e+01
3.08725e-02,3.23971e+01
3.13079e-02,3.05606e+01
3.17494e-02,2.88169e+01
3.21972e-02,2.71613e+01
3.26513e-02,2.55894e+01
3.31119e-02,2.40970e+01
3.35789e-02,2.26800e+01
3.40525e-02,2.13347e+01
3.45327e-02,2.00574e+01
3.50198e-02,1.88448e+01
3.55137e-02,1.76935e+01
3.60146e-02,1.66005e+01
3.65225e-02,1.55628e+01
3.70376e-02,1.45776e+01
3.75600e-02,1.36423e+01
3.80897e-02,1.27544e+01
3.86270e-02,1.19114e+01
3.91717e-02,1.11111e+01
3.97242e-02,1.03514e+01
4.02845e-02,9.63013e+00
4.08527e-02,8.94542e+00
4.14288e-02,8.29541e+00
4.20131e-02,7.67834e+00
4.26057e-02,7.09255e+00
4.32066e-02,6.53645e+00
4.38160e-02,6.00855e+00
4.44340e-02,5.50741e+00
4.50606e-02,5.03168e+00
4.56962e-02,4.58008e+00
4.63407e-02,4.15138e+00
4.69943e-02,3.74442e+00
4.76571e-02,3.35811e+00
4.83292e-02,2.99140e+00
4.90108e-02,2.64329e+00
4.97021e-02,2.31285e+00
5.04031e-02,1.99918e+00
5.11140e-02,1.70142e+00
5.18349e-02,1.41878e+00
5.25659e-02,1.15048e+00
5.33073e-02,8.95807e-01
5.40592e-02,6.54059e-01
5.48216e-02,4.24585e-01
5.55948e-02,2.06762e-01
5.63789e-02,0.00000e+00
