m1=2033.862, m2=18.997, gsp=2.454, rhosp=60.392
fGW[Hz],dPh[rad]
6.29110e-03,3.01802e+04
6.47860e-03,2.84300e+04
6.67169e-03,2.67812e+04
6.87053e-03,2.52280e+04
7.07529e-03,2.37646e+04
7.28616e-03,2.23861e+04
7.50332e-03,2.10874e+04
7.72694e-03,1.98639e+04
7.95723e-03,1.87113e+04
8.19439e-03,1.76255e+04
8.43861e-03,1.66025e+04
8.69011e-03,1.56389e+04
8.94911e-03,1.47310e+04
9.21583e-03,1.38758e+04
9.49049e-03,1.30701e+04
9.77334e-03,1.23111e+04
1.00646e-02,1.15961e+04
1.03646e-02,1.09225e+04
1.06735e-02,1.02880e+04
1.09916e-02,9.69021e+03
1.13192e-02,9.12708e+03
1.16565e-02,8.59659e+03
1.20039e-02,8.09686e+03
1.23617e-02,7.62608e+03
1.27301e-02,7.18261e+03
1.31095e-02,6.76484e+03
1.35003e-02,6.37129e+03
1.39026e-02,6.00056e+03
1.43170e-02,5.65133e+03
1.47437e-02,5.32234e+03
1.51831e-02,5.01244e+03
1.56356e-02,4.72052e+03
1.61016e-02,4.44552e+03
1.65815e-02,4.18648e+03
1.70757e-02,3.94247e+03
1.75846e-02,3.71261e+03
1.81087e-02,3.49610e+03
1.86484e-02,3.29215e+03
1.92041e-02,3.10003e+03
1.97765e-02,2.91907e+03
2.03659e-02,2.74861e+03
2.09729e-02,2.58805e+03
2.15980e-02,2.43682e+03
2.22417e-02,2.29436e+03
2.29045e-02,2.16018e+03
2.35872e-02,2.03380e+03
2.42902e-02,1.91476e+03
2.50141e-02,1.80264e+03
2.57596e-02,1.69703e+03
2.65273e-02,1.59757e+03
2.73180e-02,1.50388e+03
2.81321e-02,1.41565e+03
2.89706e-02,1.33255e+03
2.98340e-02,1.25428e+03
3.07232e-02,1.18057e+03
3.16388e-02,1.11115e+03
3.25818e-02,1.04577e+03
3.35528e-02,9.84194e+02
3.45528e-02,9.26208e+02
3.55826e-02,8.71601e+02
3.66431e-02,8.20177e+02
3.77352e-02,7.71751e+02
3.88599e-02,7.26150e+02
4.00180e-02,6.83208e+02
4.12107e-02,6.42773e+02
4.24389e-02,6.04699e+02
4.37038e-02,5.68848e+02
4.50063e-02,5.35092e+02
4.63477e-02,5.03309e+02
4.77290e-02,4.73384e+02
4.91515e-02,4.45210e+02
5.06164e-02,4.18685e+02
5.21249e-02,3.93713e+02
5.36785e-02,3.70205e+02
5.52783e-02,3.48074e+02
5.69258e-02,3.27241e+02
5.86224e-02,3.07631e+02
6.03695e-02,2.89172e+02
6.21687e-02,2.71797e+02
6.40216e-02,2.55444e+02
6.59297e-02,2.40053e+02
6.78946e-02,2.25569e+02
6.99181e-02,2.11937e+02
7.20019e-02,1.99110e+02
7.41479e-02,1.87039e+02
7.63577e-02,1.75681e+02
7.86335e-02,1.64994e+02
8.09771e-02,1.54940e+02
8.33905e-02,1.45481e+02
8.58758e-02,1.36583e+02
8.84352e-02,1.28212e+02
9.10709e-02,1.20339e+02
9.37852e-02,1.12934e+02
9.65803e-02,1.05970e+02
9.94587e-02,9.94208e+01
1.02423e-01,9.32625e+01
1.05476e-01,8.74722e+01
1.08619e-01,8.20283e+01
1.11856e-01,7.69106e+01
1.15190e-01,7.21000e+01
1.18623e-01,6.75784e+01
1.22159e-01,6.33290e+01
1.25799e-01,5.93358e+01
1.29549e-01,5.55837e+01
1.33410e-01,5.20587e+01
1.37386e-01,4.87472e+01
1.41480e-01,4.56369e+01
1.45697e-01,4.27158e+01
1.50039e-01,3.99727e+01
1.54511e-01,3.73973e+01
1.59116e-01,3.49796e+01
1.63858e-01,3.27102e+01
1.68742e-01,3.05805e+01
1.73771e-01,2.85821e+01
1.78950e-01,2.67073e+01
1.84283e-01,2.49487e+01
1.89776e-01,2.32994e+01
1.95432e-01,2.17529e+01
2.01256e-01,2.03031e+01
2.07254e-01,1.89442e+01
2.13431e-01,1.76708e+01
2.19792e-01,1.64778e+01
2.26343e-01,1.53603e+01
2.33089e-01,1.43139e+01
2.40036e-01,1.33342e+01
2.47190e-01,1.24171e+01
2.54557e-01,1.15590e+01
2.62144e-01,1.07563e+01
2.69956e-01,1.00055e+01
2.78002e-01,9.30355e+00
2.86288e-01,8.64744e+00
2.94820e-01,8.03437e+00
3.03607e-01,7.46170e+00
3.12655e-01,6.92693e+00
3.21973e-01,6.42773e+00
3.31569e-01,5.96190e+00
3.41451e-01,5.52735e+00
3.51628e-01,5.12214e+00
3.62108e-01,4.74443e+00
3.72900e-01,4.39249e+00
3.84014e-01,4.06469e+00
3.95459e-01,3.75950e+00
4.07245e-01,3.47548e+00
4.19382e-01,3.21128e+00
4.31881e-01,2.96562e+00
4.44753e-01,2.73731e+00
4.58008e-01,2.52521e+00
4.71659e-01,2.32827e+00
4.85716e-01,2.14550e+00
5.00192e-01,1.97595e+00
5.15099e-01,1.81875e+00
5.30451e-01,1.67307e+00
5.46261e-01,1.53814e+00
5.62541e-01,1.41324e+00
5.79307e-01,1.29767e+00
5.96572e-01,1.19080e+00
6.14352e-01,1.09203e+00
6.32662e-01,1.00079e+00
6.51518e-01,9.16563e-01
6.70936e-01,8.38845e-01
6.90932e-01,7.67177e-01
7.11524e-01,7.01126e-01
7.32730e-01,6.40286e-01
7.54568e-01,5.84279e-01
7.77057e-01,5.32751e-01
8.00216e-01,4.85372e-01
8.24066e-01,4.41832e-01
8.48626e-01,4.01844e-01
8.73918e-01,3.65140e-01
8.99964e-01,3.31470e-01
9.26786e-01,3.00600e-01
9.54408e-01,2.72314e-01
9.82853e-01,2.46411e-01
1.01215e+00,2.22703e-01
1.04231e+00,2.01017e-01
1.07338e+00,1.81192e-01
1.10537e+00,1.63077e-01
1.13831e+00,1.46535e-01
1.17224e+00,1.31436e-01
1.20717e+00,1.17663e-01
1.24315e+00,1.05105e-01
1.28020e+00,9.36619e-02
1.31836e+00,8.32393e-02
1.35765e+00,7.37510e-02
1.39811e+00,6.51176e-02
1.43978e+00,5.72658e-02
1.48269e+00,5.01283e-02
1.52688e+00,4.36430e-02
1.57239e+00,3.77530e-02
1.61925e+00,3.24061e-02
1.66751e+00,2.75542e-02
1.71721e+00,2.31534e-02
1.76839e+00,1.91633e-02
1.82109e+00,1.55471e-02
1.87536e+00,1.22709e-02
1.93126e+00,9.30400e-03
1.98882e+00,6.61810e-03
2.04809e+00,4.18746e-03
2.10913e+00,1.98857e-03
2.17199e+00,0.00000e+00
