m1=7808.329, m2=48.455, gsp=2.390, rhosp=6263.413
fGW[Hz],dPh[rad]
3.16232e-03,2.26623e+04
3.24580e-03,2.14639e+04
3.33149e-03,2.03286e+04
3.41944e-03,1.92532e+04
3.50971e-03,1.82345e+04
3.60236e-03,1.72694e+04
3.69746e-03,1.63552e+04
3.79507e-03,1.54892e+04
3.89526e-03,1.46689e+04
3.99809e-03,1.38918e+04
4.10363e-03,1.31557e+04
4.21197e-03,1.24584e+04
4.32316e-03,1.17979e+04
4.43729e-03,1.11722e+04
4.55443e-03,1.05795e+04
4.67466e-03,1.00181e+04
4.79807e-03,9.48633e+03
4.92473e-03,8.98261e+03
5.05474e-03,8.50547e+03
5.18818e-03,8.05352e+03
5.32515e-03,7.62543e+03
5.46573e-03,7.21994e+03
5.61002e-03,6.83586e+03
5.75812e-03,6.47207e+03
5.91012e-03,6.12749e+03
6.06615e-03,5.80112e+03
6.22629e-03,5.49200e+03
6.39066e-03,5.19921e+03
6.55936e-03,4.92190e+03
6.73253e-03,4.65925e+03
6.91026e-03,4.41050e+03
7.09268e-03,4.17490e+03
7.27992e-03,3.95176e+03
7.47211e-03,3.74044e+03
7.66937e-03,3.54030e+03
7.87183e-03,3.35075e+03
8.07964e-03,3.17124e+03
8.29294e-03,3.00125e+03
8.51186e-03,2.84026e+03
8.73657e-03,2.68780e+03
8.96721e-03,2.54342e+03
9.20393e-03,2.40671e+03
9.44691e-03,2.27724e+03
9.69630e-03,2.15465e+03
9.95227e-03,2.03856e+03
1.02150e-02,1.92864e+03
1.04847e-02,1.82456e+03
1.07615e-02,1.72601e+03
1.10456e-02,1.63270e+03
1.13371e-02,1.54435e+03
1.16364e-02,1.46070e+03
1.19436e-02,1.38151e+03
1.22589e-02,1.30654e+03
1.25826e-02,1.23556e+03
1.29147e-02,1.16836e+03
1.32557e-02,1.10475e+03
1.36056e-02,1.04453e+03
1.39648e-02,9.87533e+02
1.43334e-02,9.33579e+02
1.47118e-02,8.82509e+02
1.51002e-02,8.34171e+02
1.54988e-02,7.88420e+02
1.59080e-02,7.45121e+02
1.63279e-02,7.04142e+02
1.67590e-02,6.65362e+02
1.72014e-02,6.28663e+02
1.76555e-02,5.93937e+02
1.81216e-02,5.61077e+02
1.86000e-02,5.29986e+02
1.90910e-02,5.00570e+02
1.95950e-02,4.72739e+02
2.01123e-02,4.46410e+02
2.06433e-02,4.21503e+02
2.11882e-02,3.97943e+02
2.17476e-02,3.75657e+02
2.23217e-02,3.54580e+02
2.29110e-02,3.34645e+02
2.35158e-02,3.15793e+02
2.41366e-02,2.97966e+02
2.47738e-02,2.81109e+02
2.54278e-02,2.65171e+02
2.60990e-02,2.50102e+02
2.67880e-02,2.35857e+02
2.74952e-02,2.22392e+02
2.82211e-02,2.09664e+02
2.89661e-02,1.97636e+02
2.97308e-02,1.86268e+02
3.05156e-02,1.75526e+02
3.13212e-02,1.65377e+02
3.21481e-02,1.55789e+02
3.29968e-02,1.46731e+02
3.38678e-02,1.38175e+02
3.47619e-02,1.30095e+02
3.56796e-02,1.22465e+02
3.66215e-02,1.15260e+02
3.75883e-02,1.08458e+02
3.85806e-02,1.02037e+02
3.95991e-02,9.59761e+01
4.06445e-02,9.02565e+01
4.17174e-02,8.48595e+01
4.28188e-02,7.97677e+01
4.39491e-02,7.49644e+01
4.51093e-02,7.04342e+01
4.63002e-02,6.61621e+01
4.75225e-02,6.21341e+01
4.87770e-02,5.83369e+01
5.00647e-02,5.47580e+01
5.13864e-02,5.13853e+01
5.27429e-02,4.82077e+01
5.41353e-02,4.52143e+01
5.55644e-02,4.23952e+01
5.70313e-02,3.97407e+01
5.85369e-02,3.72417e+01
6.00822e-02,3.48897e+01
6.16683e-02,3.26764e+01
6.32963e-02,3.05943e+01
6.49673e-02,2.86359e+01
6.66823e-02,2.67944e+01
6.84427e-02,2.50633e+01
7.02495e-02,2.34364e+01
7.21040e-02,2.19077e+01
7.40075e-02,2.04718e+01
7.59613e-02,1.91235e+01
7.79666e-02,1.78576e+01
8.00248e-02,1.66697e+01
8.21374e-02,1.55551e+01
8.43058e-02,1.45097e+01
8.65314e-02,1.35295e+01
8.88157e-02,1.26107e+01
9.11604e-02,1.17498e+01
9.35669e-02,1.09434e+01
9.60370e-02,1.01883e+01
9.85723e-02,9.48156e+00
1.01175e-01,8.82023e+00
1.03845e-01,8.20165e+00
1.06587e-01,7.62329e+00
1.09401e-01,7.08272e+00
1.12289e-01,6.57768e+00
1.15253e-01,6.10601e+00
1.18296e-01,5.66569e+00
1.21419e-01,5.25481e+00
1.24624e-01,4.87154e+00
1.27914e-01,4.51419e+00
1.31291e-01,4.18115e+00
1.34757e-01,3.87088e+00
1.38314e-01,3.58197e+00
1.41966e-01,3.31305e+00
1.45713e-01,3.06286e+00
1.49560e-01,2.83019e+00
1.53508e-01,2.61391e+00
1.57561e-01,2.41297e+00
1.61720e-01,2.22634e+00
1.65990e-01,2.05310e+00
1.70371e-01,1.89236e+00
1.74869e-01,1.74328e+00
1.79486e-01,1.60508e+00
1.84224e-01,1.47703e+00
1.89087e-01,1.35843e+00
1.94079e-01,1.24864e+00
1.99202e-01,1.14705e+00
2.04461e-01,1.05309e+00
2.09859e-01,9.66222e-01
2.15399e-01,8.85952e-01
2.21085e-01,8.11812e-01
2.26922e-01,7.43364e-01
2.32912e-01,6.80198e-01
2.39061e-01,6.21933e-01
2.45372e-01,5.68211e-01
2.51850e-01,5.18701e-01
2.58498e-01,4.73090e-01
2.65322e-01,4.31091e-01
2.72327e-01,3.92432e-01
2.79516e-01,3.56863e-01
2.86895e-01,3.24150e-01
2.94468e-01,2.94076e-01
3.02242e-01,2.66439e-01
3.10221e-01,2.41051e-01
3.18411e-01,2.17737e-01
3.26816e-01,1.96338e-01
3.35444e-01,1.76701e-01
3.44300e-01,1.58689e-01
3.53389e-01,1.42173e-01
3.62718e-01,1.27035e-01
3.72293e-01,1.13163e-01
3.82122e-01,1.00456e-01
3.92209e-01,8.88194e-02
4.02563e-01,7.81672e-02
4.13191e-01,6.84188e-02
4.24099e-01,5.95001e-02
4.35294e-01,5.13430e-02
4.46786e-01,4.38843e-02
4.58581e-01,3.70664e-02
4.70687e-01,3.08357e-02
4.83112e-01,2.51431e-02
4.95866e-01,1.99436e-02
5.08957e-01,1.51956e-02
5.22393e-01,1.08608e-02
5.36183e-01,6.90436e-03
5.50338e-01,3.29393e-03
5.64867e-01,0.00000e+00
