m1=520661.587, m2=17.427, gsp=2.323, rhosp=1060.740
fGW[Hz],dPh[rad]
1.62263e-03,8.48378e+03
1.63613e-03,8.22499e+03
1.64975e-03,7.97403e+03
1.66348e-03,7.73066e+03
1.67733e-03,7.49467e+03
1.69129e-03,7.26582e+03
1.70537e-03,7.04390e+03
1.71956e-03,6.82870e+03
1.73388e-03,6.62003e+03
1.74831e-03,6.41768e+03
1.76286e-03,6.22147e+03
1.77754e-03,6.03121e+03
1.79233e-03,5.84672e+03
1.80725e-03,5.66783e+03
1.82229e-03,5.49437e+03
1.83746e-03,5.32617e+03
1.85276e-03,5.16308e+03
1.86818e-03,5.00495e+03
1.88373e-03,4.85161e+03
1.89941e-03,4.70294e+03
1.91522e-03,4.55878e+03
1.93116e-03,4.41901e+03
1.94723e-03,4.28349e+03
1.96344e-03,4.15209e+03
1.97978e-03,4.02468e+03
1.99626e-03,3.90115e+03
2.01288e-03,3.78138e+03
2.02963e-03,3.66525e+03
2.04653e-03,3.55266e+03
2.06356e-03,3.44350e+03
2.08074e-03,3.33766e+03
2.09806e-03,3.23505e+03
2.11552e-03,3.13556e+03
2.13313e-03,3.03910e+03
2.15089e-03,2.94558e+03
2.16879e-03,2.85491e+03
2.18684e-03,2.76701e+03
2.20505e-03,2.68179e+03
2.22340e-03,2.59916e+03
2.24191e-03,2.51906e+03
2.26057e-03,2.44140e+03
2.27938e-03,2.36610e+03
2.29836e-03,2.29311e+03
2.31749e-03,2.22235e+03
2.33678e-03,2.15374e+03
2.35623e-03,2.08723e+03
2.37584e-03,2.02275e+03
2.39562e-03,1.96024e+03
2.41556e-03,1.89964e+03
2.43566e-03,1.84089e+03
2.45594e-03,1.78393e+03
2.47638e-03,1.72872e+03
2.49699e-03,1.67519e+03
2.51778e-03,1.62330e+03
2.53873e-03,1.57299e+03
2.55986e-03,1.52423e+03
2.58117e-03,1.47695e+03
2.60266e-03,1.43112e+03
2.62432e-03,1.38669e+03
2.64616e-03,1.34362e+03
2.66819e-03,1.30187e+03
2.69040e-03,1.26140e+03
2.71279e-03,1.22217e+03
2.73537e-03,1.18413e+03
2.75814e-03,1.14726e+03
2.78110e-03,1.11152e+03
2.80425e-03,1.07687e+03
2.82759e-03,1.04329e+03
2.85113e-03,1.01073e+03
2.87486e-03,9.79170e+02
2.89879e-03,9.48577e+02
2.92292e-03,9.18921e+02
2.94725e-03,8.90173e+02
2.97178e-03,8.62306e+02
2.99651e-03,8.35294e+02
3.02146e-03,8.09109e+02
3.04661e-03,7.83727e+02
3.07197e-03,7.59122e+02
3.09754e-03,7.35272e+02
3.12332e-03,7.12154e+02
3.14932e-03,6.89744e+02
3.17553e-03,6.68022e+02
3.20196e-03,6.46965e+02
3.22861e-03,6.26555e+02
3.25549e-03,6.06771e+02
3.28259e-03,5.87593e+02
3.30991e-03,5.69004e+02
3.33746e-03,5.50986e+02
3.36524e-03,5.33520e+02
3.39325e-03,5.16590e+02
3.42149e-03,5.00180e+02
3.44997e-03,4.84274e+02
3.47869e-03,4.68855e+02
3.50765e-03,4.53911e+02
3.53684e-03,4.39425e+02
3.56628e-03,4.25383e+02
3.59597e-03,4.11773e+02
3.62590e-03,3.98581e+02
3.65608e-03,3.85794e+02
3.68651e-03,3.73400e+02
3.71720e-03,3.61386e+02
3.74814e-03,3.49742e+02
3.77934e-03,3.38455e+02
3.81079e-03,3.27515e+02
3.84251e-03,3.16911e+02
3.87450e-03,3.06633e+02
3.90675e-03,2.96671e+02
3.93927e-03,2.87015e+02
3.97206e-03,2.77655e+02
4.00512e-03,2.68584e+02
4.03845e-03,2.59791e+02
4.07207e-03,2.51268e+02
4.10596e-03,2.43008e+02
4.14014e-03,2.35001e+02
4.17460e-03,2.27241e+02
4.20935e-03,2.19719e+02
4.24439e-03,2.12428e+02
4.27972e-03,2.05362e+02
4.31534e-03,1.98513e+02
4.35126e-03,1.91874e+02
4.38748e-03,1.85440e+02
4.42400e-03,1.79204e+02
4.46082e-03,1.73159e+02
4.49795e-03,1.67301e+02
4.53539e-03,1.61622e+02
4.57314e-03,1.56119e+02
4.61121e-03,1.50784e+02
4.64959e-03,1.45614e+02
4.68829e-03,1.40603e+02
4.72732e-03,1.35746e+02
4.76666e-03,1.31039e+02
4.80634e-03,1.26476e+02
4.84635e-03,1.22054e+02
4.88669e-03,1.17768e+02
4.92736e-03,1.13614e+02
4.96838e-03,1.09587e+02
5.00973e-03,1.05685e+02
5.05143e-03,1.01903e+02
5.09348e-03,9.82368e+01
5.13587e-03,9.46838e+01
5.17862e-03,9.12402e+01
5.22173e-03,8.79026e+01
5.26519e-03,8.46678e+01
5.30902e-03,8.15326e+01
5.35321e-03,7.84939e+01
5.39777e-03,7.55488e+01
5.44270e-03,7.26944e+01
5.48800e-03,6.99279e+01
5.53368e-03,6.72466e+01
5.57974e-03,6.46478e+01
5.62618e-03,6.21291e+01
5.67301e-03,5.96880e+01
5.72023e-03,5.73221e+01
5.76785e-03,5.50290e+01
5.81586e-03,5.28066e+01
5.86427e-03,5.06526e+01
5.91308e-03,4.85650e+01
5.96230e-03,4.65417e+01
6.01193e-03,4.45807e+01
6.06197e-03,4.26802e+01
6.11243e-03,4.08382e+01
6.16330e-03,3.90529e+01
6.21460e-03,3.73227e+01
6.26633e-03,3.56458e+01
6.31849e-03,3.40205e+01
6.37109e-03,3.24454e+01
6.42412e-03,3.09187e+01
6.47759e-03,2.94391e+01
6.53151e-03,2.80052e+01
6.58587e-03,2.66154e+01
6.64069e-03,2.52684e+01
6.69597e-03,2.39629e+01
6.75170e-03,2.26977e+01
6.80790e-03,2.14715e+01
6.86457e-03,2.02831e+01
6.92171e-03,1.91313e+01
6.97932e-03,1.80150e+01
7.03741e-03,1.69331e+01
7.09599e-03,1.58846e+01
7.15505e-03,1.48684e+01
7.21461e-03,1.38835e+01
7.27466e-03,1.29290e+01
7.33522e-03,1.20039e+01
7.39627e-03,1.11073e+01
7.45784e-03,1.02384e+01
7.51991e-03,9.39623e+00
7.58251e-03,8.58006e+00
7.64562e-03,7.78904e+00
7.70926e-03,7.02242e+00
7.77343e-03,6.27943e+00
7.83813e-03,5.55936e+00
7.90337e-03,4.86149e+00
7.96916e-03,4.18513e+00
8.03549e-03,3.52964e+00
8.10238e-03,2.89435e+00
8.16982e-03,2.27866e+00
8.23782e-03,1.68196e+00
8.30639e-03,1.10365e+00
8.37553e-03,5.43184e-01
8.44525e-03,0.00000e+00
