m1=10569.556, m2=47.736, gsp=2.339, rhosp=8576.387
fGW[Hz],dPh[rad]
2.94764e-03,1.35368e+04
3.02191e-03,1.28392e+04
3.09805e-03,1.21774e+04
3.17611e-03,1.15495e+04
3.25614e-03,1.09538e+04
3.33818e-03,1.03886e+04
3.42229e-03,9.85242e+03
3.50852e-03,9.34373e+03
3.59693e-03,8.86113e+03
3.68756e-03,8.40329e+03
3.78047e-03,7.96893e+03
3.87572e-03,7.55687e+03
3.97338e-03,7.16595e+03
4.07349e-03,6.79510e+03
4.17613e-03,6.44329e+03
4.28135e-03,6.10954e+03
4.38923e-03,5.79294e+03
4.49982e-03,5.49259e+03
4.61320e-03,5.20768e+03
4.72944e-03,4.93742e+03
4.84860e-03,4.68104e+03
4.97077e-03,4.43784e+03
5.09601e-03,4.20715e+03
5.22441e-03,3.98833e+03
5.35605e-03,3.78077e+03
5.49100e-03,3.58389e+03
5.62936e-03,3.39714e+03
5.77120e-03,3.22001e+03
5.91661e-03,3.05200e+03
6.06569e-03,2.89265e+03
6.21852e-03,2.74152e+03
6.37521e-03,2.59817e+03
6.53584e-03,2.46222e+03
6.70052e-03,2.33328e+03
6.86935e-03,2.21100e+03
7.04243e-03,2.09503e+03
7.21987e-03,1.98505e+03
7.40179e-03,1.88075e+03
7.58829e-03,1.78185e+03
7.77948e-03,1.68806e+03
7.97550e-03,1.59912e+03
8.17645e-03,1.51478e+03
8.38247e-03,1.43482e+03
8.59368e-03,1.35899e+03
8.81021e-03,1.28710e+03
9.03219e-03,1.21894e+03
9.25977e-03,1.15431e+03
9.49308e-03,1.09304e+03
9.73228e-03,1.03495e+03
9.97749e-03,9.79883e+02
1.02289e-02,9.27680e+02
1.04866e-02,8.78194e+02
1.07508e-02,8.31286e+02
1.10217e-02,7.86823e+02
1.12994e-02,7.44679e+02
1.15841e-02,7.04735e+02
1.18760e-02,6.66878e+02
1.21753e-02,6.31001e+02
1.24820e-02,5.97001e+02
1.27965e-02,5.64781e+02
1.31190e-02,5.34251e+02
1.34495e-02,5.05322e+02
1.37884e-02,4.77913e+02
1.41358e-02,4.51945e+02
1.44920e-02,4.27343e+02
1.48571e-02,4.04037e+02
1.52315e-02,3.81960e+02
1.56152e-02,3.61049e+02
1.60087e-02,3.41243e+02
1.64121e-02,3.22485e+02
1.68256e-02,3.04721e+02
1.72495e-02,2.87899e+02
1.76841e-02,2.71971e+02
1.81297e-02,2.56891e+02
1.85865e-02,2.42613e+02
1.90548e-02,2.29098e+02
1.95350e-02,2.16304e+02
2.00272e-02,2.04195e+02
2.05318e-02,1.92735e+02
2.10491e-02,1.81891e+02
2.15795e-02,1.71629e+02
2.21232e-02,1.61920e+02
2.26806e-02,1.52736e+02
2.32521e-02,1.44047e+02
2.38380e-02,1.35830e+02
2.44386e-02,1.28058e+02
2.50544e-02,1.20710e+02
2.56856e-02,1.13762e+02
2.63328e-02,1.07193e+02
2.69963e-02,1.00984e+02
2.76765e-02,9.51155e+01
2.83739e-02,8.95700e+01
2.90888e-02,8.43302e+01
2.98217e-02,7.93801e+01
3.05731e-02,7.47042e+01
3.13435e-02,7.02882e+01
3.21332e-02,6.61182e+01
3.29428e-02,6.21812e+01
3.37729e-02,5.84649e+01
3.46238e-02,5.49573e+01
3.54962e-02,5.16475e+01
3.63906e-02,4.85248e+01
3.73075e-02,4.55793e+01
3.82475e-02,4.28014e+01
3.92112e-02,4.01821e+01
4.01992e-02,3.77128e+01
4.12121e-02,3.53856e+01
4.22505e-02,3.31926e+01
4.33150e-02,3.11266e+01
4.44064e-02,2.91808e+01
4.55253e-02,2.73485e+01
4.66724e-02,2.56235e+01
4.78484e-02,2.40001e+01
4.90540e-02,2.24725e+01
5.02900e-02,2.10355e+01
5.15571e-02,1.96840e+01
5.28561e-02,1.84135e+01
5.41879e-02,1.72192e+01
5.55533e-02,1.60971e+01
5.69530e-02,1.50430e+01
5.83880e-02,1.40531e+01
5.98592e-02,1.31237e+01
6.13674e-02,1.22516e+01
6.29136e-02,1.14333e+01
6.44988e-02,1.06658e+01
6.61240e-02,9.94624e+00
6.77901e-02,9.27180e+00
6.94981e-02,8.63988e+00
7.12492e-02,8.04800e+00
7.30445e-02,7.49383e+00
7.48849e-02,6.97515e+00
7.67717e-02,6.48986e+00
7.87061e-02,6.03598e+00
8.06892e-02,5.61164e+00
8.27223e-02,5.21507e+00
8.48066e-02,4.84458e+00
8.69434e-02,4.49861e+00
8.91341e-02,4.17564e+00
9.13800e-02,3.87429e+00
9.36824e-02,3.59320e+00
9.60429e-02,3.33112e+00
9.84628e-02,3.08687e+00
1.00944e-01,2.85932e+00
1.03487e-01,2.64743e+00
1.06095e-01,2.45019e+00
1.08768e-01,2.26667e+00
1.11508e-01,2.09598e+00
1.14318e-01,1.93729e+00
1.17198e-01,1.78983e+00
1.20151e-01,1.65285e+00
1.23179e-01,1.52566e+00
1.26282e-01,1.40761e+00
1.29464e-01,1.29809e+00
1.32726e-01,1.19653e+00
1.36071e-01,1.10238e+00
1.39499e-01,1.01515e+00
1.43014e-01,9.34348e-01
1.46617e-01,8.59541e-01
1.50312e-01,7.90311e-01
1.54099e-01,7.26266e-01
1.57982e-01,6.67042e-01
1.61962e-01,6.12297e-01
1.66043e-01,5.61713e-01
1.70227e-01,5.14992e-01
1.74516e-01,4.71855e-01
1.78913e-01,4.32041e-01
1.83421e-01,3.95309e-01
1.88043e-01,3.61433e-01
1.92781e-01,3.30201e-01
1.97638e-01,3.01418e-01
2.02618e-01,2.74901e-01
2.07723e-01,2.50479e-01
2.12957e-01,2.27996e-01
2.18322e-01,2.07303e-01
2.23823e-01,1.88265e-01
2.29463e-01,1.70755e-01
2.35245e-01,1.54655e-01
2.41172e-01,1.39856e-01
2.47249e-01,1.26258e-01
2.53478e-01,1.13765e-01
2.59865e-01,1.02293e-01
2.66413e-01,9.17599e-02
2.73125e-01,8.20921e-02
2.80007e-01,7.32207e-02
2.87062e-01,6.50823e-02
2.94295e-01,5.76182e-02
3.01710e-01,5.07743e-02
3.09313e-01,4.45004e-02
3.17106e-01,3.87506e-02
3.25096e-01,3.34821e-02
3.33287e-01,2.86559e-02
3.41685e-01,2.42357e-02
3.50294e-01,2.01881e-02
3.59120e-01,1.64827e-02
3.68169e-01,1.30910e-02
3.77445e-01,9.98714e-03
3.86956e-01,7.14722e-03
3.96705e-01,4.54925e-03
4.06701e-01,2.17303e-03
4.16948e-01,0.00000e+00
