m1=160976.465, m2=16.913, gsp=2.265, rhosp=164.543
fGW[Hz],dPh[rad]
2.20063e-03,7.15316e+03
2.22866e-03,6.85034e+03
2.25705e-03,6.55983e+03
2.28580e-03,6.28117e+03
2.31491e-03,6.01390e+03
2.34440e-03,5.75756e+03
2.37426e-03,5.51175e+03
2.40450e-03,5.27604e+03
2.43513e-03,5.05005e+03
2.46615e-03,4.83340e+03
2.49756e-03,4.62570e+03
2.52937e-03,4.42663e+03
2.56159e-03,4.23582e+03
2.59422e-03,4.05296e+03
2.62726e-03,3.87774e+03
2.66073e-03,3.70983e+03
2.69462e-03,3.54897e+03
2.72894e-03,3.39485e+03
2.76370e-03,3.24721e+03
2.79890e-03,3.10580e+03
2.83455e-03,2.97036e+03
2.87066e-03,2.84064e+03
2.90722e-03,2.71642e+03
2.94425e-03,2.59747e+03
2.98175e-03,2.48358e+03
3.01973e-03,2.37454e+03
3.05820e-03,2.27016e+03
3.09715e-03,2.17023e+03
3.13660e-03,2.07459e+03
3.17655e-03,1.98304e+03
3.21701e-03,1.89543e+03
3.25799e-03,1.81159e+03
3.29949e-03,1.73136e+03
3.34151e-03,1.65460e+03
3.38408e-03,1.58115e+03
3.42718e-03,1.51089e+03
3.47083e-03,1.44367e+03
3.51504e-03,1.37937e+03
3.55982e-03,1.31787e+03
3.60516e-03,1.25905e+03
3.65108e-03,1.20279e+03
3.69759e-03,1.14899e+03
3.74468e-03,1.09755e+03
3.79238e-03,1.04836e+03
3.84069e-03,1.00132e+03
3.88961e-03,9.56354e+02
3.93915e-03,9.13363e+02
3.98932e-03,8.72266e+02
4.04014e-03,8.32980e+02
4.09160e-03,7.95429e+02
4.14371e-03,7.59538e+02
4.19650e-03,7.25236e+02
4.24995e-03,6.92453e+02
4.30408e-03,6.61125e+02
4.35890e-03,6.31188e+02
4.41442e-03,6.02582e+02
4.47065e-03,5.75249e+02
4.52760e-03,5.49135e+02
4.58527e-03,5.24185e+02
4.64367e-03,5.00350e+02
4.70282e-03,4.77580e+02
4.76272e-03,4.55829e+02
4.82339e-03,4.35053e+02
4.88482e-03,4.15208e+02
4.94704e-03,3.96254e+02
5.01006e-03,3.78151e+02
5.07387e-03,3.60863e+02
5.13850e-03,3.44353e+02
5.20395e-03,3.28586e+02
5.27024e-03,3.13531e+02
5.33737e-03,2.99155e+02
5.40535e-03,2.85429e+02
5.47420e-03,2.72323e+02
5.54393e-03,2.59810e+02
5.61454e-03,2.47864e+02
5.68606e-03,2.36459e+02
5.75848e-03,2.25572e+02
5.83183e-03,2.15179e+02
5.90611e-03,2.05258e+02
5.98134e-03,1.95788e+02
6.05753e-03,1.86749e+02
6.13469e-03,1.78122e+02
6.21283e-03,1.69887e+02
6.29196e-03,1.62028e+02
6.37210e-03,1.54528e+02
6.45327e-03,1.47370e+02
6.53547e-03,1.40539e+02
6.61871e-03,1.34021e+02
6.70302e-03,1.27801e+02
6.78840e-03,1.21865e+02
6.87486e-03,1.16201e+02
6.96243e-03,1.10797e+02
7.05111e-03,1.05641e+02
7.14093e-03,1.00721e+02
7.23188e-03,9.60276e+01
7.32400e-03,9.15495e+01
7.41729e-03,8.72771e+01
7.51176e-03,8.32013e+01
7.60745e-03,7.93130e+01
7.70434e-03,7.56037e+01
7.80248e-03,7.20653e+01
7.90186e-03,6.86899e+01
8.00251e-03,6.54702e+01
8.10444e-03,6.23990e+01
8.20767e-03,5.94695e+01
8.31222e-03,5.66753e+01
8.41809e-03,5.40101e+01
8.52532e-03,5.14682e+01
8.63391e-03,4.90437e+01
8.74388e-03,4.67314e+01
8.85525e-03,4.45261e+01
8.96805e-03,4.24229e+01
9.08228e-03,4.04170e+01
9.19796e-03,3.85041e+01
9.31512e-03,3.66799e+01
9.43377e-03,3.49403e+01
9.55393e-03,3.32813e+01
9.67563e-03,3.16993e+01
9.79887e-03,3.01908e+01
9.92368e-03,2.87523e+01
1.00501e-02,2.73806e+01
1.01781e-02,2.60726e+01
1.03077e-02,2.48255e+01
1.04390e-02,2.36363e+01
1.05720e-02,2.25024e+01
1.07067e-02,2.14213e+01
1.08430e-02,2.03905e+01
1.09811e-02,1.94077e+01
1.11210e-02,1.84707e+01
1.12627e-02,1.75773e+01
1.14061e-02,1.67255e+01
1.15514e-02,1.59135e+01
1.16985e-02,1.51393e+01
1.18476e-02,1.44011e+01
1.19985e-02,1.36975e+01
1.21513e-02,1.30266e+01
1.23061e-02,1.23871e+01
1.24628e-02,1.17774e+01
1.26216e-02,1.11962e+01
1.27823e-02,1.06421e+01
1.29451e-02,1.01139e+01
1.31100e-02,9.61041e+00
1.32770e-02,9.13042e+00
1.34461e-02,8.67288e+00
1.36174e-02,8.23673e+00
1.37908e-02,7.82097e+00
1.39665e-02,7.42466e+00
1.41444e-02,7.04689e+00
1.43246e-02,6.68680e+00
1.45070e-02,6.34356e+00
1.46918e-02,6.01639e+00
1.48789e-02,5.70454e+00
1.50685e-02,5.40728e+00
1.52604e-02,5.12396e+00
1.54548e-02,4.85390e+00
1.56516e-02,4.59650e+00
1.58510e-02,4.35115e+00
1.60529e-02,4.11731e+00
1.62574e-02,3.89443e+00
1.64644e-02,3.68200e+00
1.66742e-02,3.47953e+00
1.68865e-02,3.28655e+00
1.71016e-02,3.10263e+00
1.73195e-02,2.92733e+00
1.75401e-02,2.76026e+00
1.77635e-02,2.60103e+00
1.79897e-02,2.44927e+00
1.82189e-02,2.30463e+00
1.84509e-02,2.16678e+00
1.86860e-02,2.03541e+00
1.89240e-02,1.91020e+00
1.91650e-02,1.79088e+00
1.94091e-02,1.67715e+00
1.96563e-02,1.56877e+00
1.99067e-02,1.46549e+00
2.01603e-02,1.36705e+00
2.04171e-02,1.27324e+00
2.06771e-02,1.18384e+00
2.09405e-02,1.09864e+00
2.12072e-02,1.01744e+00
2.14774e-02,9.40063e-01
2.17509e-02,8.66322e-01
2.20280e-02,7.96048e-01
2.23086e-02,7.29078e-01
2.25927e-02,6.65258e-01
2.28805e-02,6.04439e-01
2.31719e-02,5.46481e-01
2.34671e-02,4.91249e-01
2.37660e-02,4.38616e-01
2.40687e-02,3.88459e-01
2.43753e-02,3.40661e-01
2.46857e-02,2.95113e-01
2.50002e-02,2.51708e-01
2.53186e-02,2.10346e-01
2.56411e-02,1.70931e-01
2.59677e-02,1.33371e-01
2.62985e-02,9.75792e-02
2.66334e-02,6.34722e-02
2.69727e-02,3.09710e-02
2.73162e-02,0.00000e+00
