m1=83940.794, m2=75.473, gsp=2.335, rhosp=844.157
fGW[Hz],dPh[rad]
1.47807e-03,1.78215e+04
1.50481e-03,1.70805e+04
1.53204e-03,1.63688e+04
1.55976e-03,1.56852e+04
1.58798e-03,1.50287e+04
1.61671e-03,1.43983e+04
1.64596e-03,1.37930e+04
1.67574e-03,1.32118e+04
1.70606e-03,1.26537e+04
1.73693e-03,1.21180e+04
1.76835e-03,1.16037e+04
1.80035e-03,1.11101e+04
1.83292e-03,1.06363e+04
1.86608e-03,1.01815e+04
1.89985e-03,9.74511e+03
1.93422e-03,9.32634e+03
1.96921e-03,8.92453e+03
2.00484e-03,8.53901e+03
2.04112e-03,8.16917e+03
2.07805e-03,7.81440e+03
2.11564e-03,7.47411e+03
2.15392e-03,7.14774e+03
2.19289e-03,6.83475e+03
2.23257e-03,6.53463e+03
2.27296e-03,6.24687e+03
2.31409e-03,5.97099e+03
2.35595e-03,5.70652e+03
2.39858e-03,5.45303e+03
2.44198e-03,5.21008e+03
2.48616e-03,4.97726e+03
2.53114e-03,4.75417e+03
2.57694e-03,4.54043e+03
2.62356e-03,4.33566e+03
2.67103e-03,4.13953e+03
2.71935e-03,3.95168e+03
2.76856e-03,3.77178e+03
2.81865e-03,3.59953e+03
2.86964e-03,3.43462e+03
2.92156e-03,3.27675e+03
2.97442e-03,3.12564e+03
3.02824e-03,2.98103e+03
3.08303e-03,2.84265e+03
3.13881e-03,2.71026e+03
3.19560e-03,2.58361e+03
3.25342e-03,2.46247e+03
3.31228e-03,2.34661e+03
3.37221e-03,2.23583e+03
3.43322e-03,2.12992e+03
3.49534e-03,2.02867e+03
3.55858e-03,1.93190e+03
3.62296e-03,1.83943e+03
3.68851e-03,1.75107e+03
3.75525e-03,1.66666e+03
3.82319e-03,1.58604e+03
3.89236e-03,1.50904e+03
3.96279e-03,1.43552e+03
4.03448e-03,1.36534e+03
4.10748e-03,1.29834e+03
4.18180e-03,1.23441e+03
4.25746e-03,1.17340e+03
4.33449e-03,1.11520e+03
4.41291e-03,1.05969e+03
4.49275e-03,1.00675e+03
4.57404e-03,9.56270e+02
4.65679e-03,9.08150e+02
4.74105e-03,8.62286e+02
4.82683e-03,8.18581e+02
4.91416e-03,7.76940e+02
5.00307e-03,7.37275e+02
5.09359e-03,6.99499e+02
5.18575e-03,6.63529e+02
5.27957e-03,6.29285e+02
5.37509e-03,5.96692e+02
5.47234e-03,5.65677e+02
5.57135e-03,5.36168e+02
5.67216e-03,5.08098e+02
5.77478e-03,4.81404e+02
5.87926e-03,4.56022e+02
5.98564e-03,4.31893e+02
6.09393e-03,4.08961e+02
6.20419e-03,3.87170e+02
6.31644e-03,3.66468e+02
6.43072e-03,3.46805e+02
6.54707e-03,3.28133e+02
6.66553e-03,3.10405e+02
6.78613e-03,2.93578e+02
6.90891e-03,2.77610e+02
7.03391e-03,2.62458e+02
7.16117e-03,2.48086e+02
7.29074e-03,2.34456e+02
7.42265e-03,2.21532e+02
7.55694e-03,2.09280e+02
7.69367e-03,1.97668e+02
7.83287e-03,1.86666e+02
7.97459e-03,1.76242e+02
8.11887e-03,1.66369e+02
8.26577e-03,1.57020e+02
8.41532e-03,1.48169e+02
8.56757e-03,1.39791e+02
8.72258e-03,1.31862e+02
8.88040e-03,1.24361e+02
9.04107e-03,1.17265e+02
9.20465e-03,1.10553e+02
9.37119e-03,1.04208e+02
9.54074e-03,9.82090e+01
9.71336e-03,9.25392e+01
9.88910e-03,8.71814e+01
1.00680e-02,8.21195e+01
1.02502e-02,7.73382e+01
1.04356e-02,7.28227e+01
1.06244e-02,6.85592e+01
1.08167e-02,6.45345e+01
1.10124e-02,6.07357e+01
1.12116e-02,5.71511e+01
1.14145e-02,5.37691e+01
1.16210e-02,5.05789e+01
1.18312e-02,4.75702e+01
1.20453e-02,4.47332e+01
1.22632e-02,4.20585e+01
1.24851e-02,3.95375e+01
1.27110e-02,3.71615e+01
1.29410e-02,3.49228e+01
1.31751e-02,3.28137e+01
1.34135e-02,3.08271e+01
1.36562e-02,2.89562e+01
1.39033e-02,2.71945e+01
1.41548e-02,2.55360e+01
1.44109e-02,2.39748e+01
1.46717e-02,2.25055e+01
1.49371e-02,2.11229e+01
1.52074e-02,1.98221e+01
1.54825e-02,1.85984e+01
1.57626e-02,1.74474e+01
1.60478e-02,1.63650e+01
1.63382e-02,1.53472e+01
1.66338e-02,1.43903e+01
1.69347e-02,1.34908e+01
1.72411e-02,1.26454e+01
1.75531e-02,1.18509e+01
1.78706e-02,1.11044e+01
1.81940e-02,1.04030e+01
1.85232e-02,9.74412e+00
1.88583e-02,9.12525e+00
1.91995e-02,8.54403e+00
1.95469e-02,7.99824e+00
1.99005e-02,7.48578e+00
2.02606e-02,7.00467e+00
2.06271e-02,6.55304e+00
2.10004e-02,6.12914e+00
2.13803e-02,5.73130e+00
2.17671e-02,5.35796e+00
2.21610e-02,5.00766e+00
2.25619e-02,4.67900e+00
2.29701e-02,4.37067e+00
2.33857e-02,4.08146e+00
2.38088e-02,3.81019e+00
2.42396e-02,3.55578e+00
2.46782e-02,3.31721e+00
2.51247e-02,3.09350e+00
2.55792e-02,2.88376e+00
2.60420e-02,2.68712e+00
2.65132e-02,2.50278e+00
2.69929e-02,2.32999e+00
2.74813e-02,2.16804e+00
2.79785e-02,2.01626e+00
2.84847e-02,1.87401e+00
2.90001e-02,1.74072e+00
2.95248e-02,1.61583e+00
3.00590e-02,1.49881e+00
3.06028e-02,1.38918e+00
3.11565e-02,1.28648e+00
3.17202e-02,1.19027e+00
3.22941e-02,1.10016e+00
3.28784e-02,1.01575e+00
3.34733e-02,9.36703e-01
3.40789e-02,8.62672e-01
3.46955e-02,7.93345e-01
3.53232e-02,7.28427e-01
3.59623e-02,6.67640e-01
3.66130e-02,6.10726e-01
3.72754e-02,5.57440e-01
3.79498e-02,5.07553e-01
3.86365e-02,4.60851e-01
3.93355e-02,4.17132e-01
4.00472e-02,3.76209e-01
4.07718e-02,3.37903e-01
4.15094e-02,3.02050e-01
4.22605e-02,2.68493e-01
4.30251e-02,2.37087e-01
4.38035e-02,2.07696e-01
4.45960e-02,1.80190e-01
4.54029e-02,1.54451e-01
4.62244e-02,1.30365e-01
4.70607e-02,1.07828e-01
4.79122e-02,8.67395e-02
4.87790e-02,6.70084e-02
4.96616e-02,4.85476e-02
5.05601e-02,3.12758e-02
5.14749e-02,1.51170e-02
5.24062e-02,0.00000e+00
