m1=22280.407, m2=4.754, gsp=2.001, rhosp=3093.838
fGW[Hz],dPh[rad]
5.80674e-03,4.41549e+02
5.91055e-03,4.20030e+02
6.01621e-03,3.99501e+02
6.12376e-03,3.79918e+02
6.23324e-03,3.61240e+02
6.34467e-03,3.43428e+02
6.45809e-03,3.26443e+02
6.57354e-03,3.10250e+02
6.69105e-03,2.94814e+02
6.81067e-03,2.80101e+02
6.93242e-03,2.66079e+02
7.05635e-03,2.52718e+02
7.18250e-03,2.39988e+02
7.31090e-03,2.27862e+02
7.44159e-03,2.16313e+02
7.57463e-03,2.05314e+02
7.71004e-03,1.94841e+02
7.84787e-03,1.84871e+02
7.98816e-03,1.75381e+02
8.13097e-03,1.66348e+02
8.27632e-03,1.57754e+02
8.42428e-03,1.49577e+02
8.57487e-03,1.41798e+02
8.72817e-03,1.34400e+02
8.88420e-03,1.27365e+02
9.04302e-03,1.20677e+02
9.20468e-03,1.14319e+02
9.36923e-03,1.08276e+02
9.53672e-03,1.02533e+02
9.70721e-03,9.70776e+01
9.88074e-03,9.18951e+01
1.00574e-02,8.69730e+01
1.02372e-02,8.22991e+01
1.04202e-02,7.78618e+01
1.06065e-02,7.36499e+01
1.07961e-02,6.96527e+01
1.09891e-02,6.58599e+01
1.11855e-02,6.22618e+01
1.13855e-02,5.88492e+01
1.15890e-02,5.56130e+01
1.17962e-02,5.25447e+01
1.20071e-02,4.96363e+01
1.22217e-02,4.68798e+01
1.24402e-02,4.42681e+01
1.26626e-02,4.17938e+01
1.28890e-02,3.94503e+01
1.31194e-02,3.72311e+01
1.33539e-02,3.51301e+01
1.35926e-02,3.31413e+01
1.38356e-02,3.12592e+01
1.40830e-02,2.94784e+01
1.43347e-02,2.77938e+01
1.45910e-02,2.62006e+01
1.48518e-02,2.46940e+01
1.51173e-02,2.32697e+01
1.53876e-02,2.19235e+01
1.56627e-02,2.06514e+01
1.59427e-02,1.94495e+01
1.62277e-02,1.83141e+01
1.65178e-02,1.72419e+01
1.68131e-02,1.62295e+01
1.71136e-02,1.52738e+01
1.74196e-02,1.43718e+01
1.77310e-02,1.35207e+01
1.80479e-02,1.27177e+01
1.83706e-02,1.19604e+01
1.86990e-02,1.12461e+01
1.90333e-02,1.05727e+01
1.93735e-02,9.93793e+00
1.97199e-02,9.33967e+00
2.00724e-02,8.77595e+00
2.04312e-02,8.24489e+00
2.07965e-02,7.74468e+00
2.11682e-02,7.27363e+00
2.15467e-02,6.83013e+00
2.19318e-02,6.41265e+00
2.23239e-02,6.01974e+00
2.27230e-02,5.65001e+00
2.31292e-02,5.30218e+00
2.35427e-02,4.97500e+00
2.39636e-02,4.66730e+00
2.43919e-02,4.37799e+00
2.48280e-02,4.10600e+00
2.52718e-02,3.85035e+00
2.57236e-02,3.61011e+00
2.61835e-02,3.38437e+00
2.66516e-02,3.17231e+00
2.71280e-02,2.97313e+00
2.76130e-02,2.78608e+00
2.81066e-02,2.61044e+00
2.86091e-02,2.44556e+00
2.91205e-02,2.29079e+00
2.96411e-02,2.14555e+00
3.01710e-02,2.00926e+00
3.07103e-02,1.88139e+00
3.12593e-02,1.76145e+00
3.18182e-02,1.64895e+00
3.23870e-02,1.54346e+00
3.29659e-02,1.44455e+00
3.35553e-02,1.35182e+00
3.41551e-02,1.26490e+00
3.47657e-02,1.18343e+00
3.53872e-02,1.10709e+00
3.60198e-02,1.03557e+00
3.66637e-02,9.68560e-01
3.73192e-02,9.05793e-01
3.79863e-02,8.47005e-01
3.86654e-02,7.91952e-01
3.93566e-02,7.40403e-01
4.00602e-02,6.92141e-01
4.07763e-02,6.46961e-01
4.15053e-02,6.04671e-01
4.22473e-02,5.65092e-01
4.30025e-02,5.28054e-01
4.37713e-02,4.93397e-01
4.45538e-02,4.60972e-01
4.53502e-02,4.30638e-01
4.61610e-02,4.02264e-01
4.69862e-02,3.75725e-01
4.78261e-02,3.50906e-01
4.86811e-02,3.27697e-01
4.95514e-02,3.05995e-01
5.04372e-02,2.85706e-01
5.13389e-02,2.66738e-01
5.22566e-02,2.49007e-01
5.31908e-02,2.32434e-01
5.41417e-02,2.16944e-01
5.51096e-02,2.02469e-01
5.60948e-02,1.88942e-01
5.70976e-02,1.76303e-01
5.81183e-02,1.64494e-01
5.91573e-02,1.53462e-01
6.02148e-02,1.43155e-01
6.12913e-02,1.33528e-01
6.23869e-02,1.24536e-01
6.35022e-02,1.16138e-01
6.46374e-02,1.08295e-01
6.57930e-02,1.00970e-01
6.69691e-02,9.41306e-02
6.81663e-02,8.77444e-02
6.93849e-02,8.17818e-02
7.06253e-02,7.62150e-02
7.18879e-02,7.10180e-02
7.31730e-02,6.61666e-02
7.44811e-02,6.16380e-02
7.58126e-02,5.74110e-02
7.71679e-02,5.34657e-02
7.85474e-02,4.97835e-02
7.99516e-02,4.63470e-02
8.13808e-02,4.31401e-02
8.28357e-02,4.01474e-02
8.43165e-02,3.73549e-02
8.58238e-02,3.47493e-02
8.73581e-02,3.23181e-02
8.89198e-02,3.00498e-02
9.05094e-02,2.79335e-02
9.21274e-02,2.59592e-02
9.37744e-02,2.41174e-02
9.54507e-02,2.23992e-02
9.71571e-02,2.07965e-02
9.88940e-02,1.93015e-02
1.00662e-01,1.79070e-02
1.02461e-01,1.66063e-02
1.04293e-01,1.53932e-02
1.06158e-01,1.42618e-02
1.08055e-01,1.32066e-02
1.09987e-01,1.22226e-02
1.11953e-01,1.13049e-02
1.13955e-01,1.04491e-02
1.15992e-01,9.65102e-03
1.18065e-01,8.90684e-03
1.20176e-01,8.21292e-03
1.22324e-01,7.56589e-03
1.24511e-01,6.96258e-03
1.26737e-01,6.40006e-03
1.29003e-01,5.87558e-03
1.31309e-01,5.38658e-03
1.33656e-01,4.93068e-03
1.36045e-01,4.50563e-03
1.38477e-01,4.10937e-03
1.40953e-01,3.73995e-03
1.43473e-01,3.39556e-03
1.46038e-01,3.07450e-03
1.48648e-01,2.77521e-03
1.51306e-01,2.49622e-03
1.54011e-01,2.23615e-03
1.56764e-01,1.99372e-03
1.59566e-01,1.76774e-03
1.62419e-01,1.55710e-03
1.65322e-01,1.36076e-03
1.68278e-01,1.17775e-03
1.71286e-01,1.00717e-03
1.74348e-01,8.48179e-04
1.77465e-01,6.99990e-04
1.80637e-01,5.61872e-04
1.83867e-01,4.33142e-04
1.87154e-01,3.13164e-04
1.90499e-01,2.01343e-04
1.93905e-01,9.71272e-05
1.97371e-01,0.00000e+00
