m1=4236.603, m2=3.401, gsp=2.324, rhosp=87.618
fGW[Hz],dPh[rad]
9.97163e-03,3.41287e+04
1.02072e-02,3.24230e+04
1.04482e-02,3.08008e+04
1.06950e-02,2.92582e+04
1.09476e-02,2.77912e+04
1.12062e-02,2.63962e+04
1.14709e-02,2.50697e+04
1.17418e-02,2.38084e+04
1.20192e-02,2.26091e+04
1.23030e-02,2.14687e+04
1.25936e-02,2.03845e+04
1.28911e-02,1.93537e+04
1.31956e-02,1.83738e+04
1.35072e-02,1.74421e+04
1.38263e-02,1.65565e+04
1.41528e-02,1.57146e+04
1.44871e-02,1.49143e+04
1.48293e-02,1.41536e+04
1.51795e-02,1.34306e+04
1.55381e-02,1.27434e+04
1.59051e-02,1.20904e+04
1.62807e-02,1.14697e+04
1.66653e-02,1.08800e+04
1.70589e-02,1.03195e+04
1.74618e-02,9.78700e+03
1.78742e-02,9.28103e+03
1.82964e-02,8.80032e+03
1.87286e-02,8.34363e+03
1.91709e-02,7.90979e+03
1.96237e-02,7.49768e+03
2.00872e-02,7.10624e+03
2.05617e-02,6.73446e+03
2.10473e-02,6.38138e+03
2.15444e-02,6.04607e+03
2.20533e-02,5.72767e+03
2.25742e-02,5.42535e+03
2.31074e-02,5.13831e+03
2.36531e-02,4.86582e+03
2.42118e-02,4.60715e+03
2.47837e-02,4.36162e+03
2.53690e-02,4.12858e+03
2.59682e-02,3.90743e+03
2.65816e-02,3.69757e+03
2.72094e-02,3.49845e+03
2.78521e-02,3.30953e+03
2.85099e-02,3.13032e+03
2.91833e-02,2.96033e+03
2.98726e-02,2.79910e+03
3.05782e-02,2.64621e+03
3.13004e-02,2.50123e+03
3.20397e-02,2.36378e+03
3.27965e-02,2.23347e+03
3.35711e-02,2.10996e+03
3.43640e-02,1.99290e+03
3.51757e-02,1.88198e+03
3.60065e-02,1.77688e+03
3.68569e-02,1.67731e+03
3.77275e-02,1.58300e+03
3.86186e-02,1.49369e+03
3.95307e-02,1.40911e+03
4.04644e-02,1.32904e+03
4.14201e-02,1.25324e+03
4.23984e-02,1.18150e+03
4.33999e-02,1.11361e+03
4.44249e-02,1.04938e+03
4.54742e-02,9.88625e+02
4.65483e-02,9.31162e+02
4.76477e-02,8.76826e+02
4.87731e-02,8.25456e+02
4.99251e-02,7.76901e+02
5.11043e-02,7.31015e+02
5.23113e-02,6.87661e+02
5.35469e-02,6.46709e+02
5.48116e-02,6.08033e+02
5.61063e-02,5.71515e+02
5.74314e-02,5.37044e+02
5.87879e-02,5.04511e+02
6.01765e-02,4.73816e+02
6.15978e-02,4.44862e+02
6.30527e-02,4.17557e+02
6.45419e-02,3.91813e+02
6.60664e-02,3.67548e+02
6.76268e-02,3.44684e+02
6.92241e-02,3.23144e+02
7.08591e-02,3.02858e+02
7.25328e-02,2.83759e+02
7.42459e-02,2.65781e+02
7.59996e-02,2.48865e+02
7.77946e-02,2.32953e+02
7.96321e-02,2.17988e+02
8.15129e-02,2.03920e+02
8.34382e-02,1.90698e+02
8.54089e-02,1.78276e+02
8.74262e-02,1.66609e+02
8.94912e-02,1.55655e+02
9.16049e-02,1.45373e+02
9.37685e-02,1.35726e+02
9.59833e-02,1.26677e+02
9.82503e-02,1.18193e+02
1.00571e-01,1.10240e+02
1.02946e-01,1.02788e+02
1.05378e-01,9.58074e+01
1.07867e-01,8.92715e+01
1.10415e-01,8.31538e+01
1.13022e-01,7.74296e+01
1.15692e-01,7.20755e+01
1.18424e-01,6.70694e+01
1.21222e-01,6.23903e+01
1.24085e-01,5.80185e+01
1.27016e-01,5.39354e+01
1.30016e-01,5.01231e+01
1.33086e-01,4.65652e+01
1.36230e-01,4.32457e+01
1.39447e-01,4.01500e+01
1.42741e-01,3.72639e+01
1.46113e-01,3.45742e+01
1.49564e-01,3.20686e+01
1.53096e-01,2.97352e+01
1.56712e-01,2.75630e+01
1.60414e-01,2.55415e+01
1.64203e-01,2.36611e+01
1.68081e-01,2.19125e+01
1.72051e-01,2.02870e+01
1.76115e-01,1.87765e+01
1.80274e-01,1.73734e+01
1.84532e-01,1.60704e+01
1.88891e-01,1.48608e+01
1.93352e-01,1.37384e+01
1.97919e-01,1.26972e+01
2.02594e-01,1.17316e+01
2.07379e-01,1.08364e+01
2.12277e-01,1.00068e+01
2.17291e-01,9.23821e+00
2.22423e-01,8.52637e+00
2.27676e-01,7.86729e+00
2.33054e-01,7.25725e+00
2.38559e-01,6.69278e+00
2.44193e-01,6.17061e+00
2.49961e-01,5.68772e+00
2.55865e-01,5.24128e+00
2.61908e-01,4.82867e+00
2.68094e-01,4.44741e+00
2.74426e-01,4.09522e+00
2.80908e-01,3.76997e+00
2.87543e-01,3.46968e+00
2.94334e-01,3.19250e+00
3.01286e-01,2.93672e+00
3.08402e-01,2.70074e+00
3.15687e-01,2.48308e+00
3.23143e-01,2.28237e+00
3.30775e-01,2.09732e+00
3.38588e-01,1.92676e+00
3.46585e-01,1.76958e+00
3.54771e-01,1.62476e+00
3.63151e-01,1.49136e+00
3.71728e-01,1.36850e+00
3.80508e-01,1.25538e+00
3.89495e-01,1.15123e+00
3.98695e-01,1.05537e+00
4.08112e-01,9.67145e-01
4.17751e-01,8.85970e-01
4.27618e-01,8.11291e-01
4.37718e-01,7.42600e-01
4.48057e-01,6.79426e-01
4.58640e-01,6.21336e-01
4.69472e-01,5.67929e-01
4.80561e-01,5.18833e-01
4.91911e-01,4.73708e-01
5.03530e-01,4.32238e-01
5.15423e-01,3.94132e-01
5.27597e-01,3.59122e-01
5.40058e-01,3.26960e-01
5.52814e-01,2.97417e-01
5.65871e-01,2.70285e-01
5.79237e-01,2.45369e-01
5.92918e-01,2.22490e-01
6.06922e-01,2.01485e-01
6.21257e-01,1.82201e-01
6.35931e-01,1.64500e-01
6.50951e-01,1.48253e-01
6.66326e-01,1.33342e-01
6.82064e-01,1.19658e-01
6.98174e-01,1.07102e-01
7.14664e-01,9.55818e-02
7.31544e-01,8.50123e-02
7.48822e-01,7.53162e-02
7.66509e-01,6.64218e-02
7.84613e-01,5.82635e-02
8.03145e-01,5.07810e-02
8.22115e-01,4.39186e-02
8.41533e-01,3.76255e-02
8.61409e-01,3.18547e-02
8.81755e-01,2.65633e-02
9.02581e-01,2.17117e-02
9.23900e-01,1.72636e-02
9.45722e-01,1.31857e-02
9.68059e-01,9.44730e-03
9.90924e-01,6.02042e-03
1.01433e+00,2.87921e-03
1.03829e+00,0.00000e+00
