m1=59028.755, m2=60.707, gsp=2.472, rhosp=809.305
fGW[Hz],dPh[rad]
1.75140e-03,1.79381e+05
1.78472e-03,1.72016e+05
1.81868e-03,1.64940e+05
1.85329e-03,1.58141e+05
1.88855e-03,1.51609e+05
1.92448e-03,1.45334e+05
1.96110e-03,1.39306e+05
1.99841e-03,1.33516e+05
2.03643e-03,1.27953e+05
2.07518e-03,1.22611e+05
2.11466e-03,1.17481e+05
2.15490e-03,1.12553e+05
2.19590e-03,1.07822e+05
2.23768e-03,1.03278e+05
2.28026e-03,9.89161e+04
2.32364e-03,9.47278e+04
2.36785e-03,9.07069e+04
2.41291e-03,8.68471e+04
2.45882e-03,8.31421e+04
2.50560e-03,7.95860e+04
2.55327e-03,7.61731e+04
2.60186e-03,7.28979e+04
2.65136e-03,6.97551e+04
2.70181e-03,6.67396e+04
2.75321e-03,6.38465e+04
2.80560e-03,6.10710e+04
2.85898e-03,5.84087e+04
2.91338e-03,5.58551e+04
2.96881e-03,5.34061e+04
3.02530e-03,5.10575e+04
3.08286e-03,4.88055e+04
3.14151e-03,4.66464e+04
3.20129e-03,4.45765e+04
3.26220e-03,4.25923e+04
3.32427e-03,4.06906e+04
3.38752e-03,3.88680e+04
3.45197e-03,3.71215e+04
3.51765e-03,3.54481e+04
3.58458e-03,3.38450e+04
3.65278e-03,3.23093e+04
3.72228e-03,3.08384e+04
3.79311e-03,2.94297e+04
3.86528e-03,2.80809e+04
3.93882e-03,2.67895e+04
4.01376e-03,2.55532e+04
4.09013e-03,2.43699e+04
4.16796e-03,2.32374e+04
4.24726e-03,2.21537e+04
4.32807e-03,2.11169e+04
4.41042e-03,2.01251e+04
4.49434e-03,1.91764e+04
4.57985e-03,1.82691e+04
4.66699e-03,1.74017e+04
4.75579e-03,1.65723e+04
4.84627e-03,1.57796e+04
4.93848e-03,1.50219e+04
5.03245e-03,1.42979e+04
5.12820e-03,1.36062e+04
5.22577e-03,1.29455e+04
5.32520e-03,1.23145e+04
5.42652e-03,1.17119e+04
5.52977e-03,1.11366e+04
5.63498e-03,1.05875e+04
5.74220e-03,1.00634e+04
5.85146e-03,9.56332e+03
5.96279e-03,9.08625e+03
6.07624e-03,8.63120e+03
6.19185e-03,8.19726e+03
6.30967e-03,7.78351e+03
6.42972e-03,7.38911e+03
6.55206e-03,7.01322e+03
6.67672e-03,6.65506e+03
6.80376e-03,6.31384e+03
6.93321e-03,5.98885e+03
7.06513e-03,5.67937e+03
7.19955e-03,5.38474e+03
7.33654e-03,5.10429e+03
7.47613e-03,4.83740e+03
7.61838e-03,4.58348e+03
7.76333e-03,4.34195e+03
7.91104e-03,4.11225e+03
8.06156e-03,3.89386e+03
8.21495e-03,3.68627e+03
8.37125e-03,3.48898e+03
8.53053e-03,3.30153e+03
8.69284e-03,3.12348e+03
8.85823e-03,2.95438e+03
9.02678e-03,2.79383e+03
9.19853e-03,2.64143e+03
9.37355e-03,2.49680e+03
9.55190e-03,2.35958e+03
9.73364e-03,2.22941e+03
9.91884e-03,2.10598e+03
1.01076e-02,1.98895e+03
1.02999e-02,1.87801e+03
1.04958e-02,1.77289e+03
1.06956e-02,1.67330e+03
1.08991e-02,1.57896e+03
1.11064e-02,1.48963e+03
1.13177e-02,1.40505e+03
1.15331e-02,1.32500e+03
1.17525e-02,1.24925e+03
1.19761e-02,1.17759e+03
1.22040e-02,1.10981e+03
1.24362e-02,1.04572e+03
1.26728e-02,9.85121e+02
1.29140e-02,9.27851e+02
1.31597e-02,8.73734e+02
1.34101e-02,8.22608e+02
1.36652e-02,7.74320e+02
1.39252e-02,7.28723e+02
1.41902e-02,6.85677e+02
1.44602e-02,6.45047e+02
1.47353e-02,6.06708e+02
1.50156e-02,5.70537e+02
1.53013e-02,5.36421e+02
1.55925e-02,5.04249e+02
1.58892e-02,4.73917e+02
1.61915e-02,4.45326e+02
1.64995e-02,4.18383e+02
1.68135e-02,3.92996e+02
1.71334e-02,3.69082e+02
1.74594e-02,3.46560e+02
1.77916e-02,3.25353e+02
1.81301e-02,3.05388e+02
1.84751e-02,2.86596e+02
1.88266e-02,2.68912e+02
1.91848e-02,2.52274e+02
1.95498e-02,2.36622e+02
1.99218e-02,2.21902e+02
2.03008e-02,2.08060e+02
2.06871e-02,1.95046e+02
2.10807e-02,1.82813e+02
2.14818e-02,1.71317e+02
2.18905e-02,1.60514e+02
2.23070e-02,1.50364e+02
2.27315e-02,1.40830e+02
2.31640e-02,1.31876e+02
2.36047e-02,1.23468e+02
2.40538e-02,1.15574e+02
2.45115e-02,1.08163e+02
2.49779e-02,1.01207e+02
2.54531e-02,9.46800e+01
2.59374e-02,8.85552e+01
2.64309e-02,8.28091e+01
2.69338e-02,7.74191e+01
2.74463e-02,7.23637e+01
2.79685e-02,6.76229e+01
2.85006e-02,6.31777e+01
2.90429e-02,5.90101e+01
2.95955e-02,5.51035e+01
3.01586e-02,5.14418e+01
3.07324e-02,4.80101e+01
3.13172e-02,4.47945e+01
3.19130e-02,4.17815e+01
3.25202e-02,3.89589e+01
3.31390e-02,3.63148e+01
3.37695e-02,3.38383e+01
3.44120e-02,3.15190e+01
3.50668e-02,2.93471e+01
3.57340e-02,2.73135e+01
3.64139e-02,2.54095e+01
3.71068e-02,2.36271e+01
3.78128e-02,2.19586e+01
3.85322e-02,2.03970e+01
3.92654e-02,1.89355e+01
4.00125e-02,1.75678e+01
4.07738e-02,1.62880e+01
4.15496e-02,1.50906e+01
4.23401e-02,1.39703e+01
4.31457e-02,1.29223e+01
4.39666e-02,1.19419e+01
4.48032e-02,1.10250e+01
4.56557e-02,1.01674e+01
4.65243e-02,9.36531e+00
4.74095e-02,8.61528e+00
4.83116e-02,7.91393e+00
4.92308e-02,7.25816e+00
5.01675e-02,6.64504e+00
5.11220e-02,6.07184e+00
5.20947e-02,5.53598e+00
5.30859e-02,5.03507e+00
5.40960e-02,4.56685e+00
5.51252e-02,4.12922e+00
5.61741e-02,3.72020e+00
5.72429e-02,3.33793e+00
5.83321e-02,2.98070e+00
5.94419e-02,2.64687e+00
6.05729e-02,2.33493e+00
6.17254e-02,2.04345e+00
6.28999e-02,1.77111e+00
6.40967e-02,1.51667e+00
6.53162e-02,1.27895e+00
6.65590e-02,1.05686e+00
6.78254e-02,8.49397e-01
6.91159e-02,6.55594e-01
7.04309e-02,4.74561e-01
7.17710e-02,3.05463e-01
7.31366e-02,1.47520e-01
7.45281e-02,0.00000e+00
