m1=137484.292, m2=3.547, gsp=2.340, rhosp=563.732
fGW[Hz],dPh[rad]
4.11181e-03,3.19946e+04
4.15441e-03,3.07999e+04
4.19746e-03,2.96494e+04
4.24095e-03,2.85415e+04
4.28489e-03,2.74746e+04
4.32929e-03,2.64472e+04
4.37415e-03,2.54578e+04
4.41947e-03,2.45052e+04
4.46526e-03,2.35878e+04
4.51153e-03,2.27045e+04
4.55828e-03,2.18540e+04
4.60551e-03,2.10351e+04
4.65323e-03,2.02466e+04
4.70144e-03,1.94875e+04
4.75016e-03,1.87565e+04
4.79937e-03,1.80527e+04
4.84910e-03,1.73752e+04
4.89935e-03,1.67228e+04
4.95011e-03,1.60948e+04
5.00140e-03,1.54902e+04
5.05322e-03,1.49081e+04
5.10558e-03,1.43477e+04
5.15848e-03,1.38082e+04
5.21193e-03,1.32888e+04
5.26594e-03,1.27889e+04
5.32050e-03,1.23076e+04
5.37563e-03,1.18443e+04
5.43133e-03,1.13983e+04
5.48760e-03,1.09689e+04
5.54446e-03,1.05556e+04
5.60191e-03,1.01578e+04
5.65996e-03,9.77490e+03
5.71860e-03,9.40631e+03
5.77786e-03,9.05151e+03
5.83772e-03,8.71000e+03
5.89821e-03,8.38129e+03
5.95933e-03,8.06490e+03
6.02107e-03,7.76037e+03
6.08346e-03,7.46726e+03
6.14649e-03,7.18514e+03
6.21018e-03,6.91361e+03
6.27453e-03,6.65227e+03
6.33954e-03,6.40074e+03
6.40523e-03,6.15865e+03
6.47160e-03,5.92566e+03
6.53865e-03,5.70142e+03
6.60640e-03,5.48561e+03
6.67485e-03,5.27791e+03
6.74401e-03,5.07802e+03
6.81389e-03,4.88564e+03
6.88449e-03,4.70051e+03
6.95583e-03,4.52233e+03
7.02790e-03,4.35087e+03
7.10072e-03,4.18586e+03
7.17429e-03,4.02706e+03
7.24863e-03,3.87424e+03
7.32374e-03,3.72718e+03
7.39962e-03,3.58565e+03
7.47629e-03,3.44946e+03
7.55376e-03,3.31841e+03
7.63203e-03,3.19229e+03
7.71111e-03,3.07093e+03
7.79101e-03,2.95415e+03
7.87173e-03,2.84177e+03
7.95329e-03,2.73363e+03
8.03570e-03,2.62957e+03
8.11896e-03,2.52944e+03
8.20309e-03,2.43309e+03
8.28809e-03,2.34038e+03
8.37396e-03,2.25117e+03
8.46073e-03,2.16533e+03
8.54840e-03,2.08272e+03
8.63697e-03,2.00325e+03
8.72646e-03,1.92677e+03
8.81688e-03,1.85318e+03
8.90824e-03,1.78238e+03
9.00054e-03,1.71425e+03
9.09380e-03,1.64870e+03
9.18802e-03,1.58563e+03
9.28322e-03,1.52494e+03
9.37941e-03,1.46655e+03
9.47660e-03,1.41036e+03
9.57479e-03,1.35631e+03
9.67400e-03,1.30430e+03
9.77424e-03,1.25425e+03
9.87551e-03,1.20610e+03
9.97784e-03,1.15978e+03
1.00812e-02,1.11521e+03
1.01857e-02,1.07232e+03
1.02912e-02,1.03106e+03
1.03978e-02,9.91367e+02
1.05056e-02,9.53174e+02
1.06144e-02,9.16427e+02
1.07244e-02,8.81074e+02
1.08355e-02,8.47060e+02
1.09478e-02,8.14335e+02
1.10613e-02,7.82850e+02
1.11759e-02,7.52559e+02
1.12917e-02,7.23417e+02
1.14087e-02,6.95379e+02
1.15269e-02,6.68404e+02
1.16463e-02,6.42453e+02
1.17670e-02,6.17486e+02
1.18889e-02,5.93465e+02
1.20121e-02,5.70356e+02
1.21366e-02,5.48124e+02
1.22623e-02,5.26735e+02
1.23894e-02,5.06158e+02
1.25177e-02,4.86362e+02
1.26474e-02,4.67317e+02
1.27785e-02,4.48995e+02
1.29109e-02,4.31368e+02
1.30447e-02,4.14411e+02
1.31798e-02,3.98097e+02
1.33164e-02,3.82403e+02
1.34544e-02,3.67305e+02
1.35938e-02,3.52780e+02
1.37346e-02,3.38806e+02
1.38769e-02,3.25364e+02
1.40207e-02,3.12432e+02
1.41660e-02,2.99991e+02
1.43128e-02,2.88023e+02
1.44611e-02,2.76509e+02
1.46109e-02,2.65433e+02
1.47623e-02,2.54778e+02
1.49153e-02,2.44528e+02
1.50698e-02,2.34667e+02
1.52260e-02,2.25181e+02
1.53837e-02,2.16056e+02
1.55431e-02,2.07277e+02
1.57042e-02,1.98832e+02
1.58669e-02,1.90708e+02
1.60313e-02,1.82893e+02
1.61974e-02,1.75375e+02
1.63652e-02,1.68143e+02
1.65348e-02,1.61186e+02
1.67061e-02,1.54493e+02
1.68792e-02,1.48055e+02
1.70541e-02,1.41862e+02
1.72308e-02,1.35904e+02
1.74094e-02,1.30173e+02
1.75897e-02,1.24660e+02
1.77720e-02,1.19357e+02
1.79561e-02,1.14255e+02
1.81422e-02,1.09347e+02
1.83302e-02,1.04626e+02
1.85201e-02,1.00085e+02
1.87120e-02,9.57166e+01
1.89059e-02,9.15143e+01
1.91018e-02,8.74719e+01
1.92997e-02,8.35833e+01
1.94997e-02,7.98427e+01
1.97017e-02,7.62445e+01
1.99059e-02,7.27831e+01
2.01121e-02,6.94536e+01
2.03205e-02,6.62507e+01
2.05311e-02,6.31697e+01
2.07438e-02,6.02061e+01
2.09587e-02,5.73552e+01
2.11759e-02,5.46128e+01
2.13953e-02,5.19749e+01
2.16170e-02,4.94373e+01
2.18410e-02,4.69964e+01
2.20673e-02,4.46484e+01
2.22959e-02,4.23898e+01
2.25270e-02,4.02172e+01
2.27604e-02,3.81273e+01
2.29962e-02,3.61170e+01
2.32345e-02,3.41832e+01
2.34752e-02,3.23231e+01
2.37185e-02,3.05338e+01
2.39642e-02,2.88126e+01
2.42125e-02,2.71570e+01
2.44634e-02,2.55645e+01
2.47169e-02,2.40325e+01
2.49730e-02,2.25590e+01
2.52317e-02,2.11416e+01
2.54932e-02,1.97781e+01
2.57573e-02,1.84666e+01
2.60242e-02,1.72050e+01
2.62939e-02,1.59915e+01
2.65663e-02,1.48242e+01
2.68416e-02,1.37014e+01
2.71197e-02,1.26214e+01
2.74007e-02,1.15825e+01
2.76846e-02,1.05832e+01
2.79714e-02,9.62192e+00
2.82613e-02,8.69730e+00
2.85541e-02,7.80790e+00
2.88500e-02,6.95238e+00
2.91489e-02,6.12947e+00
2.94509e-02,5.33790e+00
2.97561e-02,4.57650e+00
3.00644e-02,3.84411e+00
3.03759e-02,3.13963e+00
3.06906e-02,2.46199e+00
3.10086e-02,1.81017e+00
3.13299e-02,1.18319e+00
3.16546e-02,5.80105e-01
3.19826e-02,0.00000e+00
