m1=1128.089, m2=21.850, gsp=2.215, rhosp=4707.278
fGW[Hz],dPh[rad]
6.92589e-03,5.78866e+02
7.15018e-03,5.39817e+02
7.38174e-03,5.03401e+02
7.62080e-03,4.69442e+02
7.86760e-03,4.37772e+02
8.12239e-03,4.08238e+02
8.38544e-03,3.80696e+02
8.65700e-03,3.55011e+02
8.93736e-03,3.31059e+02
9.22680e-03,3.08722e+02
9.52561e-03,2.87891e+02
9.83410e-03,2.68466e+02
1.01526e-02,2.50350e+02
1.04814e-02,2.33456e+02
1.08208e-02,2.17702e+02
1.11712e-02,2.03010e+02
1.15330e-02,1.89309e+02
1.19065e-02,1.76533e+02
1.22921e-02,1.64618e+02
1.26902e-02,1.53506e+02
1.31012e-02,1.43145e+02
1.35255e-02,1.33482e+02
1.39635e-02,1.24471e+02
1.44157e-02,1.16067e+02
1.48825e-02,1.08231e+02
1.53645e-02,1.00923e+02
1.58621e-02,9.41086e+01
1.63758e-02,8.77536e+01
1.69061e-02,8.18273e+01
1.74536e-02,7.63008e+01
1.80189e-02,7.11472e+01
1.86024e-02,6.63413e+01
1.92049e-02,6.18597e+01
1.98268e-02,5.76804e+01
2.04689e-02,5.37831e+01
2.11318e-02,5.01489e+01
2.18162e-02,4.67598e+01
2.25227e-02,4.35995e+01
2.32521e-02,4.06524e+01
2.40051e-02,3.79042e+01
2.47825e-02,3.53415e+01
2.55851e-02,3.29518e+01
2.64137e-02,3.07233e+01
2.72691e-02,2.86453e+01
2.81522e-02,2.67076e+01
2.90639e-02,2.49007e+01
3.00051e-02,2.32157e+01
3.09769e-02,2.16446e+01
3.19801e-02,2.01795e+01
3.30157e-02,1.88133e+01
3.40849e-02,1.75394e+01
3.51888e-02,1.63515e+01
3.63284e-02,1.52439e+01
3.75049e-02,1.42110e+01
3.87195e-02,1.32480e+01
3.99734e-02,1.23500e+01
4.12680e-02,1.15127e+01
4.26044e-02,1.07319e+01
4.39842e-02,1.00039e+01
4.54086e-02,9.32512e+00
4.68792e-02,8.69221e+00
4.83974e-02,8.10208e+00
4.99647e-02,7.55185e+00
5.15828e-02,7.03882e+00
5.32534e-02,6.56049e+00
5.49780e-02,6.11451e+00
5.67585e-02,5.69869e+00
5.85966e-02,5.31101e+00
6.04942e-02,4.94956e+00
6.24534e-02,4.61257e+00
6.44759e-02,4.29839e+00
6.65640e-02,4.00549e+00
6.87197e-02,3.73241e+00
7.09452e-02,3.47783e+00
7.32427e-02,3.24050e+00
7.56147e-02,3.01924e+00
7.80635e-02,2.81299e+00
8.05916e-02,2.62071e+00
8.32016e-02,2.44147e+00
8.58961e-02,2.27439e+00
8.86778e-02,2.11864e+00
9.15497e-02,1.97347e+00
9.45145e-02,1.83814e+00
9.75754e-02,1.71201e+00
1.00735e-01,1.59445e+00
1.03998e-01,1.48487e+00
1.07366e-01,1.38274e+00
1.10843e-01,1.28756e+00
1.14432e-01,1.19885e+00
1.18138e-01,1.11618e+00
1.21964e-01,1.03914e+00
1.25914e-01,9.67343e-01
1.29992e-01,9.00441e-01
1.34202e-01,8.38102e-01
1.38548e-01,7.80015e-01
1.43035e-01,7.25892e-01
1.47667e-01,6.75467e-01
1.52449e-01,6.28487e-01
1.57386e-01,5.84719e-01
1.62483e-01,5.43946e-01
1.67745e-01,5.05965e-01
1.73178e-01,4.70586e-01
1.78786e-01,4.37633e-01
1.84576e-01,4.06941e-01
1.90553e-01,3.78357e-01
1.96725e-01,3.51738e-01
2.03096e-01,3.26950e-01
2.09673e-01,3.03869e-01
2.16463e-01,2.82378e-01
2.23473e-01,2.62370e-01
2.30711e-01,2.43745e-01
2.38182e-01,2.26407e-01
2.45896e-01,2.10269e-01
2.53859e-01,1.95249e-01
2.62080e-01,1.81271e-01
2.70568e-01,1.68265e-01
2.79330e-01,1.56164e-01
2.88376e-01,1.44905e-01
2.97715e-01,1.34432e-01
3.07357e-01,1.24691e-01
3.17311e-01,1.15632e-01
3.27587e-01,1.07207e-01
3.38196e-01,9.93745e-02
3.49148e-01,9.20927e-02
3.60456e-01,8.53241e-02
3.72129e-01,7.90336e-02
3.84180e-01,7.31881e-02
3.96622e-01,6.77571e-02
4.09467e-01,6.27121e-02
4.22728e-01,5.80263e-02
4.36418e-01,5.36752e-02
4.50551e-01,4.96354e-02
4.65142e-01,4.58854e-02
4.80206e-01,4.24052e-02
4.95757e-01,3.91761e-02
5.11813e-01,3.61806e-02
5.28388e-01,3.34024e-02
5.45500e-01,3.08264e-02
5.63166e-01,2.84385e-02
5.81404e-01,2.62255e-02
6.00233e-01,2.41751e-02
6.19671e-01,2.22760e-02
6.39740e-01,2.05175e-02
6.60458e-01,1.88896e-02
6.81847e-01,1.73831e-02
7.03928e-01,1.59895e-02
7.26725e-01,1.47006e-02
7.50260e-01,1.35091e-02
7.74558e-01,1.24080e-02
7.99642e-01,1.13907e-02
8.25538e-01,1.04513e-02
8.52273e-01,9.58422e-03
8.79874e-01,8.78411e-03
9.08369e-01,8.04616e-03
9.37787e-01,7.36582e-03
9.68157e-01,6.73888e-03
9.99511e-01,6.16142e-03
1.03188e+00,5.62977e-03
1.06530e+00,5.14056e-03
1.09980e+00,4.69061e-03
1.13542e+00,4.27698e-03
1.17219e+00,3.89695e-03
1.21015e+00,3.54796e-03
1.24934e+00,3.22767e-03
1.28980e+00,2.93388e-03
1.33157e+00,2.66455e-03
1.37469e+00,2.41779e-03
1.41921e+00,2.19184e-03
1.46517e+00,1.98507e-03
1.51262e+00,1.79598e-03
1.56161e+00,1.62315e-03
1.61218e+00,1.46529e-03
1.66439e+00,1.32120e-03
1.71829e+00,1.18976e-03
1.77394e+00,1.06994e-03
1.83139e+00,9.60787e-04
1.89070e+00,8.61413e-04
1.95193e+00,7.71006e-04
2.01514e+00,6.88811e-04
2.08040e+00,6.14133e-04
2.14778e+00,5.46332e-04
2.21733e+00,4.84815e-04
2.28914e+00,4.29039e-04
2.36328e+00,3.78502e-04
2.43981e+00,3.32742e-04
2.51883e+00,2.91337e-04
2.60040e+00,2.53897e-04
2.68461e+00,2.20064e-04
2.77156e+00,1.89512e-04
2.86131e+00,1.61940e-04
2.95398e+00,1.37074e-04
3.04964e+00,1.14663e-04
3.14840e+00,9.44758e-05
3.25037e+00,7.63043e-05
3.35563e+00,5.99569e-05
3.46430e+00,4.52593e-05
3.57649e+00,3.20528e-05
3.69232e+00,2.01930e-05
3.81190e+00,9.54845e-06
3.93534e+00,0.00000e+00
