m1=328174.730, m2=6.931, gsp=2.014, rhosp=6820.498
fGW[Hz],dPh[rad]
2.57328e-03,1.17421e+02
2.59470e-03,1.13636e+02
2.61630e-03,1.09973e+02
2.63809e-03,1.06426e+02
2.66005e-03,1.02994e+02
2.68220e-03,9.96714e+01
2.70453e-03,9.64555e+01
2.72705e-03,9.33428e+01
2.74975e-03,9.03299e+01
2.77265e-03,8.74137e+01
2.79573e-03,8.45911e+01
2.81901e-03,8.18591e+01
2.84248e-03,7.92148e+01
2.86614e-03,7.66554e+01
2.89001e-03,7.41782e+01
2.91407e-03,7.17807e+01
2.93833e-03,6.94601e+01
2.96279e-03,6.72141e+01
2.98746e-03,6.50403e+01
3.01233e-03,6.29364e+01
3.03741e-03,6.09001e+01
3.06270e-03,5.89293e+01
3.08820e-03,5.70219e+01
3.11391e-03,5.51759e+01
3.13984e-03,5.33892e+01
3.16598e-03,5.16600e+01
3.19234e-03,4.99865e+01
3.21892e-03,4.83668e+01
3.24572e-03,4.67993e+01
3.27274e-03,4.52823e+01
3.29999e-03,4.38141e+01
3.32747e-03,4.23932e+01
3.35517e-03,4.10180e+01
3.38310e-03,3.96872e+01
3.41127e-03,3.83992e+01
3.43967e-03,3.71528e+01
3.46831e-03,3.59465e+01
3.49719e-03,3.47791e+01
3.52630e-03,3.36493e+01
3.55566e-03,3.25559e+01
3.58527e-03,3.14978e+01
3.61512e-03,3.04739e+01
3.64521e-03,2.94829e+01
3.67556e-03,2.85240e+01
3.70617e-03,2.75959e+01
3.73702e-03,2.66978e+01
3.76814e-03,2.58287e+01
3.79951e-03,2.49876e+01
3.83114e-03,2.41737e+01
3.86304e-03,2.33861e+01
3.89520e-03,2.26238e+01
3.92763e-03,2.18862e+01
3.96033e-03,2.11724e+01
3.99331e-03,2.04817e+01
4.02655e-03,1.98133e+01
4.06008e-03,1.91664e+01
4.09388e-03,1.85405e+01
4.12797e-03,1.79347e+01
4.16234e-03,1.73486e+01
4.19699e-03,1.67814e+01
4.23193e-03,1.62325e+01
4.26717e-03,1.57014e+01
4.30270e-03,1.51874e+01
4.33852e-03,1.46900e+01
4.37464e-03,1.42088e+01
4.41106e-03,1.37430e+01
4.44779e-03,1.32924e+01
4.48482e-03,1.28563e+01
4.52216e-03,1.24343e+01
4.55981e-03,1.20260e+01
4.59777e-03,1.16309e+01
4.63605e-03,1.12485e+01
4.67465e-03,1.08786e+01
4.71357e-03,1.05205e+01
4.75282e-03,1.01741e+01
4.79239e-03,9.83892e+00
4.83229e-03,9.51456e+00
4.87252e-03,9.20070e+00
4.91309e-03,8.89700e+00
4.95399e-03,8.60313e+00
4.99524e-03,8.31877e+00
5.03683e-03,8.04361e+00
5.07876e-03,7.77737e+00
5.12105e-03,7.51975e+00
5.16369e-03,7.27047e+00
5.20668e-03,7.02926e+00
5.25003e-03,6.79586e+00
5.29374e-03,6.57002e+00
5.33781e-03,6.35150e+00
5.38225e-03,6.14006e+00
5.42706e-03,5.93546e+00
5.47225e-03,5.73750e+00
5.51781e-03,5.54595e+00
5.56375e-03,5.36060e+00
5.61007e-03,5.18126e+00
5.65678e-03,5.00773e+00
5.70388e-03,4.83983e+00
5.75137e-03,4.67737e+00
5.79925e-03,4.52017e+00
5.84754e-03,4.36807e+00
5.89622e-03,4.22089e+00
5.94531e-03,4.07849e+00
5.99481e-03,3.94071e+00
6.04472e-03,3.80739e+00
6.09505e-03,3.67839e+00
6.14579e-03,3.55358e+00
6.19696e-03,3.43282e+00
6.24856e-03,3.31597e+00
6.30058e-03,3.20291e+00
6.35304e-03,3.09351e+00
6.40593e-03,2.98767e+00
6.45927e-03,2.88525e+00
6.51305e-03,2.78616e+00
6.56727e-03,2.69028e+00
6.62195e-03,2.59752e+00
6.67708e-03,2.50776e+00
6.73268e-03,2.42091e+00
6.78873e-03,2.33688e+00
6.84525e-03,2.25558e+00
6.90224e-03,2.17692e+00
6.95971e-03,2.10081e+00
7.01766e-03,2.02716e+00
7.07608e-03,1.95591e+00
7.13500e-03,1.88697e+00
7.19440e-03,1.82027e+00
7.25430e-03,1.75573e+00
7.31470e-03,1.69328e+00
7.37560e-03,1.63287e+00
7.43701e-03,1.57441e+00
7.49892e-03,1.51785e+00
7.56136e-03,1.46313e+00
7.62431e-03,1.41018e+00
7.68779e-03,1.35895e+00
7.75180e-03,1.30939e+00
7.81634e-03,1.26143e+00
7.88142e-03,1.21504e+00
7.94703e-03,1.17014e+00
8.01320e-03,1.12671e+00
8.07992e-03,1.08468e+00
8.14719e-03,1.04402e+00
8.21502e-03,1.00468e+00
8.28342e-03,9.66622e-01
8.35238e-03,9.29795e-01
8.42192e-03,8.94165e-01
8.49204e-03,8.59692e-01
8.56274e-03,8.26338e-01
8.63404e-03,7.94068e-01
8.70592e-03,7.62845e-01
8.77840e-03,7.32637e-01
8.85149e-03,7.03410e-01
8.92519e-03,6.75132e-01
8.99950e-03,6.47773e-01
9.07442e-03,6.21303e-01
9.14998e-03,5.95692e-01
9.22616e-03,5.70913e-01
9.30297e-03,5.46940e-01
9.38043e-03,5.23745e-01
9.45852e-03,5.01303e-01
9.53727e-03,4.79591e-01
9.61668e-03,4.58584e-01
9.69675e-03,4.38260e-01
9.77748e-03,4.18596e-01
9.85888e-03,3.99571e-01
9.94097e-03,3.81164e-01
1.00237e-02,3.63355e-01
1.01072e-02,3.46125e-01
1.01913e-02,3.29455e-01
1.02762e-02,3.13326e-01
1.03617e-02,2.97722e-01
1.04480e-02,2.82624e-01
1.05350e-02,2.68017e-01
1.06227e-02,2.53885e-01
1.07112e-02,2.40213e-01
1.08003e-02,2.26984e-01
1.08903e-02,2.14186e-01
1.09809e-02,2.01803e-01
1.10724e-02,1.89823e-01
1.11645e-02,1.78232e-01
1.12575e-02,1.67019e-01
1.13512e-02,1.56169e-01
1.14457e-02,1.45672e-01
1.15410e-02,1.35517e-01
1.16371e-02,1.25691e-01
1.17340e-02,1.16185e-01
1.18317e-02,1.06988e-01
1.19302e-02,9.80898e-02
1.20295e-02,8.94809e-02
1.21297e-02,8.11519e-02
1.22307e-02,7.30936e-02
1.23325e-02,6.52973e-02
1.24352e-02,5.77545e-02
1.25387e-02,5.04569e-02
1.26431e-02,4.33965e-02
1.27484e-02,3.65657e-02
1.28545e-02,2.99570e-02
1.29615e-02,2.35631e-02
1.30695e-02,1.73771e-02
1.31783e-02,1.13923e-02
1.32880e-02,5.60200e-03
1.33986e-02,0.00000e+00
