m1=105653.686, m2=28.711, gsp=2.399, rhosp=16.305
fGW[Hz],dPh[rad]
2.00488e-03,4.87982e+04
2.03567e-03,4.67511e+04
2.06693e-03,4.47837e+04
2.09868e-03,4.28932e+04
2.13091e-03,4.10769e+04
2.16364e-03,3.93320e+04
2.19686e-03,3.76560e+04
2.23061e-03,3.60465e+04
2.26486e-03,3.45009e+04
2.29965e-03,3.30170e+04
2.33497e-03,3.15924e+04
2.37083e-03,3.02251e+04
2.40724e-03,2.89129e+04
2.44421e-03,2.76538e+04
2.48175e-03,2.64457e+04
2.51987e-03,2.52869e+04
2.55857e-03,2.41755e+04
2.59786e-03,2.31096e+04
2.63776e-03,2.20876e+04
2.67827e-03,2.11078e+04
2.71941e-03,2.01687e+04
2.76117e-03,1.92685e+04
2.80358e-03,1.84060e+04
2.84664e-03,1.75796e+04
2.89036e-03,1.67880e+04
2.93475e-03,1.60297e+04
2.97982e-03,1.53036e+04
3.02559e-03,1.46083e+04
3.07205e-03,1.39426e+04
3.11923e-03,1.33054e+04
3.16714e-03,1.26956e+04
3.21578e-03,1.21121e+04
3.26517e-03,1.15537e+04
3.31532e-03,1.10196e+04
3.36624e-03,1.05088e+04
3.41794e-03,1.00203e+04
3.47043e-03,9.55316e+03
3.52373e-03,9.10659e+03
3.57785e-03,8.67973e+03
3.63280e-03,8.27177e+03
3.68859e-03,7.88194e+03
3.74524e-03,7.50949e+03
3.80276e-03,7.15370e+03
3.86117e-03,6.81387e+03
3.92047e-03,6.48935e+03
3.98068e-03,6.17949e+03
4.04182e-03,5.88366e+03
4.10389e-03,5.60129e+03
4.16692e-03,5.33180e+03
4.23092e-03,5.07464e+03
4.29590e-03,4.82928e+03
4.36188e-03,4.59522e+03
4.42887e-03,4.37197e+03
4.49689e-03,4.15906e+03
4.56595e-03,3.95604e+03
4.63608e-03,3.76249e+03
4.70728e-03,3.57798e+03
4.77958e-03,3.40213e+03
4.85298e-03,3.23454e+03
4.92752e-03,3.07486e+03
5.00319e-03,2.92273e+03
5.08004e-03,2.77781e+03
5.15806e-03,2.63979e+03
5.23728e-03,2.50835e+03
5.31771e-03,2.38319e+03
5.39938e-03,2.26404e+03
5.48231e-03,2.15061e+03
5.56651e-03,2.04266e+03
5.65200e-03,1.93992e+03
5.73880e-03,1.84215e+03
5.82694e-03,1.74914e+03
5.91644e-03,1.66066e+03
6.00730e-03,1.57650e+03
6.09956e-03,1.49645e+03
6.19324e-03,1.42033e+03
6.28836e-03,1.34796e+03
6.38494e-03,1.27915e+03
6.48300e-03,1.21374e+03
6.58257e-03,1.15157e+03
6.68367e-03,1.09249e+03
6.78632e-03,1.03634e+03
6.89054e-03,9.82991e+02
6.99637e-03,9.32307e+02
7.10382e-03,8.84159e+02
7.21293e-03,8.38427e+02
7.32370e-03,7.94992e+02
7.43618e-03,7.53745e+02
7.55039e-03,7.14578e+02
7.66635e-03,6.77392e+02
7.78409e-03,6.42089e+02
7.90365e-03,6.08577e+02
8.02503e-03,5.76769e+02
8.14828e-03,5.46580e+02
8.27343e-03,5.17932e+02
8.40049e-03,4.90747e+02
8.52951e-03,4.64955e+02
8.66051e-03,4.40484e+02
8.79352e-03,4.17271e+02
8.92857e-03,3.95252e+02
9.06570e-03,3.74367e+02
9.20494e-03,3.54560e+02
9.34631e-03,3.35777e+02
9.48985e-03,3.17966e+02
9.63560e-03,3.01078e+02
9.78359e-03,2.85067e+02
9.93385e-03,2.69888e+02
1.00864e-02,2.55500e+02
1.02413e-02,2.41861e+02
1.03986e-02,2.28935e+02
1.05583e-02,2.16684e+02
1.07205e-02,2.05074e+02
1.08851e-02,1.94072e+02
1.10523e-02,1.83648e+02
1.12220e-02,1.73771e+02
1.13944e-02,1.64414e+02
1.15694e-02,1.55549e+02
1.17471e-02,1.47151e+02
1.19275e-02,1.39197e+02
1.21107e-02,1.31663e+02
1.22967e-02,1.24527e+02
1.24855e-02,1.17769e+02
1.26773e-02,1.11369e+02
1.28720e-02,1.05308e+02
1.30697e-02,9.95694e+01
1.32704e-02,9.41356e+01
1.34742e-02,8.89908e+01
1.36812e-02,8.41200e+01
1.38913e-02,7.95087e+01
1.41046e-02,7.51433e+01
1.43213e-02,7.10110e+01
1.45412e-02,6.70995e+01
1.47645e-02,6.33971e+01
1.49913e-02,5.98929e+01
1.52215e-02,5.65763e+01
1.54553e-02,5.34374e+01
1.56927e-02,5.04670e+01
1.59337e-02,4.76559e+01
1.61784e-02,4.49959e+01
1.64269e-02,4.24788e+01
1.66792e-02,4.00971e+01
1.69354e-02,3.78436e+01
1.71954e-02,3.57115e+01
1.74595e-02,3.36943e+01
1.77277e-02,3.17859e+01
1.80000e-02,2.99804e+01
1.82764e-02,2.82724e+01
1.85571e-02,2.66567e+01
1.88421e-02,2.51284e+01
1.91315e-02,2.36827e+01
1.94253e-02,2.23152e+01
1.97237e-02,2.10218e+01
2.00266e-02,1.97984e+01
2.03342e-02,1.86413e+01
2.06465e-02,1.75470e+01
2.09636e-02,1.65120e+01
2.12855e-02,1.55333e+01
2.16124e-02,1.46076e+01
2.19444e-02,1.37323e+01
2.22814e-02,1.29045e+01
2.26236e-02,1.21217e+01
2.29711e-02,1.13816e+01
2.33238e-02,1.06817e+01
2.36821e-02,1.00199e+01
2.40458e-02,9.39410e+00
2.44151e-02,8.80243e+00
2.47901e-02,8.24301e+00
2.51708e-02,7.71410e+00
2.55574e-02,7.21403e+00
2.59499e-02,6.74124e+00
2.63484e-02,6.29426e+00
2.67531e-02,5.87168e+00
2.71640e-02,5.47218e+00
2.75812e-02,5.09450e+00
2.80048e-02,4.73747e+00
2.84349e-02,4.39995e+00
2.88716e-02,4.08089e+00
2.93150e-02,3.77928e+00
2.97653e-02,3.49417e+00
3.02224e-02,3.22466e+00
3.06866e-02,2.96991e+00
3.11579e-02,2.72910e+00
3.16364e-02,2.50149e+00
3.21223e-02,2.28634e+00
3.26156e-02,2.08298e+00
3.31165e-02,1.89077e+00
3.36252e-02,1.70909e+00
3.41416e-02,1.53738e+00
3.46659e-02,1.37509e+00
3.51983e-02,1.22169e+00
3.57389e-02,1.07672e+00
3.62878e-02,9.39697e-01
3.68451e-02,8.10198e-01
3.74110e-02,6.87808e-01
3.79856e-02,5.72140e-01
3.85690e-02,4.62823e-01
3.91613e-02,3.59512e-01
3.97628e-02,2.61876e-01
4.03735e-02,1.69606e-01
4.09936e-02,8.24063e-02
4.16231e-02,0.00000e+00
