m1=1303.150, m2=9.086, gsp=2.345, rhosp=124.812
fGW[Hz],dPh[rad]
9.26923e-03,7.91637e+03
9.54819e-03,7.43692e+03
9.83555e-03,6.98648e+03
1.01316e-02,6.56328e+03
1.04365e-02,6.16569e+03
1.07506e-02,5.79215e+03
1.10741e-02,5.44120e+03
1.14074e-02,5.11149e+03
1.17507e-02,4.80173e+03
1.21043e-02,4.51071e+03
1.24686e-02,4.23729e+03
1.28439e-02,3.98042e+03
1.32304e-02,3.73910e+03
1.36286e-02,3.51237e+03
1.40388e-02,3.29937e+03
1.44613e-02,3.09926e+03
1.48965e-02,2.91126e+03
1.53448e-02,2.73463e+03
1.58066e-02,2.56870e+03
1.62823e-02,2.41281e+03
1.67724e-02,2.26636e+03
1.72771e-02,2.12878e+03
1.77971e-02,1.99952e+03
1.83327e-02,1.87809e+03
1.88845e-02,1.76401e+03
1.94528e-02,1.65684e+03
2.00382e-02,1.55616e+03
2.06413e-02,1.46158e+03
2.12625e-02,1.37273e+03
2.19024e-02,1.28926e+03
2.25616e-02,1.21084e+03
2.32406e-02,1.13718e+03
2.39400e-02,1.06798e+03
2.46605e-02,1.00297e+03
2.54027e-02,9.41901e+02
2.61672e-02,8.84534e+02
2.69547e-02,8.30645e+02
2.77660e-02,7.80023e+02
2.86016e-02,7.32471e+02
2.94624e-02,6.87801e+02
3.03491e-02,6.45841e+02
3.12624e-02,6.06427e+02
3.22033e-02,5.69403e+02
3.31725e-02,5.34626e+02
3.41708e-02,5.01959e+02
3.51992e-02,4.71275e+02
3.62586e-02,4.42453e+02
3.73498e-02,4.15382e+02
3.84738e-02,3.89955e+02
3.96317e-02,3.66072e+02
4.08245e-02,3.43640e+02
4.20531e-02,3.22571e+02
4.33187e-02,3.02783e+02
4.46224e-02,2.84198e+02
4.59654e-02,2.66744e+02
4.73487e-02,2.50351e+02
4.87737e-02,2.34955e+02
5.02416e-02,2.20496e+02
5.17537e-02,2.06918e+02
5.33112e-02,1.94167e+02
5.49157e-02,1.82192e+02
5.65684e-02,1.70947e+02
5.82708e-02,1.60388e+02
6.00245e-02,1.50472e+02
6.18310e-02,1.41162e+02
6.36919e-02,1.32419e+02
6.56087e-02,1.24211e+02
6.75832e-02,1.16504e+02
6.96172e-02,1.09268e+02
7.17124e-02,1.02474e+02
7.38706e-02,9.60960e+01
7.60938e-02,9.01083e+01
7.83839e-02,8.44872e+01
8.07429e-02,7.92105e+01
8.31729e-02,7.42573e+01
8.56760e-02,6.96080e+01
8.82545e-02,6.52441e+01
9.09106e-02,6.11482e+01
9.36466e-02,5.73040e+01
9.64649e-02,5.36963e+01
9.93681e-02,5.03107e+01
1.02359e-01,4.71336e+01
1.05439e-01,4.41525e+01
1.08612e-01,4.13553e+01
1.11881e-01,3.87308e+01
1.15248e-01,3.62686e+01
1.18717e-01,3.39587e+01
1.22290e-01,3.17919e+01
1.25970e-01,2.97594e+01
1.29761e-01,2.78531e+01
1.33666e-01,2.60653e+01
1.37689e-01,2.43887e+01
1.41833e-01,2.28165e+01
1.46102e-01,2.13423e+01
1.50499e-01,1.99603e+01
1.55028e-01,1.86646e+01
1.59694e-01,1.74501e+01
1.64500e-01,1.63117e+01
1.69451e-01,1.52449e+01
1.74550e-01,1.42452e+01
1.79803e-01,1.33084e+01
1.85215e-01,1.24308e+01
1.90789e-01,1.16087e+01
1.96531e-01,1.08387e+01
2.02446e-01,1.01176e+01
2.08538e-01,9.44234e+00
2.14814e-01,8.81013e+00
2.21279e-01,8.21829e+00
2.27939e-01,7.66434e+00
2.34799e-01,7.14595e+00
2.41865e-01,6.66089e+00
2.49144e-01,6.20712e+00
2.56642e-01,5.78268e+00
2.64366e-01,5.38576e+00
2.72323e-01,5.01463e+00
2.80518e-01,4.66771e+00
2.88961e-01,4.34346e+00
2.97657e-01,4.04048e+00
3.06615e-01,3.75744e+00
3.15843e-01,3.49308e+00
3.25349e-01,3.24622e+00
3.35140e-01,3.01578e+00
3.45226e-01,2.80070e+00
3.55616e-01,2.60003e+00
3.66319e-01,2.41284e+00
3.77343e-01,2.23828e+00
3.88700e-01,2.07554e+00
4.00398e-01,1.92388e+00
4.12448e-01,1.78258e+00
4.24861e-01,1.65097e+00
4.37647e-01,1.52843e+00
4.50819e-01,1.41438e+00
4.64386e-01,1.30827e+00
4.78362e-01,1.20957e+00
4.92759e-01,1.11781e+00
5.07589e-01,1.03254e+00
5.22865e-01,9.53310e-01
5.38601e-01,8.79739e-01
5.54810e-01,8.11448e-01
5.71508e-01,7.48084e-01
5.88708e-01,6.89319e-01
6.06425e-01,6.34842e-01
6.24676e-01,5.84364e-01
6.43476e-01,5.37614e-01
6.62842e-01,4.94337e-01
6.82791e-01,4.54295e-01
7.03340e-01,4.17264e-01
7.24507e-01,3.83035e-01
7.46311e-01,3.51414e-01
7.68772e-01,3.22215e-01
7.91909e-01,2.95269e-01
8.15742e-01,2.70416e-01
8.40292e-01,2.47504e-01
8.65581e-01,2.26394e-01
8.91631e-01,2.06956e-01
9.18466e-01,1.89067e-01
9.46107e-01,1.72613e-01
9.74581e-01,1.57488e-01
1.00391e+00,1.43593e-01
1.03413e+00,1.30835e-01
1.06525e+00,1.19127e-01
1.09731e+00,1.08391e-01
1.13033e+00,9.85503e-02
1.16435e+00,8.95364e-02
1.19939e+00,8.12846e-02
1.23549e+00,7.37349e-02
1.27267e+00,6.68316e-02
1.31097e+00,6.05231e-02
1.35043e+00,5.47616e-02
1.39107e+00,4.95026e-02
1.43293e+00,4.47051e-02
1.47606e+00,4.03311e-02
1.52048e+00,3.63455e-02
1.56624e+00,3.27158e-02
1.61338e+00,2.94121e-02
1.66193e+00,2.64067e-02
1.71195e+00,2.36742e-02
1.76347e+00,2.11912e-02
1.81655e+00,1.89359e-02
1.87122e+00,1.68886e-02
1.92753e+00,1.50311e-02
1.98554e+00,1.33466e-02
2.04530e+00,1.18196e-02
2.10685e+00,1.04362e-02
2.17026e+00,9.18342e-03
2.23558e+00,8.04942e-03
2.30286e+00,7.02341e-03
2.37216e+00,6.09549e-03
2.44355e+00,5.25666e-03
2.51709e+00,4.49866e-03
2.59285e+00,3.81397e-03
2.67088e+00,3.19575e-03
2.75126e+00,2.63775e-03
2.83406e+00,2.13429e-03
2.91936e+00,1.68019e-03
3.00722e+00,1.27077e-03
3.09772e+00,9.01741e-04
3.19095e+00,5.69229e-04
3.28698e+00,2.69713e-04
3.38591e+00,0.00000e+00
