m1=7773.981, m2=34.172, gsp=2.279, rhosp=84.126
fGW[Hz],dPh[rad]
3.60797e-03,1.89095e+03
3.70083e-03,1.78978e+03
3.79608e-03,1.69399e+03
3.89378e-03,1.60331e+03
3.99400e-03,1.51746e+03
4.09679e-03,1.43619e+03
4.20223e-03,1.35924e+03
4.31039e-03,1.28639e+03
4.42133e-03,1.21743e+03
4.53512e-03,1.15214e+03
4.65184e-03,1.09033e+03
4.77157e-03,1.03182e+03
4.89438e-03,9.76431e+02
5.02035e-03,9.23993e+02
5.14956e-03,8.74353e+02
5.28209e-03,8.27360e+02
5.41804e-03,7.82876e+02
5.55749e-03,7.40765e+02
5.70052e-03,7.00902e+02
5.84724e-03,6.63167e+02
5.99773e-03,6.27447e+02
6.15210e-03,5.93635e+02
6.31044e-03,5.61629e+02
6.47285e-03,5.31333e+02
6.63945e-03,5.02656e+02
6.81033e-03,4.75513e+02
6.98561e-03,4.49820e+02
7.16540e-03,4.25502e+02
7.34982e-03,4.02485e+02
7.53899e-03,3.80699e+02
7.73302e-03,3.60080e+02
7.93205e-03,3.40564e+02
8.13620e-03,3.22094e+02
8.34561e-03,3.04613e+02
8.56040e-03,2.88070e+02
8.78073e-03,2.72413e+02
9.00672e-03,2.57595e+02
9.23853e-03,2.43573e+02
9.47631e-03,2.30303e+02
9.72020e-03,2.17746e+02
9.97038e-03,2.05863e+02
1.02270e-02,1.94619e+02
1.04902e-02,1.83979e+02
1.07602e-02,1.73912e+02
1.10371e-02,1.64386e+02
1.13212e-02,1.55373e+02
1.16126e-02,1.46845e+02
1.19115e-02,1.38777e+02
1.22180e-02,1.31144e+02
1.25325e-02,1.23923e+02
1.28550e-02,1.17091e+02
1.31859e-02,1.10629e+02
1.35253e-02,1.04516e+02
1.38734e-02,9.87330e+01
1.42304e-02,9.32632e+01
1.45967e-02,8.80896e+01
1.49724e-02,8.31964e+01
1.53577e-02,7.85686e+01
1.57530e-02,7.41919e+01
1.61584e-02,7.00529e+01
1.65743e-02,6.61389e+01
1.70009e-02,6.24378e+01
1.74385e-02,5.89382e+01
1.78873e-02,5.56294e+01
1.83477e-02,5.25011e+01
1.88199e-02,4.95436e+01
1.93043e-02,4.67477e+01
1.98011e-02,4.41048e+01
2.03107e-02,4.16067e+01
2.08335e-02,3.92456e+01
2.13697e-02,3.70140e+01
2.19197e-02,3.49051e+01
2.24838e-02,3.29123e+01
2.30625e-02,3.10293e+01
2.36561e-02,2.92501e+01
2.42649e-02,2.75693e+01
2.48894e-02,2.59814e+01
2.55300e-02,2.44815e+01
2.61871e-02,2.30648e+01
2.68611e-02,2.17268e+01
2.75524e-02,2.04633e+01
2.82616e-02,1.92703e+01
2.89890e-02,1.81438e+01
2.97351e-02,1.70804e+01
3.05004e-02,1.60766e+01
3.12854e-02,1.51291e+01
3.20906e-02,1.42349e+01
3.29165e-02,1.33911e+01
3.37637e-02,1.25950e+01
3.46327e-02,1.18439e+01
3.55240e-02,1.11355e+01
3.64383e-02,1.04673e+01
3.73762e-02,9.83713e+00
3.83381e-02,9.24299e+00
3.93248e-02,8.68286e+00
4.03370e-02,8.15487e+00
4.13751e-02,7.65727e+00
4.24400e-02,7.18838e+00
4.35323e-02,6.74660e+00
4.46527e-02,6.33046e+00
4.58020e-02,5.93853e+00
4.69808e-02,5.56946e+00
4.81900e-02,5.22200e+00
4.94303e-02,4.89493e+00
5.07025e-02,4.58713e+00
5.20074e-02,4.29752e+00
5.33460e-02,4.02507e+00
5.47190e-02,3.76884e+00
5.61273e-02,3.52790e+00
5.75719e-02,3.30140e+00
5.90536e-02,3.08852e+00
6.05735e-02,2.88849e+00
6.21325e-02,2.70058e+00
6.37316e-02,2.52411e+00
6.53719e-02,2.35841e+00
6.70544e-02,2.20288e+00
6.87803e-02,2.05693e+00
7.05505e-02,1.92000e+00
7.23663e-02,1.79158e+00
7.42288e-02,1.67118e+00
7.61393e-02,1.55832e+00
7.80989e-02,1.45258e+00
8.01090e-02,1.35352e+00
8.21708e-02,1.26076e+00
8.42856e-02,1.17392e+00
8.64549e-02,1.09266e+00
8.86800e-02,1.01664e+00
9.09624e-02,9.45552e-01
9.33036e-02,8.79094e-01
9.57050e-02,8.16990e-01
9.81682e-02,7.58975e-01
1.00695e-01,7.04800e-01
1.03286e-01,6.54230e-01
1.05945e-01,6.07044e-01
1.08671e-01,5.63031e-01
1.11468e-01,5.21995e-01
1.14337e-01,4.83749e-01
1.17280e-01,4.48119e-01
1.20299e-01,4.14938e-01
1.23395e-01,3.84051e-01
1.26571e-01,3.55311e-01
1.29828e-01,3.28581e-01
1.33170e-01,3.03730e-01
1.36597e-01,2.80636e-01
1.40113e-01,2.59184e-01
1.43719e-01,2.39266e-01
1.47418e-01,2.20779e-01
1.51212e-01,2.03629e-01
1.55104e-01,1.87726e-01
1.59096e-01,1.72985e-01
1.63191e-01,1.59327e-01
1.67391e-01,1.46679e-01
1.71699e-01,1.34971e-01
1.76118e-01,1.24137e-01
1.80651e-01,1.14117e-01
1.85300e-01,1.04854e-01
1.90069e-01,9.62931e-02
1.94961e-01,8.83857e-02
1.99979e-01,8.10847e-02
2.05126e-01,7.43463e-02
2.10406e-01,6.81299e-02
2.15821e-01,6.23972e-02
2.21376e-01,5.71130e-02
2.27073e-01,5.22440e-02
2.32917e-01,4.77595e-02
2.38912e-01,4.36306e-02
2.45061e-01,3.98307e-02
2.51368e-01,3.63350e-02
2.57838e-01,3.31202e-02
2.64474e-01,3.01650e-02
2.71281e-01,2.74494e-02
2.78263e-01,2.49547e-02
2.85425e-01,2.26640e-02
2.92771e-01,2.05612e-02
3.00306e-01,1.86316e-02
3.08035e-01,1.68616e-02
3.15963e-01,1.52383e-02
3.24095e-01,1.37503e-02
3.32437e-01,1.23866e-02
3.40993e-01,1.11372e-02
3.49769e-01,9.99293e-03
3.58771e-01,8.94521e-03
3.68005e-01,7.98619e-03
3.77477e-01,7.10859e-03
3.87192e-01,6.30573e-03
3.97157e-01,5.57144e-03
4.07379e-01,4.90003e-03
4.17864e-01,4.28627e-03
4.28619e-01,3.72536e-03
4.39650e-01,3.21286e-03
4.50966e-01,2.74471e-03
4.62572e-01,2.31716e-03
4.74478e-01,1.92678e-03
4.86690e-01,1.57042e-03
4.99216e-01,1.24517e-03
5.12064e-01,9.48378e-04
5.25244e-01,6.77609e-04
5.38762e-01,4.30627e-04
5.52629e-01,2.05383e-04
5.66852e-01,0.00000e+00
