m1=1306.988, m2=64.957, gsp=2.146, rhosp=676.098
fGW[Hz],dPh[rad]
4.45289e-03,3.17606e+01
4.60424e-03,2.94728e+01
4.76074e-03,2.73497e+01
4.92256e-03,2.53796e+01
5.08988e-03,2.35514e+01
5.26289e-03,2.18548e+01
5.44178e-03,2.02805e+01
5.62674e-03,1.88195e+01
5.81800e-03,1.74638e+01
6.01575e-03,1.62057e+01
6.22023e-03,1.50383e+01
6.43166e-03,1.39549e+01
6.65027e-03,1.29496e+01
6.87632e-03,1.20166e+01
7.11005e-03,1.11509e+01
7.35172e-03,1.03476e+01
7.60161e-03,9.60206e+00
7.85999e-03,8.91026e+00
8.12715e-03,8.26830e+00
8.40340e-03,7.67257e+00
8.68903e-03,7.11976e+00
8.98438e-03,6.60677e+00
9.28976e-03,6.13073e+00
9.60552e-03,5.68898e+00
9.93201e-03,5.27906e+00
1.02696e-02,4.89866e+00
1.06187e-02,4.54566e+00
1.09796e-02,4.21810e+00
1.13528e-02,3.91413e+00
1.17387e-02,3.63205e+00
1.21377e-02,3.37030e+00
1.25503e-02,3.12740e+00
1.29768e-02,2.90200e+00
1.34179e-02,2.69284e+00
1.38740e-02,2.49875e+00
1.43456e-02,2.31864e+00
1.48332e-02,2.15151e+00
1.53374e-02,1.99642e+00
1.58587e-02,1.85250e+00
1.63978e-02,1.71895e+00
1.69551e-02,1.59502e+00
1.75314e-02,1.48002e+00
1.81273e-02,1.37331e+00
1.87435e-02,1.27428e+00
1.93806e-02,1.18239e+00
2.00393e-02,1.09713e+00
2.07205e-02,1.01800e+00
2.14248e-02,9.44578e-01
2.21530e-02,8.76447e-01
2.29060e-02,8.13225e-01
2.36846e-02,7.54559e-01
2.44896e-02,7.00121e-01
2.53220e-02,6.49606e-01
2.61828e-02,6.02732e-01
2.70727e-02,5.59236e-01
2.79929e-02,5.18875e-01
2.89444e-02,4.81424e-01
2.99282e-02,4.46672e-01
3.09455e-02,4.14424e-01
3.19974e-02,3.84502e-01
3.30850e-02,3.56737e-01
3.42095e-02,3.30973e-01
3.53723e-02,3.07067e-01
3.65746e-02,2.84885e-01
3.78178e-02,2.64302e-01
3.91033e-02,2.45203e-01
4.04324e-02,2.27482e-01
4.18067e-02,2.11038e-01
4.32277e-02,1.95781e-01
4.46971e-02,1.81624e-01
4.62163e-02,1.68488e-01
4.77872e-02,1.56300e-01
4.94115e-02,1.44991e-01
5.10911e-02,1.34498e-01
5.28277e-02,1.24762e-01
5.46233e-02,1.15729e-01
5.64800e-02,1.07348e-01
5.83997e-02,9.95718e-02
6.03848e-02,9.23569e-02
6.24373e-02,8.56629e-02
6.45595e-02,7.94522e-02
6.67539e-02,7.36900e-02
6.90229e-02,6.83440e-02
7.13690e-02,6.33841e-02
7.37949e-02,5.87826e-02
7.63032e-02,5.45135e-02
7.88968e-02,5.05530e-02
8.15785e-02,4.68787e-02
8.43514e-02,4.34700e-02
8.72185e-02,4.03078e-02
9.01831e-02,3.73743e-02
9.32484e-02,3.46529e-02
9.64180e-02,3.21285e-02
9.96953e-02,2.97867e-02
1.03084e-01,2.76144e-02
1.06588e-01,2.55995e-02
1.10211e-01,2.37304e-02
1.13957e-01,2.19967e-02
1.17830e-01,2.03887e-02
1.21835e-01,1.88972e-02
1.25977e-01,1.75138e-02
1.30259e-01,1.62308e-02
1.34686e-01,1.50408e-02
1.39264e-01,1.39372e-02
1.43998e-01,1.29138e-02
1.48892e-01,1.19647e-02
1.53953e-01,1.10845e-02
1.59186e-01,1.02684e-02
1.64597e-01,9.51155e-03
1.70192e-01,8.80981e-03
1.75977e-01,8.15915e-03
1.81958e-01,7.55589e-03
1.88143e-01,6.99660e-03
1.94538e-01,6.47808e-03
2.01150e-01,5.99740e-03
2.07987e-01,5.55181e-03
2.15057e-01,5.13878e-03
2.22367e-01,4.75594e-03
2.29925e-01,4.40111e-03
2.37740e-01,4.07226e-03
2.45821e-01,3.76751e-03
2.54177e-01,3.48510e-03
2.62816e-01,3.22343e-03
2.71750e-01,2.98097e-03
2.80987e-01,2.75634e-03
2.90537e-01,2.54825e-03
3.00413e-01,2.35549e-03
3.10624e-01,2.17695e-03
3.21182e-01,2.01159e-03
3.32099e-01,1.85846e-03
3.43387e-01,1.71666e-03
3.55059e-01,1.58537e-03
3.67128e-01,1.46383e-03
3.79607e-01,1.35132e-03
3.92510e-01,1.24718e-03
4.05851e-01,1.15081e-03
4.19646e-01,1.06163e-03
4.33910e-01,9.79126e-04
4.48659e-01,9.02799e-04
4.63909e-01,8.32201e-04
4.79677e-01,7.66912e-04
4.95982e-01,7.06543e-04
5.12840e-01,6.50731e-04
5.30272e-01,5.99142e-04
5.48296e-01,5.51465e-04
5.66933e-01,5.07412e-04
5.86203e-01,4.66716e-04
6.06128e-01,4.29128e-04
6.26731e-01,3.94419e-04
6.48034e-01,3.62376e-04
6.70060e-01,3.32800e-04
6.92836e-01,3.05508e-04
7.16386e-01,2.80331e-04
7.40736e-01,2.57111e-04
7.65914e-01,2.35701e-04
7.91947e-01,2.15967e-04
8.18866e-01,1.97781e-04
8.46700e-01,1.81030e-04
8.75479e-01,1.65603e-04
9.05237e-01,1.51401e-04
9.36006e-01,1.38332e-04
9.67821e-01,1.26309e-04
1.00072e+00,1.15253e-04
1.03473e+00,1.05090e-04
1.06990e+00,9.57522e-05
1.10627e+00,8.71754e-05
1.14387e+00,7.93013e-05
1.18275e+00,7.20756e-05
1.22296e+00,6.54479e-05
1.26452e+00,5.93717e-05
1.30751e+00,5.38038e-05
1.35195e+00,4.87043e-05
1.39790e+00,4.40362e-05
1.44542e+00,3.97653e-05
1.49455e+00,3.58599e-05
1.54535e+00,3.22909e-05
1.59787e+00,2.90311e-05
1.65219e+00,2.60556e-05
1.70834e+00,2.33411e-05
1.76641e+00,2.08664e-05
1.82645e+00,1.86117e-05
1.88853e+00,1.65588e-05
1.95273e+00,1.46908e-05
2.01910e+00,1.29922e-05
2.08773e+00,1.14488e-05
2.15869e+00,1.00473e-05
2.23207e+00,8.77564e-06
2.30794e+00,7.62252e-06
2.38638e+00,6.57768e-06
2.46750e+00,5.63165e-06
2.55137e+00,4.77570e-06
2.63809e+00,4.00183e-06
2.72776e+00,3.30269e-06
2.82048e+00,2.67153e-06
2.91635e+00,2.10217e-06
3.01547e+00,1.58894e-06
3.11797e+00,1.12666e-06
3.22395e+00,7.10568e-07
3.33354e+00,3.36336e-07
3.44684e+00,0.00000e+00
