m1=121702.015, m2=3.134, gsp=2.383, rhosp=158.628
fGW[Hz],dPh[rad]
4.44065e-03,5.72941e+04
4.48768e-03,5.51278e+04
4.53520e-03,5.30425e+04
4.58323e-03,5.10353e+04
4.63176e-03,4.91033e+04
4.68081e-03,4.72437e+04
4.73038e-03,4.54539e+04
4.78048e-03,4.37312e+04
4.83110e-03,4.20732e+04
4.88226e-03,4.04775e+04
4.93397e-03,3.89418e+04
4.98622e-03,3.74638e+04
5.03902e-03,3.60414e+04
5.09239e-03,3.46726e+04
5.14631e-03,3.33552e+04
5.20081e-03,3.20875e+04
5.25589e-03,3.08676e+04
5.31155e-03,2.96937e+04
5.36780e-03,2.85640e+04
5.42464e-03,2.74770e+04
5.48209e-03,2.64310e+04
5.54015e-03,2.54245e+04
5.59882e-03,2.44560e+04
5.65811e-03,2.35242e+04
5.71803e-03,2.26275e+04
5.77858e-03,2.17648e+04
5.83977e-03,2.09347e+04
5.90162e-03,2.01361e+04
5.96412e-03,1.93676e+04
6.02728e-03,1.86283e+04
6.09110e-03,1.79170e+04
6.15561e-03,1.72327e+04
6.22080e-03,1.65743e+04
6.28667e-03,1.59409e+04
6.35325e-03,1.53315e+04
6.42053e-03,1.47452e+04
6.48852e-03,1.41813e+04
6.55724e-03,1.36387e+04
6.62668e-03,1.31167e+04
6.69685e-03,1.26146e+04
6.76777e-03,1.21316e+04
6.83944e-03,1.16669e+04
6.91187e-03,1.12199e+04
6.98507e-03,1.07899e+04
7.05904e-03,1.03763e+04
7.13380e-03,9.97840e+03
7.20934e-03,9.59567e+03
7.28569e-03,9.22752e+03
7.36285e-03,8.87339e+03
7.44082e-03,8.53276e+03
7.51962e-03,8.20512e+03
7.59925e-03,7.88996e+03
7.67972e-03,7.58683e+03
7.76105e-03,7.29526e+03
7.84324e-03,7.01481e+03
7.92630e-03,6.74507e+03
8.01024e-03,6.48562e+03
8.09507e-03,6.23608e+03
8.18080e-03,5.99607e+03
8.26743e-03,5.76523e+03
8.35498e-03,5.54320e+03
8.44346e-03,5.32966e+03
8.53288e-03,5.12429e+03
8.62324e-03,4.92676e+03
8.71456e-03,4.73679e+03
8.80685e-03,4.55408e+03
8.90011e-03,4.37837e+03
8.99436e-03,4.20937e+03
9.08961e-03,4.04684e+03
9.18587e-03,3.89053e+03
9.28315e-03,3.74021e+03
9.38146e-03,3.59564e+03
9.48081e-03,3.45661e+03
9.58121e-03,3.32290e+03
9.68267e-03,3.19432e+03
9.78521e-03,3.07066e+03
9.88884e-03,2.95174e+03
9.99356e-03,2.83738e+03
1.00994e-02,2.72740e+03
1.02063e-02,2.62164e+03
1.03144e-02,2.51993e+03
1.04237e-02,2.42213e+03
1.05340e-02,2.32807e+03
1.06456e-02,2.23763e+03
1.07583e-02,2.15065e+03
1.08723e-02,2.06701e+03
1.09874e-02,1.98658e+03
1.11038e-02,1.90924e+03
1.12214e-02,1.83487e+03
1.13402e-02,1.76335e+03
1.14603e-02,1.69458e+03
1.15816e-02,1.62845e+03
1.17043e-02,1.56486e+03
1.18282e-02,1.50371e+03
1.19535e-02,1.44491e+03
1.20801e-02,1.38837e+03
1.22080e-02,1.33400e+03
1.23373e-02,1.28173e+03
1.24679e-02,1.23146e+03
1.26000e-02,1.18312e+03
1.27334e-02,1.13664e+03
1.28683e-02,1.09195e+03
1.30045e-02,1.04898e+03
1.31423e-02,1.00766e+03
1.32814e-02,9.67928e+02
1.34221e-02,9.29725e+02
1.35642e-02,8.92992e+02
1.37079e-02,8.57672e+02
1.38530e-02,8.23710e+02
1.39997e-02,7.91056e+02
1.41480e-02,7.59658e+02
1.42978e-02,7.29469e+02
1.44492e-02,7.00441e+02
1.46022e-02,6.72531e+02
1.47569e-02,6.45695e+02
1.49132e-02,6.19892e+02
1.50711e-02,5.95083e+02
1.52307e-02,5.71228e+02
1.53920e-02,5.48293e+02
1.55550e-02,5.26241e+02
1.57197e-02,5.05038e+02
1.58862e-02,4.84651e+02
1.60544e-02,4.65050e+02
1.62244e-02,4.46204e+02
1.63963e-02,4.28084e+02
1.65699e-02,4.10663e+02
1.67454e-02,3.93912e+02
1.69227e-02,3.77807e+02
1.71019e-02,3.62322e+02
1.72830e-02,3.47434e+02
1.74660e-02,3.33120e+02
1.76510e-02,3.19358e+02
1.78379e-02,3.06126e+02
1.80268e-02,2.93405e+02
1.82177e-02,2.81173e+02
1.84107e-02,2.69413e+02
1.86056e-02,2.58107e+02
1.88027e-02,2.47236e+02
1.90018e-02,2.36785e+02
1.92030e-02,2.26737e+02
1.94064e-02,2.17076e+02
1.96119e-02,2.07788e+02
1.98196e-02,1.98858e+02
2.00295e-02,1.90272e+02
2.02416e-02,1.82018e+02
2.04559e-02,1.74082e+02
2.06726e-02,1.66452e+02
2.08915e-02,1.59116e+02
2.11127e-02,1.52063e+02
2.13363e-02,1.45283e+02
2.15623e-02,1.38764e+02
2.17906e-02,1.32497e+02
2.20214e-02,1.26471e+02
2.22546e-02,1.20678e+02
2.24902e-02,1.15109e+02
2.27284e-02,1.09754e+02
2.29691e-02,1.04606e+02
2.32123e-02,9.96569e+01
2.34582e-02,9.48987e+01
2.37066e-02,9.03242e+01
2.39576e-02,8.59262e+01
2.42113e-02,8.16979e+01
2.44677e-02,7.76329e+01
2.47269e-02,7.37248e+01
2.49887e-02,6.99676e+01
2.52533e-02,6.63554e+01
2.55208e-02,6.28827e+01
2.57910e-02,5.95440e+01
2.60642e-02,5.63342e+01
2.63402e-02,5.32484e+01
2.66191e-02,5.02818e+01
2.69010e-02,4.74296e+01
2.71859e-02,4.46876e+01
2.74738e-02,4.20515e+01
2.77648e-02,3.95172e+01
2.80588e-02,3.70808e+01
2.83559e-02,3.47384e+01
2.86562e-02,3.24866e+01
2.89597e-02,3.03216e+01
2.92664e-02,2.82403e+01
2.95763e-02,2.62394e+01
2.98895e-02,2.43158e+01
3.02060e-02,2.24665e+01
3.05259e-02,2.06886e+01
3.08492e-02,1.89793e+01
3.11759e-02,1.73361e+01
3.15060e-02,1.57564e+01
3.18397e-02,1.42377e+01
3.21769e-02,1.27777e+01
3.25176e-02,1.13741e+01
3.28620e-02,1.00246e+01
3.32100e-02,8.72738e+00
3.35617e-02,7.48023e+00
3.39171e-02,6.28126e+00
3.42763e-02,5.12862e+00
3.46392e-02,4.02051e+00
3.50061e-02,2.95521e+00
3.53768e-02,1.93108e+00
3.57514e-02,9.46518e-01
3.61300e-02,0.00000e+00
