m1=2303.761, m2=68.722, gsp=2.066, rhosp=9459.656
fGW[Hz],dPh[rad]
3.77472e-03,2.74397e+01
3.89497e-03,2.55381e+01
4.01905e-03,2.37682e+01
4.14708e-03,2.21210e+01
4.27919e-03,2.05879e+01
4.41551e-03,1.91610e+01
4.55617e-03,1.78330e+01
4.70132e-03,1.65970e+01
4.85108e-03,1.54466e+01
5.00562e-03,1.43759e+01
5.16508e-03,1.33795e+01
5.32962e-03,1.24521e+01
5.49940e-03,1.15889e+01
5.67459e-03,1.07856e+01
5.85536e-03,1.00379e+01
6.04189e-03,9.34203e+00
6.23437e-03,8.69438e+00
6.43297e-03,8.09161e+00
6.63790e-03,7.53062e+00
6.84936e-03,7.00849e+00
7.06755e-03,6.52255e+00
7.29270e-03,6.07029e+00
7.52502e-03,5.64937e+00
7.76474e-03,5.25762e+00
8.01209e-03,4.89301e+00
8.26733e-03,4.55368e+00
8.53069e-03,4.23786e+00
8.80245e-03,3.94394e+00
9.08286e-03,3.67038e+00
9.37221e-03,3.41578e+00
9.67077e-03,3.17883e+00
9.97884e-03,2.95831e+00
1.02967e-02,2.75307e+00
1.06247e-02,2.56205e+00
1.09632e-02,2.38428e+00
1.13125e-02,2.21883e+00
1.16728e-02,2.06485e+00
1.20447e-02,1.92154e+00
1.24284e-02,1.78817e+00
1.28243e-02,1.66404e+00
1.32328e-02,1.54852e+00
1.36544e-02,1.44101e+00
1.40894e-02,1.34096e+00
1.45382e-02,1.24784e+00
1.50013e-02,1.16118e+00
1.54792e-02,1.08053e+00
1.59723e-02,1.00547e+00
1.64811e-02,9.35615e-01
1.70062e-02,8.70607e-01
1.75479e-02,8.10107e-01
1.81069e-02,7.53804e-01
1.86838e-02,7.01406e-01
1.92790e-02,6.52643e-01
1.98931e-02,6.07264e-01
2.05268e-02,5.65032e-01
2.11807e-02,5.25731e-01
2.18555e-02,4.89157e-01
2.25517e-02,4.55120e-01
2.32701e-02,4.23446e-01
2.40114e-02,3.93971e-01
2.47763e-02,3.66541e-01
2.55656e-02,3.41015e-01
2.63800e-02,3.17262e-01
2.72204e-02,2.95158e-01
2.80876e-02,2.74588e-01
2.89823e-02,2.55448e-01
2.99056e-02,2.37636e-01
3.08583e-02,2.21062e-01
3.18413e-02,2.05639e-01
3.28556e-02,1.91288e-01
3.39023e-02,1.77934e-01
3.49823e-02,1.65508e-01
3.60967e-02,1.53946e-01
3.72466e-02,1.43188e-01
3.84331e-02,1.33178e-01
3.96575e-02,1.23864e-01
4.09208e-02,1.15197e-01
4.22244e-02,1.07134e-01
4.35695e-02,9.96319e-02
4.49575e-02,9.26519e-02
4.63897e-02,8.61577e-02
4.78675e-02,8.01157e-02
4.93923e-02,7.44945e-02
5.09658e-02,6.92648e-02
5.25894e-02,6.43996e-02
5.42647e-02,5.98735e-02
5.59933e-02,5.56629e-02
5.77771e-02,5.17460e-02
5.96176e-02,4.81023e-02
6.15168e-02,4.47128e-02
6.34765e-02,4.15600e-02
6.54986e-02,3.86273e-02
6.75852e-02,3.58995e-02
6.97382e-02,3.33623e-02
7.19598e-02,3.10024e-02
7.42522e-02,2.88076e-02
7.66176e-02,2.67664e-02
7.90583e-02,2.48681e-02
8.15768e-02,2.31027e-02
8.41755e-02,2.14609e-02
8.68571e-02,1.99343e-02
8.96240e-02,1.85148e-02
9.24791e-02,1.71948e-02
9.54251e-02,1.59676e-02
9.84650e-02,1.48266e-02
1.01602e-01,1.37658e-02
1.04838e-01,1.27796e-02
1.08178e-01,1.18629e-02
1.11624e-01,1.10107e-02
1.15180e-01,1.02187e-02
1.18849e-01,9.48250e-03
1.22636e-01,8.79831e-03
1.26542e-01,8.16248e-03
1.30573e-01,7.57162e-03
1.34733e-01,7.02260e-03
1.39025e-01,6.51250e-03
1.43454e-01,6.03858e-03
1.48024e-01,5.59832e-03
1.52739e-01,5.18937e-03
1.57605e-01,4.80952e-03
1.62626e-01,4.45675e-03
1.67806e-01,4.12914e-03
1.73152e-01,3.82494e-03
1.78668e-01,3.54250e-03
1.84360e-01,3.28030e-03
1.90233e-01,3.03691e-03
1.96293e-01,2.81100e-03
2.02546e-01,2.60135e-03
2.08998e-01,2.40682e-03
2.15656e-01,2.22633e-03
2.22526e-01,2.05890e-03
2.29615e-01,1.90360e-03
2.36930e-01,1.75957e-03
2.44477e-01,1.62602e-03
2.52266e-01,1.50221e-03
2.60302e-01,1.38744e-03
2.68594e-01,1.28108e-03
2.77150e-01,1.18252e-03
2.85979e-01,1.09121e-03
2.95090e-01,1.00664e-03
3.04490e-01,9.28313e-04
3.14190e-01,8.55796e-04
3.24199e-01,7.88670e-04
3.34527e-01,7.26548e-04
3.45183e-01,6.69070e-04
3.56180e-01,6.15903e-04
3.67526e-01,5.66736e-04
3.79234e-01,5.21280e-04
3.91315e-01,4.79266e-04
4.03781e-01,4.40446e-04
4.16644e-01,4.04586e-04
4.29917e-01,3.71472e-04
4.43612e-01,3.40903e-04
4.57744e-01,3.12692e-04
4.72326e-01,2.86667e-04
4.87373e-01,2.62666e-04
5.02899e-01,2.40540e-04
5.18919e-01,2.20151e-04
5.35450e-01,2.01369e-04
5.52507e-01,1.84074e-04
5.70108e-01,1.68155e-04
5.88270e-01,1.53510e-04
6.07010e-01,1.40041e-04
6.26347e-01,1.27661e-04
6.46300e-01,1.16285e-04
6.66888e-01,1.05839e-04
6.88133e-01,9.62496e-05
7.10054e-01,8.74518e-05
7.32674e-01,7.93843e-05
7.56014e-01,7.19903e-05
7.80098e-01,6.52172e-05
8.04949e-01,5.90161e-05
8.30592e-01,5.33420e-05
8.57051e-01,4.81530e-05
8.84354e-01,4.34104e-05
9.12526e-01,3.90782e-05
9.41595e-01,3.51234e-05
9.71591e-01,3.15152e-05
1.00254e+00,2.82252e-05
1.03448e+00,2.52274e-05
1.06743e+00,2.24973e-05
1.10144e+00,2.00128e-05
1.13653e+00,1.77531e-05
1.17273e+00,1.56992e-05
1.21009e+00,1.38337e-05
1.24864e+00,1.21402e-05
1.28842e+00,1.06040e-05
1.32946e+00,9.21140e-06
1.37181e+00,7.94975e-06
1.41551e+00,6.80750e-06
1.46061e+00,5.77404e-06
1.50714e+00,4.83961e-06
1.55515e+00,3.99527e-06
1.60469e+00,3.23283e-06
1.65581e+00,2.54479e-06
1.70856e+00,1.92429e-06
1.76298e+00,1.36505e-06
1.81915e+00,8.61327e-07
1.87710e+00,4.07903e-07
1.93689e+00,0.00000e+00
