m1=24866.732, m2=15.153, gsp=2.479, rhosp=9809.029
fGW[Hz],dPh[rad]
3.65809e-03,7.80847e+05
3.73008e-03,7.47347e+05
3.80350e-03,7.15210e+05
3.87835e-03,6.84385e+05
3.95468e-03,6.54818e+05
4.03252e-03,6.26462e+05
4.11188e-03,5.99268e+05
4.19281e-03,5.73190e+05
4.27533e-03,5.48184e+05
4.35947e-03,5.24209e+05
4.44527e-03,5.01223e+05
4.53276e-03,4.79187e+05
4.62197e-03,4.58064e+05
4.71294e-03,4.37818e+05
4.80569e-03,4.18414e+05
4.90027e-03,3.99818e+05
4.99672e-03,3.81999e+05
5.09506e-03,3.64925e+05
5.19534e-03,3.48568e+05
5.29759e-03,3.32897e+05
5.40185e-03,3.17887e+05
5.50816e-03,3.03511e+05
5.61657e-03,2.89743e+05
5.72711e-03,2.76558e+05
5.83983e-03,2.63935e+05
5.95476e-03,2.51850e+05
6.07196e-03,2.40281e+05
6.19147e-03,2.29208e+05
6.31332e-03,2.18610e+05
6.43757e-03,2.08469e+05
6.56427e-03,1.98767e+05
6.69347e-03,1.89484e+05
6.82520e-03,1.80605e+05
6.95953e-03,1.72113e+05
7.09650e-03,1.63991e+05
7.23617e-03,1.56226e+05
7.37859e-03,1.48803e+05
7.52381e-03,1.41706e+05
7.67189e-03,1.34924e+05
7.82288e-03,1.28443e+05
7.97684e-03,1.22250e+05
8.13384e-03,1.16334e+05
8.29392e-03,1.10684e+05
8.45715e-03,1.05287e+05
8.62360e-03,1.00135e+05
8.79332e-03,9.52156e+04
8.96639e-03,9.05202e+04
9.14286e-03,8.60391e+04
9.32280e-03,8.17633e+04
9.50628e-03,7.76842e+04
9.69338e-03,7.37934e+04
9.88416e-03,7.00828e+04
1.00787e-02,6.65450e+04
1.02770e-02,6.31723e+04
1.04793e-02,5.99579e+04
1.06856e-02,5.68948e+04
1.08959e-02,5.39765e+04
1.11103e-02,5.11968e+04
1.13290e-02,4.85495e+04
1.15519e-02,4.60291e+04
1.17793e-02,4.36298e+04
1.20111e-02,4.13463e+04
1.22475e-02,3.91736e+04
1.24886e-02,3.71067e+04
1.27344e-02,3.51409e+04
1.29850e-02,3.32717e+04
1.32405e-02,3.14947e+04
1.35011e-02,2.98058e+04
1.37669e-02,2.82010e+04
1.40378e-02,2.66765e+04
1.43141e-02,2.52286e+04
1.45958e-02,2.38538e+04
1.48831e-02,2.25486e+04
1.51760e-02,2.13100e+04
1.54747e-02,2.01347e+04
1.57792e-02,1.90198e+04
1.60898e-02,1.79626e+04
1.64064e-02,1.69601e+04
1.67293e-02,1.60099e+04
1.70586e-02,1.51094e+04
1.73943e-02,1.42563e+04
1.77367e-02,1.34483e+04
1.80858e-02,1.26832e+04
1.84417e-02,1.19588e+04
1.88047e-02,1.12733e+04
1.91748e-02,1.06246e+04
1.95521e-02,1.00110e+04
1.99370e-02,9.43076e+03
2.03293e-02,8.88212e+03
2.07294e-02,8.36353e+03
2.11374e-02,7.87348e+03
2.15534e-02,7.41051e+03
2.19776e-02,6.97324e+03
2.24102e-02,6.56034e+03
2.28512e-02,6.17056e+03
2.33010e-02,5.80270e+03
2.37596e-02,5.45560e+03
2.42272e-02,5.12819e+03
2.47040e-02,4.81942e+03
2.51902e-02,4.52831e+03
2.56860e-02,4.25390e+03
2.61915e-02,3.99531e+03
2.67070e-02,3.75169e+03
2.72326e-02,3.52221e+03
2.77686e-02,3.30612e+03
2.83151e-02,3.10269e+03
2.88724e-02,2.91120e+03
2.94406e-02,2.73101e+03
3.00201e-02,2.56149e+03
3.06109e-02,2.40205e+03
3.12134e-02,2.25211e+03
3.18277e-02,2.11114e+03
3.24541e-02,1.97864e+03
3.30928e-02,1.85412e+03
3.37441e-02,1.73713e+03
3.44083e-02,1.62724e+03
3.50855e-02,1.52403e+03
3.57760e-02,1.42712e+03
3.64801e-02,1.33615e+03
3.71981e-02,1.25077e+03
3.79302e-02,1.17065e+03
3.86767e-02,1.09548e+03
3.94379e-02,1.02497e+03
4.02141e-02,9.58839e+02
4.10055e-02,8.96832e+02
4.18126e-02,8.38700e+02
4.26355e-02,7.84211e+02
4.34746e-02,7.33146e+02
4.43302e-02,6.85297e+02
4.52027e-02,6.40471e+02
4.60924e-02,5.98482e+02
4.69995e-02,5.59157e+02
4.79245e-02,5.22335e+02
4.88677e-02,4.87859e+02
4.98295e-02,4.55587e+02
5.08102e-02,4.25382e+02
5.18102e-02,3.97115e+02
5.28299e-02,3.70666e+02
5.38697e-02,3.45922e+02
5.49299e-02,3.22775e+02
5.60110e-02,3.01126e+02
5.71134e-02,2.80881e+02
5.82374e-02,2.61950e+02
5.93836e-02,2.44251e+02
6.05523e-02,2.27705e+02
6.17441e-02,2.12240e+02
6.29593e-02,1.97786e+02
6.41984e-02,1.84279e+02
6.54619e-02,1.71658e+02
6.67503e-02,1.59867e+02
6.80640e-02,1.48851e+02
6.94036e-02,1.38562e+02
7.07695e-02,1.28952e+02
7.21624e-02,1.19977e+02
7.35826e-02,1.11596e+02
7.50308e-02,1.03770e+02
7.65075e-02,9.64637e+01
7.80133e-02,8.96428e+01
7.95487e-02,8.32757e+01
8.11143e-02,7.73327e+01
8.27107e-02,7.17859e+01
8.43385e-02,6.66094e+01
8.59984e-02,6.17788e+01
8.76910e-02,5.72714e+01
8.94169e-02,5.30658e+01
9.11767e-02,4.91422e+01
9.29712e-02,4.54818e+01
9.48009e-02,4.20672e+01
9.66667e-02,3.88822e+01
9.85693e-02,3.59115e+01
1.00509e-01,3.31408e+01
1.02487e-01,3.05569e+01
1.04504e-01,2.81473e+01
1.06561e-01,2.59003e+01
1.08658e-01,2.38051e+01
1.10797e-01,2.18516e+01
1.12978e-01,2.00303e+01
1.15201e-01,1.83322e+01
1.17468e-01,1.67492e+01
1.19780e-01,1.52736e+01
1.22138e-01,1.38980e+01
1.24542e-01,1.26158e+01
1.26993e-01,1.14208e+01
1.29492e-01,1.03069e+01
1.32041e-01,9.26877e+00
1.34639e-01,8.30129e+00
1.37289e-01,7.39966e+00
1.39991e-01,6.55945e+00
1.42747e-01,5.77650e+00
1.45556e-01,5.04693e+00
1.48421e-01,4.36712e+00
1.51342e-01,3.73371e+00
1.54320e-01,3.14354e+00
1.57358e-01,2.59368e+00
1.60455e-01,2.08140e+00
1.63612e-01,1.60413e+00
1.66833e-01,1.15951e+00
1.70116e-01,7.45302e-01
1.73464e-01,3.59442e-01
1.76878e-01,0.00000e+00
