m1=10683.749, m2=75.299, gsp=2.239, rhosp=16.182
fGW[Hz],dPh[rad]
2.47865e-03,3.20178e+02
2.54319e-03,3.02688e+02
2.60942e-03,2.86150e+02
2.67737e-03,2.70513e+02
2.74709e-03,2.55728e+02
2.81863e-03,2.41748e+02
2.89202e-03,2.28529e+02
2.96733e-03,2.16031e+02
3.04461e-03,2.04214e+02
3.12389e-03,1.93040e+02
3.20524e-03,1.82476e+02
3.28870e-03,1.72487e+02
3.37434e-03,1.63043e+02
3.46221e-03,1.54113e+02
3.55237e-03,1.45670e+02
3.64488e-03,1.37688e+02
3.73979e-03,1.30141e+02
3.83718e-03,1.23005e+02
3.93710e-03,1.16259e+02
4.03963e-03,1.09880e+02
4.14482e-03,1.03850e+02
4.25275e-03,9.81487e+01
4.36350e-03,9.27584e+01
4.47713e-03,8.76624e+01
4.59371e-03,8.28445e+01
4.71334e-03,7.82897e+01
4.83608e-03,7.39836e+01
4.96201e-03,6.99127e+01
5.09122e-03,6.60641e+01
5.22380e-03,6.24258e+01
5.35983e-03,5.89864e+01
5.49941e-03,5.57349e+01
5.64262e-03,5.26611e+01
5.78955e-03,4.97555e+01
5.94032e-03,4.70087e+01
6.09501e-03,4.44122e+01
6.25372e-03,4.19578e+01
6.41658e-03,3.96378e+01
6.58367e-03,3.74447e+01
6.75511e-03,3.53717e+01
6.93102e-03,3.34123e+01
7.11151e-03,3.15602e+01
7.29669e-03,2.98097e+01
7.48670e-03,2.81551e+01
7.68166e-03,2.65912e+01
7.88170e-03,2.51132e+01
8.08694e-03,2.37162e+01
8.29753e-03,2.23960e+01
8.51360e-03,2.11482e+01
8.73530e-03,1.99690e+01
8.96278e-03,1.88547e+01
9.19617e-03,1.78016e+01
9.43565e-03,1.68064e+01
9.68136e-03,1.58660e+01
9.93347e-03,1.49774e+01
1.01921e-02,1.41377e+01
1.04575e-02,1.33443e+01
1.07299e-02,1.25946e+01
1.10093e-02,1.18863e+01
1.12960e-02,1.12171e+01
1.15901e-02,1.05849e+01
1.18919e-02,9.98759e+00
1.22016e-02,9.42333e+00
1.25194e-02,8.89028e+00
1.28454e-02,8.38675e+00
1.31799e-02,7.91112e+00
1.35231e-02,7.46186e+00
1.38752e-02,7.03753e+00
1.42365e-02,6.63676e+00
1.46073e-02,6.25826e+00
1.49877e-02,5.90082e+00
1.53779e-02,5.56327e+00
1.57784e-02,5.24452e+00
1.61893e-02,4.94355e+00
1.66109e-02,4.65938e+00
1.70434e-02,4.39108e+00
1.74872e-02,4.13779e+00
1.79426e-02,3.89868e+00
1.84098e-02,3.67296e+00
1.88893e-02,3.45991e+00
1.93811e-02,3.25883e+00
1.98858e-02,3.06905e+00
2.04037e-02,2.88996e+00
2.09350e-02,2.72096e+00
2.14802e-02,2.56151e+00
2.20395e-02,2.41106e+00
2.26134e-02,2.26913e+00
2.32023e-02,2.13525e+00
2.38065e-02,2.00896e+00
2.44265e-02,1.88986e+00
2.50625e-02,1.77753e+00
2.57152e-02,1.67162e+00
2.63848e-02,1.57175e+00
2.70719e-02,1.47760e+00
2.77769e-02,1.38885e+00
2.85002e-02,1.30519e+00
2.92424e-02,1.22635e+00
3.00038e-02,1.15206e+00
3.07852e-02,1.08206e+00
3.15868e-02,1.01611e+00
3.24094e-02,9.53987e-01
3.32533e-02,8.95479e-01
3.41193e-02,8.40382e-01
3.50078e-02,7.88503e-01
3.59194e-02,7.39663e-01
3.68547e-02,6.93691e-01
3.78145e-02,6.50426e-01
3.87992e-02,6.09714e-01
3.98095e-02,5.71412e-01
4.08462e-02,5.35383e-01
4.19099e-02,5.01499e-01
4.30012e-02,4.69638e-01
4.41210e-02,4.39685e-01
4.52699e-02,4.11531e-01
4.64488e-02,3.85074e-01
4.76583e-02,3.60216e-01
4.88994e-02,3.36867e-01
5.01728e-02,3.14938e-01
5.14793e-02,2.94350e-01
5.28199e-02,2.75024e-01
5.41953e-02,2.56887e-01
5.56066e-02,2.39870e-01
5.70546e-02,2.23909e-01
5.85404e-02,2.08942e-01
6.00648e-02,1.94910e-01
6.16289e-02,1.81759e-01
6.32338e-02,1.69437e-01
6.48804e-02,1.57895e-01
6.65700e-02,1.47087e-01
6.83035e-02,1.36969e-01
7.00821e-02,1.27501e-01
7.19071e-02,1.18643e-01
7.37796e-02,1.10358e-01
7.57009e-02,1.02613e-01
7.76722e-02,9.53737e-02
7.96948e-02,8.86104e-02
8.17701e-02,8.22937e-02
8.38995e-02,7.63963e-02
8.60843e-02,7.08923e-02
8.83260e-02,6.57574e-02
9.06260e-02,6.09686e-02
9.29860e-02,5.65043e-02
9.54074e-02,5.23441e-02
9.78919e-02,4.84690e-02
1.00441e-01,4.48606e-02
1.03057e-01,4.15021e-02
1.05740e-01,3.83775e-02
1.08494e-01,3.54716e-02
1.11319e-01,3.27702e-02
1.14218e-01,3.02601e-02
1.17192e-01,2.79287e-02
1.20244e-01,2.57641e-02
1.23375e-01,2.37554e-02
1.26588e-01,2.18921e-02
1.29884e-01,2.01644e-02
1.33267e-01,1.85632e-02
1.36737e-01,1.70798e-02
1.40298e-01,1.57063e-02
1.43951e-01,1.44349e-02
1.47700e-01,1.32587e-02
1.51546e-01,1.21711e-02
1.55492e-01,1.11657e-02
1.59541e-01,1.02368e-02
1.63696e-01,9.37889e-03
1.67959e-01,8.58698e-03
1.72332e-01,7.85627e-03
1.76820e-01,7.18232e-03
1.81425e-01,6.56101e-03
1.86149e-01,5.98845e-03
1.90996e-01,5.46106e-03
1.95970e-01,4.97548e-03
2.01073e-01,4.52857e-03
2.06309e-01,4.11743e-03
2.11682e-01,3.73935e-03
2.17194e-01,3.39182e-03
2.22850e-01,3.07249e-03
2.28653e-01,2.77919e-03
2.34607e-01,2.50990e-03
2.40717e-01,2.26276e-03
2.46985e-01,2.03602e-03
2.53417e-01,1.82808e-03
2.60016e-01,1.63745e-03
2.66787e-01,1.46276e-03
2.73734e-01,1.30272e-03
2.80862e-01,1.15615e-03
2.88176e-01,1.02198e-03
2.95681e-01,8.99186e-04
3.03380e-01,7.86843e-04
3.11280e-01,6.84096e-04
3.19386e-01,5.90153e-04
3.27703e-01,5.04286e-04
3.36237e-01,4.25823e-04
3.44993e-01,3.54147e-04
3.53977e-01,2.88689e-04
3.63194e-01,2.28926e-04
3.72652e-01,1.74376e-04
3.82356e-01,1.24599e-04
3.92313e-01,7.91870e-05
4.02529e-01,3.77681e-05
4.13011e-01,0.00000e+00
