m1=277211.753, m2=84.536, gsp=2.311, rhosp=27.371
fGW[Hz],dPh[rad]
1.05071e-03,5.68252e+03
1.06514e-03,5.45392e+03
1.07977e-03,5.23393e+03
1.09460e-03,5.02224e+03
1.10964e-03,4.81856e+03
1.12488e-03,4.62263e+03
1.14033e-03,4.43415e+03
1.15599e-03,4.25289e+03
1.17186e-03,4.07857e+03
1.18796e-03,3.91095e+03
1.20428e-03,3.74980e+03
1.22082e-03,3.59489e+03
1.23758e-03,3.44599e+03
1.25458e-03,3.30289e+03
1.27181e-03,3.16537e+03
1.28928e-03,3.03325e+03
1.30699e-03,2.90631e+03
1.32494e-03,2.78438e+03
1.34314e-03,2.66726e+03
1.36158e-03,2.55479e+03
1.38028e-03,2.44680e+03
1.39924e-03,2.34311e+03
1.41846e-03,2.24357e+03
1.43794e-03,2.14803e+03
1.45769e-03,2.05633e+03
1.47771e-03,1.96833e+03
1.49801e-03,1.88390e+03
1.51858e-03,1.80290e+03
1.53944e-03,1.72519e+03
1.56058e-03,1.65066e+03
1.58202e-03,1.57919e+03
1.60375e-03,1.51065e+03
1.62577e-03,1.44493e+03
1.64810e-03,1.38194e+03
1.67074e-03,1.32155e+03
1.69369e-03,1.26367e+03
1.71695e-03,1.20820e+03
1.74053e-03,1.15505e+03
1.76444e-03,1.10413e+03
1.78867e-03,1.05535e+03
1.81324e-03,1.00863e+03
1.83814e-03,9.63877e+02
1.86339e-03,9.21022e+02
1.88898e-03,8.79987e+02
1.91492e-03,8.40700e+02
1.94122e-03,8.03091e+02
1.96789e-03,7.67092e+02
1.99491e-03,7.32639e+02
2.02231e-03,6.99668e+02
2.05009e-03,6.68119e+02
2.07825e-03,6.37935e+02
2.10679e-03,6.09060e+02
2.13573e-03,5.81439e+02
2.16506e-03,5.55023e+02
2.19480e-03,5.29759e+02
2.22494e-03,5.05602e+02
2.25550e-03,4.82505e+02
2.28648e-03,4.60424e+02
2.31788e-03,4.39316e+02
2.34972e-03,4.19141e+02
2.38199e-03,3.99860e+02
2.41471e-03,3.81434e+02
2.44787e-03,3.63827e+02
2.48149e-03,3.47006e+02
2.51557e-03,3.30936e+02
2.55012e-03,3.15585e+02
2.58515e-03,3.00924e+02
2.62066e-03,2.86921e+02
2.65665e-03,2.73549e+02
2.69314e-03,2.60780e+02
2.73013e-03,2.48589e+02
2.76762e-03,2.36950e+02
2.80564e-03,2.25840e+02
2.84417e-03,2.15235e+02
2.88323e-03,2.05114e+02
2.92283e-03,1.95454e+02
2.96298e-03,1.86237e+02
3.00367e-03,1.77441e+02
3.04493e-03,1.69050e+02
3.08675e-03,1.61044e+02
3.12914e-03,1.53407e+02
3.17212e-03,1.46123e+02
3.21569e-03,1.39175e+02
3.25986e-03,1.32549e+02
3.30463e-03,1.26230e+02
3.35002e-03,1.20204e+02
3.39603e-03,1.14459e+02
3.44267e-03,1.08982e+02
3.48996e-03,1.03760e+02
3.53789e-03,9.87818e+01
3.58648e-03,9.40368e+01
3.63574e-03,8.95142e+01
3.68567e-03,8.52039e+01
3.73630e-03,8.10961e+01
3.78761e-03,7.71816e+01
3.83963e-03,7.34516e+01
3.89237e-03,6.98976e+01
3.94583e-03,6.65116e+01
4.00003e-03,6.32857e+01
4.05496e-03,6.02127e+01
4.11066e-03,5.72854e+01
4.16712e-03,5.44971e+01
4.22435e-03,5.18414e+01
4.28237e-03,4.93121e+01
4.34119e-03,4.69034e+01
4.40081e-03,4.46095e+01
4.46125e-03,4.24252e+01
4.52253e-03,4.03454e+01
4.58464e-03,3.83651e+01
4.64761e-03,3.64797e+01
4.71144e-03,3.46848e+01
4.77615e-03,3.29760e+01
4.84175e-03,3.13494e+01
4.90825e-03,2.98010e+01
4.97567e-03,2.83272e+01
5.04400e-03,2.69244e+01
5.11328e-03,2.55894e+01
5.18351e-03,2.43188e+01
5.25471e-03,2.31096e+01
5.32688e-03,2.19589e+01
5.40004e-03,2.08639e+01
5.47421e-03,1.98220e+01
5.54939e-03,1.88306e+01
5.62561e-03,1.78873e+01
5.70288e-03,1.69899e+01
5.78120e-03,1.61361e+01
5.86061e-03,1.53238e+01
5.94110e-03,1.45511e+01
6.02270e-03,1.38160e+01
6.10542e-03,1.31168e+01
6.18927e-03,1.24517e+01
6.27428e-03,1.18191e+01
6.36046e-03,1.12174e+01
6.44782e-03,1.06451e+01
6.53637e-03,1.01008e+01
6.62615e-03,9.58315e+00
6.71716e-03,9.09086e+00
6.80941e-03,8.62271e+00
6.90294e-03,8.17752e+00
6.99775e-03,7.75417e+00
7.09386e-03,7.35162e+00
7.19129e-03,6.96884e+00
7.29006e-03,6.60489e+00
7.39019e-03,6.25883e+00
7.49169e-03,5.92981e+00
7.59458e-03,5.61698e+00
7.69889e-03,5.31957e+00
7.80463e-03,5.03682e+00
7.91183e-03,4.76801e+00
8.02049e-03,4.51247e+00
8.13065e-03,4.26953e+00
8.24232e-03,4.03860e+00
8.35553e-03,3.81907e+00
8.47029e-03,3.61040e+00
8.58662e-03,3.41204e+00
8.70456e-03,3.22350e+00
8.82411e-03,3.04428e+00
8.94531e-03,2.87394e+00
9.06817e-03,2.71204e+00
9.19272e-03,2.55816e+00
9.31898e-03,2.41191e+00
9.44697e-03,2.27291e+00
9.57672e-03,2.14080e+00
9.70825e-03,2.01525e+00
9.84159e-03,1.89593e+00
9.97676e-03,1.78254e+00
1.01138e-02,1.67478e+00
1.02527e-02,1.57238e+00
1.03935e-02,1.47506e+00
1.05363e-02,1.38258e+00
1.06810e-02,1.29471e+00
1.08277e-02,1.21120e+00
1.09764e-02,1.13185e+00
1.11271e-02,1.05645e+00
1.12800e-02,9.84807e-01
1.14349e-02,9.16731e-01
1.15920e-02,8.52046e-01
1.17512e-02,7.90585e-01
1.19126e-02,7.32188e-01
1.20762e-02,6.76702e-01
1.22420e-02,6.23984e-01
1.24102e-02,5.73895e-01
1.25806e-02,5.26306e-01
1.27534e-02,4.81092e-01
1.29286e-02,4.38135e-01
1.31062e-02,3.97323e-01
1.32862e-02,3.58549e-01
1.34686e-02,3.21712e-01
1.36536e-02,2.86715e-01
1.38412e-02,2.53467e-01
1.40313e-02,2.21882e-01
1.42240e-02,1.91875e-01
1.44193e-02,1.63368e-01
1.46174e-02,1.36288e-01
1.48181e-02,1.10561e-01
1.50217e-02,8.61224e-02
1.52280e-02,6.29062e-02
1.54371e-02,4.08519e-02
1.56492e-02,1.99015e-02
1.58641e-02,0.00000e+00
