m1=137339.686, m2=4.913, gsp=2.123, rhosp=18.630
fGW[Hz],dPh[rad]
3.64013e-03,3.06052e+02
3.68012e-03,2.93668e+02
3.72055e-03,2.81779e+02
3.76142e-03,2.70364e+02
3.80274e-03,2.59405e+02
3.84452e-03,2.48885e+02
3.88675e-03,2.38786e+02
3.92945e-03,2.29091e+02
3.97262e-03,2.19784e+02
4.01626e-03,2.10851e+02
4.06038e-03,2.02277e+02
4.10499e-03,1.94047e+02
4.15008e-03,1.86147e+02
4.19567e-03,1.78566e+02
4.24177e-03,1.71289e+02
4.28836e-03,1.64306e+02
4.33547e-03,1.57604e+02
4.38310e-03,1.51172e+02
4.43125e-03,1.45000e+02
4.47993e-03,1.39077e+02
4.52915e-03,1.33394e+02
4.57891e-03,1.27940e+02
4.62921e-03,1.22707e+02
4.68006e-03,1.17686e+02
4.73148e-03,1.12868e+02
4.78346e-03,1.08245e+02
4.83600e-03,1.03810e+02
4.88913e-03,9.95547e+01
4.94284e-03,9.54721e+01
4.99714e-03,9.15554e+01
5.05204e-03,8.77978e+01
5.10754e-03,8.41930e+01
5.16365e-03,8.07349e+01
5.22038e-03,7.74174e+01
5.27772e-03,7.42351e+01
5.33570e-03,7.11824e+01
5.39432e-03,6.82542e+01
5.45358e-03,6.54453e+01
5.51349e-03,6.27511e+01
5.57406e-03,6.01668e+01
5.63530e-03,5.76880e+01
5.69720e-03,5.53105e+01
5.75979e-03,5.30302e+01
5.82307e-03,5.08431e+01
5.88704e-03,4.87455e+01
5.95171e-03,4.67337e+01
6.01709e-03,4.48043e+01
6.08320e-03,4.29539e+01
6.15002e-03,4.11793e+01
6.21759e-03,3.94774e+01
6.28589e-03,3.78453e+01
6.35494e-03,3.62802e+01
6.42476e-03,3.47793e+01
6.49534e-03,3.33400e+01
6.56669e-03,3.19598e+01
6.63883e-03,3.06363e+01
6.71177e-03,2.93672e+01
6.78550e-03,2.81503e+01
6.86004e-03,2.69834e+01
6.93540e-03,2.58645e+01
7.01160e-03,2.47916e+01
7.08862e-03,2.37629e+01
7.16650e-03,2.27765e+01
7.24522e-03,2.18308e+01
7.32482e-03,2.09240e+01
7.40529e-03,2.00546e+01
7.48664e-03,1.92211e+01
7.56888e-03,1.84219e+01
7.65203e-03,1.76556e+01
7.73610e-03,1.69210e+01
7.82108e-03,1.62167e+01
7.90700e-03,1.55415e+01
7.99387e-03,1.48942e+01
8.08168e-03,1.42735e+01
8.17047e-03,1.36786e+01
8.26023e-03,1.31082e+01
8.35097e-03,1.25614e+01
8.44271e-03,1.20372e+01
8.53546e-03,1.15346e+01
8.62923e-03,1.10529e+01
8.72402e-03,1.05911e+01
8.81986e-03,1.01484e+01
8.91676e-03,9.72400e+00
9.01471e-03,9.31718e+00
9.11375e-03,8.92722e+00
9.21387e-03,8.55340e+00
9.31509e-03,8.19507e+00
9.41742e-03,7.85159e+00
9.52088e-03,7.52234e+00
9.62547e-03,7.20674e+00
9.73121e-03,6.90422e+00
9.83812e-03,6.61424e+00
9.94619e-03,6.33630e+00
1.00555e-02,6.06988e+00
1.01659e-02,5.81451e+00
1.02776e-02,5.56974e+00
1.03905e-02,5.33513e+00
1.05047e-02,5.11026e+00
1.06201e-02,4.89473e+00
1.07367e-02,4.68814e+00
1.08547e-02,4.49014e+00
1.09739e-02,4.30035e+00
1.10945e-02,4.11846e+00
1.12164e-02,3.94412e+00
1.13396e-02,3.77702e+00
1.14642e-02,3.61687e+00
1.15901e-02,3.46338e+00
1.17174e-02,3.31627e+00
1.18461e-02,3.17528e+00
1.19763e-02,3.04015e+00
1.21078e-02,2.91064e+00
1.22409e-02,2.78651e+00
1.23753e-02,2.66755e+00
1.25113e-02,2.55354e+00
1.26487e-02,2.44428e+00
1.27877e-02,2.33956e+00
1.29282e-02,2.23920e+00
1.30702e-02,2.14302e+00
1.32138e-02,2.05084e+00
1.33589e-02,1.96251e+00
1.35057e-02,1.87785e+00
1.36541e-02,1.79671e+00
1.38041e-02,1.71896e+00
1.39557e-02,1.64444e+00
1.41090e-02,1.57303e+00
1.42640e-02,1.50459e+00
1.44207e-02,1.43901e+00
1.45791e-02,1.37616e+00
1.47393e-02,1.31593e+00
1.49012e-02,1.25821e+00
1.50649e-02,1.20289e+00
1.52304e-02,1.14988e+00
1.53977e-02,1.09908e+00
1.55669e-02,1.05040e+00
1.57379e-02,1.00375e+00
1.59108e-02,9.59049e-01
1.60856e-02,9.16209e-01
1.62623e-02,8.75156e-01
1.64410e-02,8.35816e-01
1.66216e-02,7.98116e-01
1.68042e-02,7.61990e-01
1.69888e-02,7.27371e-01
1.71754e-02,6.94197e-01
1.73641e-02,6.62407e-01
1.75548e-02,6.31943e-01
1.77477e-02,6.02752e-01
1.79427e-02,5.74779e-01
1.81398e-02,5.47973e-01
1.83391e-02,5.22287e-01
1.85405e-02,4.97673e-01
1.87442e-02,4.74086e-01
1.89501e-02,4.51485e-01
1.91583e-02,4.29827e-01
1.93688e-02,4.09074e-01
1.95816e-02,3.89187e-01
1.97967e-02,3.70131e-01
2.00142e-02,3.51871e-01
2.02340e-02,3.34374e-01
2.04563e-02,3.17608e-01
2.06810e-02,3.01542e-01
2.09082e-02,2.86147e-01
2.11379e-02,2.71396e-01
2.13701e-02,2.57260e-01
2.16049e-02,2.43716e-01
2.18422e-02,2.30737e-01
2.20822e-02,2.18301e-01
2.23248e-02,2.06385e-01
2.25700e-02,1.94966e-01
2.28180e-02,1.84025e-01
2.30687e-02,1.73541e-01
2.33221e-02,1.63495e-01
2.35783e-02,1.53870e-01
2.38373e-02,1.44646e-01
2.40992e-02,1.35808e-01
2.43639e-02,1.27340e-01
2.46316e-02,1.19226e-01
2.49022e-02,1.11451e-01
2.51757e-02,1.04001e-01
2.54523e-02,9.68625e-02
2.57319e-02,9.00225e-02
2.60146e-02,8.34686e-02
2.63004e-02,7.71888e-02
2.65893e-02,7.11716e-02
2.68814e-02,6.54060e-02
2.71767e-02,5.98816e-02
2.74753e-02,5.45882e-02
2.77771e-02,4.95162e-02
2.80823e-02,4.46564e-02
2.83908e-02,3.99999e-02
2.87027e-02,3.55381e-02
2.90180e-02,3.12630e-02
2.93368e-02,2.71667e-02
2.96591e-02,2.32418e-02
2.99849e-02,1.94811e-02
3.03143e-02,1.58777e-02
3.06473e-02,1.24251e-02
3.09840e-02,9.11692e-03
3.13244e-02,5.94717e-03
3.16685e-02,2.91004e-03
3.20164e-02,0.00000e+00
