m1=1789.346, m2=23.248, gsp=2.014, rhosp=75.606
fGW[Hz],dPh[rad]
6.02476e-03,6.19991e+00
6.20972e-03,5.77878e+00
6.40036e-03,5.38625e+00
6.59685e-03,5.02036e+00
6.79937e-03,4.67932e+00
7.00811e-03,4.36143e+00
7.22326e-03,4.06512e+00
7.44502e-03,3.78893e+00
7.67358e-03,3.53150e+00
7.90916e-03,3.29154e+00
8.15197e-03,3.06788e+00
8.40224e-03,2.85940e+00
8.66019e-03,2.66508e+00
8.92606e-03,2.48396e+00
9.20009e-03,2.31513e+00
9.48253e-03,2.15777e+00
9.77365e-03,2.01110e+00
1.00737e-02,1.87438e+00
1.03830e-02,1.74695e+00
1.07017e-02,1.62818e+00
1.10303e-02,1.51747e+00
1.13689e-02,1.41428e+00
1.17179e-02,1.31810e+00
1.20777e-02,1.22846e+00
1.24484e-02,1.14490e+00
1.28306e-02,1.06702e+00
1.32245e-02,9.94428e-01
1.36305e-02,9.26769e-01
1.40490e-02,8.63706e-01
1.44803e-02,8.04928e-01
1.49248e-02,7.50143e-01
1.53830e-02,6.99081e-01
1.58553e-02,6.51489e-01
1.63420e-02,6.07130e-01
1.68437e-02,5.65786e-01
1.73608e-02,5.27253e-01
1.78938e-02,4.91338e-01
1.84432e-02,4.57864e-01
1.90094e-02,4.26665e-01
1.95929e-02,3.97588e-01
2.01945e-02,3.70487e-01
2.08144e-02,3.45229e-01
2.14534e-02,3.21689e-01
2.21120e-02,2.99749e-01
2.27909e-02,2.79301e-01
2.34906e-02,2.60244e-01
2.42117e-02,2.42484e-01
2.49550e-02,2.25931e-01
2.57212e-02,2.10505e-01
2.65108e-02,1.96128e-01
2.73247e-02,1.82730e-01
2.81636e-02,1.70243e-01
2.90282e-02,1.58607e-01
2.99193e-02,1.47762e-01
3.08379e-02,1.37656e-01
3.17846e-02,1.28238e-01
3.27604e-02,1.19462e-01
3.37661e-02,1.11283e-01
3.48028e-02,1.03661e-01
3.58712e-02,9.65592e-02
3.69725e-02,8.99410e-02
3.81075e-02,8.37739e-02
3.92774e-02,7.80272e-02
4.04832e-02,7.26724e-02
4.17261e-02,6.76828e-02
4.30071e-02,6.30335e-02
4.43274e-02,5.87016e-02
4.56882e-02,5.46652e-02
4.70909e-02,5.09044e-02
4.85366e-02,4.74004e-02
5.00266e-02,4.41357e-02
5.15625e-02,4.10941e-02
5.31454e-02,3.82604e-02
5.47770e-02,3.56203e-02
5.64587e-02,3.31608e-02
5.81920e-02,3.08696e-02
5.99785e-02,2.87351e-02
6.18198e-02,2.67467e-02
6.37177e-02,2.48945e-02
6.56738e-02,2.31692e-02
6.76900e-02,2.15622e-02
6.97681e-02,2.00653e-02
7.19100e-02,1.86711e-02
7.41176e-02,1.73726e-02
7.63930e-02,1.61632e-02
7.87383e-02,1.50369e-02
8.11556e-02,1.39880e-02
8.36471e-02,1.30113e-02
8.62150e-02,1.21017e-02
8.88618e-02,1.12548e-02
9.15899e-02,1.04662e-02
9.44017e-02,9.73202e-03
9.72999e-02,9.04845e-03
1.00287e-01,8.41206e-03
1.03366e-01,7.81963e-03
1.06539e-01,7.26816e-03
1.09810e-01,6.75484e-03
1.13181e-01,6.27706e-03
1.16656e-01,5.83240e-03
1.20237e-01,5.41857e-03
1.23928e-01,5.03348e-03
1.27733e-01,4.67515e-03
1.31654e-01,4.34174e-03
1.35696e-01,4.03156e-03
1.39862e-01,3.74299e-03
1.44156e-01,3.47456e-03
1.48581e-01,3.22489e-03
1.53143e-01,2.99269e-03
1.57844e-01,2.77674e-03
1.62690e-01,2.57595e-03
1.67685e-01,2.38925e-03
1.72833e-01,2.21569e-03
1.78139e-01,2.05435e-03
1.83608e-01,1.90439e-03
1.89244e-01,1.76503e-03
1.95054e-01,1.63553e-03
2.01042e-01,1.51521e-03
2.07214e-01,1.40343e-03
2.13576e-01,1.29961e-03
2.20133e-01,1.20319e-03
2.26891e-01,1.11366e-03
2.33856e-01,1.03053e-03
2.41036e-01,9.53368e-04
2.48436e-01,8.81751e-04
2.56063e-01,8.15295e-04
2.63924e-01,7.53637e-04
2.72026e-01,6.96444e-04
2.80377e-01,6.43401e-04
2.88985e-01,5.94218e-04
2.97857e-01,5.48625e-04
3.07001e-01,5.06367e-04
3.16426e-01,4.67211e-04
3.26140e-01,4.30936e-04
3.36153e-01,3.97340e-04
3.46473e-01,3.66232e-04
3.57110e-01,3.37436e-04
3.68073e-01,3.10788e-04
3.79373e-01,2.86133e-04
3.91020e-01,2.63329e-04
4.03024e-01,2.42245e-04
4.15397e-01,2.22755e-04
4.28149e-01,2.04747e-04
4.41294e-01,1.88111e-04
4.54841e-01,1.72750e-04
4.68805e-01,1.58569e-04
4.83197e-01,1.45485e-04
4.98032e-01,1.33415e-04
5.13321e-01,1.22286e-04
5.29080e-01,1.12029e-04
5.45323e-01,1.02578e-04
5.62065e-01,9.38750e-05
5.79320e-01,8.58634e-05
5.97105e-01,7.84917e-05
6.15436e-01,7.17118e-05
6.34330e-01,6.54790e-05
6.53804e-01,5.97520e-05
6.73876e-01,5.44922e-05
6.94564e-01,4.96639e-05
7.15887e-01,4.52340e-05
7.37865e-01,4.11716e-05
7.60518e-01,3.74482e-05
7.83866e-01,3.40373e-05
8.07930e-01,3.09144e-05
8.32734e-01,2.80568e-05
8.58299e-01,2.54433e-05
8.84649e-01,2.30545e-05
9.11808e-01,2.08723e-05
9.39800e-01,1.88800e-05
9.68652e-01,1.70621e-05
9.98390e-01,1.54043e-05
1.02904e+00,1.38935e-05
1.06063e+00,1.25174e-05
1.09319e+00,1.12647e-05
1.12675e+00,1.01252e-05
1.16135e+00,9.08914e-06
1.19700e+00,8.14776e-06
1.23375e+00,7.29293e-06
1.27162e+00,6.51715e-06
1.31066e+00,5.81356e-06
1.35090e+00,5.17581e-06
1.39237e+00,4.59809e-06
1.43512e+00,4.07508e-06
1.47918e+00,3.60186e-06
1.52459e+00,3.17396e-06
1.57139e+00,2.78725e-06
1.61963e+00,2.43799e-06
1.66936e+00,2.12271e-06
1.72061e+00,1.83829e-06
1.77343e+00,1.58184e-06
1.82787e+00,1.35073e-06
1.88399e+00,1.14258e-06
1.94183e+00,9.55214e-07
2.00144e+00,7.86634e-07
2.06289e+00,6.35039e-07
2.12622e+00,4.98787e-07
2.19149e+00,3.76384e-07
2.25877e+00,2.66476e-07
2.32812e+00,1.67835e-07
2.39959e+00,7.93459e-08
2.47326e+00,0.00000e+00
