m1=932656.997, m2=86.258, gsp=2.449, rhosp=73.538
fGW[Hz],dPh[rad]
7.69946e-04,2.75011e+04
7.76990e-04,2.66219e+04
7.84097e-04,2.57703e+04
7.91270e-04,2.49455e+04
7.98509e-04,2.41467e+04
8.05813e-04,2.33731e+04
8.13185e-04,2.26238e+04
8.20623e-04,2.18981e+04
8.28130e-04,2.11954e+04
8.35706e-04,2.05149e+04
8.43351e-04,1.98558e+04
8.51065e-04,1.92176e+04
8.58851e-04,1.85996e+04
8.66707e-04,1.80012e+04
8.74636e-04,1.74217e+04
8.82637e-04,1.68606e+04
8.90711e-04,1.63173e+04
8.98859e-04,1.57913e+04
9.07081e-04,1.52819e+04
9.15379e-04,1.47888e+04
9.23753e-04,1.43113e+04
9.32203e-04,1.38490e+04
9.40731e-04,1.34015e+04
9.49336e-04,1.29682e+04
9.58021e-04,1.25487e+04
9.66784e-04,1.21425e+04
9.75628e-04,1.17494e+04
9.84553e-04,1.13688e+04
9.93560e-04,1.10003e+04
1.00265e-03,1.06436e+04
1.01182e-03,1.02983e+04
1.02108e-03,9.96411e+03
1.03042e-03,9.64057e+03
1.03984e-03,9.32740e+03
1.04936e-03,9.02425e+03
1.05895e-03,8.73082e+03
1.06864e-03,8.44681e+03
1.07842e-03,8.17190e+03
1.08828e-03,7.90581e+03
1.09824e-03,7.64827e+03
1.10828e-03,7.39901e+03
1.11842e-03,7.15775e+03
1.12865e-03,6.92426e+03
1.13898e-03,6.69827e+03
1.14940e-03,6.47955e+03
1.15991e-03,6.26788e+03
1.17052e-03,6.06302e+03
1.18123e-03,5.86477e+03
1.19204e-03,5.67290e+03
1.20294e-03,5.48722e+03
1.21394e-03,5.30754e+03
1.22505e-03,5.13365e+03
1.23626e-03,4.96537e+03
1.24756e-03,4.80253e+03
1.25898e-03,4.64495e+03
1.27049e-03,4.49246e+03
1.28212e-03,4.34490e+03
1.29384e-03,4.20212e+03
1.30568e-03,4.06395e+03
1.31762e-03,3.93026e+03
1.32968e-03,3.80089e+03
1.34184e-03,3.67572e+03
1.35412e-03,3.55460e+03
1.36650e-03,3.43740e+03
1.37900e-03,3.32401e+03
1.39162e-03,3.21429e+03
1.40435e-03,3.10813e+03
1.41720e-03,3.00541e+03
1.43016e-03,2.90603e+03
1.44324e-03,2.80988e+03
1.45644e-03,2.71685e+03
1.46977e-03,2.62684e+03
1.48321e-03,2.53976e+03
1.49678e-03,2.45550e+03
1.51047e-03,2.37399e+03
1.52429e-03,2.29513e+03
1.53823e-03,2.21883e+03
1.55231e-03,2.14502e+03
1.56651e-03,2.07361e+03
1.58084e-03,2.00452e+03
1.59530e-03,1.93768e+03
1.60989e-03,1.87303e+03
1.62462e-03,1.81047e+03
1.63948e-03,1.74996e+03
1.65448e-03,1.69142e+03
1.66961e-03,1.63479e+03
1.68489e-03,1.58000e+03
1.70030e-03,1.52701e+03
1.71585e-03,1.47574e+03
1.73155e-03,1.42614e+03
1.74739e-03,1.37817e+03
1.76337e-03,1.33176e+03
1.77950e-03,1.28686e+03
1.79578e-03,1.24344e+03
1.81221e-03,1.20143e+03
1.82879e-03,1.16079e+03
1.84552e-03,1.12148e+03
1.86240e-03,1.08346e+03
1.87944e-03,1.04668e+03
1.89663e-03,1.01111e+03
1.91398e-03,9.76696e+02
1.93149e-03,9.43409e+02
1.94916e-03,9.11212e+02
1.96699e-03,8.80069e+02
1.98498e-03,8.49945e+02
2.00314e-03,8.20808e+02
2.02146e-03,7.92625e+02
2.03995e-03,7.65365e+02
2.05861e-03,7.38998e+02
2.07745e-03,7.13495e+02
2.09645e-03,6.88827e+02
2.11563e-03,6.64968e+02
2.13498e-03,6.41892e+02
2.15451e-03,6.19571e+02
2.17422e-03,5.97983e+02
2.19411e-03,5.77103e+02
2.21418e-03,5.56908e+02
2.23444e-03,5.37375e+02
2.25488e-03,5.18483e+02
2.27550e-03,5.00211e+02
2.29632e-03,4.82539e+02
2.31733e-03,4.65447e+02
2.33852e-03,4.48916e+02
2.35992e-03,4.32928e+02
2.38150e-03,4.17464e+02
2.40329e-03,4.02509e+02
2.42527e-03,3.88045e+02
2.44746e-03,3.74056e+02
2.46985e-03,3.60527e+02
2.49244e-03,3.47442e+02
2.51524e-03,3.34788e+02
2.53825e-03,3.22549e+02
2.56147e-03,3.10713e+02
2.58490e-03,2.99266e+02
2.60855e-03,2.88195e+02
2.63241e-03,2.77488e+02
2.65649e-03,2.67133e+02
2.68079e-03,2.57119e+02
2.70532e-03,2.47435e+02
2.73006e-03,2.38069e+02
2.75504e-03,2.29011e+02
2.78024e-03,2.20251e+02
2.80567e-03,2.11779e+02
2.83134e-03,2.03587e+02
2.85724e-03,1.95664e+02
2.88338e-03,1.88002e+02
2.90975e-03,1.80592e+02
2.93637e-03,1.73426e+02
2.96323e-03,1.66496e+02
2.99034e-03,1.59794e+02
3.01769e-03,1.53313e+02
3.04530e-03,1.47045e+02
3.07316e-03,1.40984e+02
3.10127e-03,1.35123e+02
3.12964e-03,1.29454e+02
3.15827e-03,1.23973e+02
3.18716e-03,1.18672e+02
3.21632e-03,1.13546e+02
3.24574e-03,1.08588e+02
3.27543e-03,1.03794e+02
3.30539e-03,9.91586e+01
3.33563e-03,9.46756e+01
3.36614e-03,9.03403e+01
3.39693e-03,8.61480e+01
3.42801e-03,8.20940e+01
3.45937e-03,7.81736e+01
3.49101e-03,7.43825e+01
3.52295e-03,7.07164e+01
3.55518e-03,6.71713e+01
3.58770e-03,6.37431e+01
3.62052e-03,6.04280e+01
3.65364e-03,5.72222e+01
3.68706e-03,5.41222e+01
3.72079e-03,5.11245e+01
3.75482e-03,4.82257e+01
3.78917e-03,4.54226e+01
3.82383e-03,4.27120e+01
3.85881e-03,4.00908e+01
3.89411e-03,3.75561e+01
3.92974e-03,3.51051e+01
3.96568e-03,3.27350e+01
4.00196e-03,3.04432e+01
4.03857e-03,2.82270e+01
4.07551e-03,2.60839e+01
4.11280e-03,2.40117e+01
4.15042e-03,2.20078e+01
4.18839e-03,2.00701e+01
4.22670e-03,1.81964e+01
4.26537e-03,1.63846e+01
4.30438e-03,1.46326e+01
4.34376e-03,1.29384e+01
4.38350e-03,1.13003e+01
4.42360e-03,9.71619e+00
4.46406e-03,8.18445e+00
4.50490e-03,6.70330e+00
4.54611e-03,5.27108e+00
4.58769e-03,3.88618e+00
4.62966e-03,2.54703e+00
4.67201e-03,1.25212e+00
4.71475e-03,0.00000e+00
