m1=102904.517, m2=49.901, gsp=2.269, rhosp=129.945
fGW[Hz],dPh[rad]
1.64035e-03,5.62490e+03
1.66745e-03,5.38846e+03
1.69499e-03,5.16132e+03
1.72299e-03,4.94313e+03
1.75145e-03,4.73358e+03
1.78038e-03,4.53233e+03
1.80979e-03,4.33908e+03
1.83968e-03,4.15352e+03
1.87007e-03,3.97539e+03
1.90096e-03,3.80438e+03
1.93236e-03,3.64025e+03
1.96428e-03,3.48273e+03
1.99672e-03,3.33157e+03
2.02970e-03,3.18653e+03
2.06323e-03,3.04738e+03
2.09731e-03,2.91390e+03
2.13195e-03,2.78587e+03
2.16717e-03,2.66309e+03
2.20297e-03,2.54536e+03
2.23936e-03,2.43248e+03
2.27634e-03,2.32426e+03
2.31395e-03,2.22054e+03
2.35217e-03,2.12113e+03
2.39102e-03,2.02587e+03
2.43051e-03,1.93459e+03
2.47066e-03,1.84715e+03
2.51147e-03,1.76340e+03
2.55296e-03,1.68318e+03
2.59513e-03,1.60637e+03
2.63799e-03,1.53282e+03
2.68157e-03,1.46242e+03
2.72586e-03,1.39503e+03
2.77089e-03,1.33054e+03
2.81666e-03,1.26883e+03
2.86318e-03,1.20979e+03
2.91047e-03,1.15331e+03
2.95855e-03,1.09929e+03
3.00742e-03,1.04764e+03
3.05709e-03,9.98255e+02
3.10759e-03,9.51043e+02
3.15892e-03,9.05918e+02
3.21110e-03,8.62795e+02
3.26414e-03,8.21591e+02
3.31806e-03,7.82227e+02
3.37287e-03,7.44628e+02
3.42858e-03,7.08721e+02
3.48521e-03,6.74435e+02
3.54278e-03,6.41703e+02
3.60130e-03,6.10460e+02
3.66079e-03,5.80643e+02
3.72126e-03,5.52192e+02
3.78272e-03,5.25050e+02
3.84521e-03,4.99160e+02
3.90872e-03,4.74469e+02
3.97328e-03,4.50926e+02
4.03891e-03,4.28482e+02
4.10563e-03,4.07088e+02
4.17345e-03,3.86700e+02
4.24238e-03,3.67274e+02
4.31246e-03,3.48767e+02
4.38369e-03,3.31140e+02
4.45610e-03,3.14353e+02
4.52971e-03,2.98369e+02
4.60453e-03,2.83153e+02
4.68058e-03,2.68671e+02
4.75790e-03,2.54889e+02
4.83649e-03,2.41776e+02
4.91638e-03,2.29301e+02
4.99759e-03,2.17437e+02
5.08014e-03,2.06154e+02
5.16405e-03,1.95427e+02
5.24935e-03,1.85230e+02
5.33606e-03,1.75538e+02
5.42420e-03,1.66328e+02
5.51379e-03,1.57578e+02
5.60487e-03,1.49266e+02
5.69745e-03,1.41372e+02
5.79156e-03,1.33875e+02
5.88723e-03,1.26757e+02
5.98447e-03,1.20001e+02
6.08332e-03,1.13588e+02
6.18381e-03,1.07503e+02
6.28595e-03,1.01729e+02
6.38978e-03,9.62525e+01
6.49533e-03,9.10579e+01
6.60262e-03,8.61318e+01
6.71168e-03,8.14611e+01
6.82254e-03,7.70333e+01
6.93524e-03,7.28365e+01
7.04979e-03,6.88593e+01
7.16624e-03,6.50907e+01
7.28461e-03,6.15204e+01
7.40494e-03,5.81385e+01
7.52725e-03,5.49355e+01
7.65159e-03,5.19025e+01
7.77798e-03,4.90308e+01
7.90645e-03,4.63124e+01
8.03705e-03,4.37393e+01
8.16981e-03,4.13041e+01
8.30475e-03,3.89999e+01
8.44193e-03,3.68199e+01
8.58137e-03,3.47577e+01
8.72312e-03,3.28072e+01
8.86721e-03,3.09625e+01
9.01368e-03,2.92183e+01
9.16256e-03,2.75692e+01
9.31391e-03,2.60102e+01
9.46776e-03,2.45367e+01
9.62415e-03,2.31441e+01
9.78312e-03,2.18282e+01
9.94471e-03,2.05848e+01
1.01090e-02,1.94102e+01
1.02760e-02,1.83006e+01
1.04457e-02,1.72527e+01
1.06182e-02,1.62630e+01
1.07936e-02,1.53284e+01
1.09719e-02,1.44460e+01
1.11532e-02,1.36130e+01
1.13374e-02,1.28267e+01
1.15246e-02,1.20845e+01
1.17150e-02,1.13840e+01
1.19085e-02,1.07230e+01
1.21052e-02,1.00993e+01
1.23052e-02,9.51091e+00
1.25084e-02,8.95580e+00
1.27150e-02,8.43218e+00
1.29251e-02,7.93830e+00
1.31386e-02,7.47253e+00
1.33556e-02,7.03329e+00
1.35762e-02,6.61912e+00
1.38004e-02,6.22862e+00
1.40284e-02,5.86047e+00
1.42601e-02,5.51342e+00
1.44957e-02,5.18628e+00
1.47351e-02,4.87795e+00
1.49785e-02,4.58736e+00
1.52259e-02,4.31351e+00
1.54774e-02,4.05546e+00
1.57331e-02,3.81232e+00
1.59930e-02,3.58323e+00
1.62571e-02,3.36741e+00
1.65257e-02,3.16411e+00
1.67986e-02,2.97259e+00
1.70761e-02,2.79221e+00
1.73582e-02,2.62231e+00
1.76449e-02,2.46231e+00
1.79363e-02,2.31163e+00
1.82326e-02,2.16974e+00
1.85338e-02,2.03613e+00
1.88399e-02,1.91034e+00
1.91511e-02,1.79190e+00
1.94675e-02,1.68040e+00
1.97890e-02,1.57544e+00
2.01159e-02,1.47663e+00
2.04482e-02,1.38362e+00
2.07859e-02,1.29608e+00
2.11293e-02,1.21368e+00
2.14783e-02,1.13614e+00
2.18331e-02,1.06316e+00
2.21937e-02,9.94483e-01
2.25603e-02,9.29857e-01
2.29329e-02,8.69046e-01
2.33117e-02,8.11828e-01
2.36968e-02,7.57991e-01
2.40882e-02,7.07339e-01
2.44861e-02,6.59685e-01
2.48906e-02,6.14853e-01
2.53017e-02,5.72678e-01
2.57196e-02,5.33004e-01
2.61445e-02,4.95684e-01
2.65763e-02,4.60580e-01
2.70153e-02,4.27561e-01
2.74616e-02,3.96504e-01
2.79152e-02,3.67294e-01
2.83763e-02,3.39822e-01
2.88450e-02,3.13986e-01
2.93214e-02,2.89688e-01
2.98058e-02,2.66837e-01
3.02981e-02,2.45349e-01
3.07986e-02,2.25143e-01
3.13073e-02,2.06142e-01
3.18244e-02,1.88275e-01
3.23501e-02,1.71476e-01
3.28845e-02,1.55679e-01
3.34276e-02,1.40827e-01
3.39798e-02,1.26864e-01
3.45411e-02,1.13735e-01
3.51116e-02,1.01392e-01
3.56916e-02,8.97872e-02
3.62811e-02,7.88777e-02
3.68804e-02,6.86217e-02
3.74896e-02,5.89801e-02
3.81089e-02,4.99165e-02
3.87384e-02,4.13963e-02
3.93782e-02,3.33872e-02
4.00287e-02,2.58585e-02
4.06899e-02,1.87817e-02
4.13620e-02,1.21296e-02
4.20452e-02,5.87705e-03
4.27397e-02,0.00000e+00
