m1=749392.704, m2=3.035, gsp=2.213, rhosp=87.363
fGW[Hz],dPh[rad]
2.85305e-03,2.37212e+02
2.86340e-03,2.33704e+02
2.87380e-03,2.30244e+02
2.88423e-03,2.26833e+02
2.89470e-03,2.23469e+02
2.90520e-03,2.20151e+02
2.91575e-03,2.16880e+02
2.92633e-03,2.13654e+02
2.93696e-03,2.10473e+02
2.94762e-03,2.07335e+02
2.95832e-03,2.04242e+02
2.96905e-03,2.01191e+02
2.97983e-03,1.98183e+02
2.99065e-03,1.95216e+02
3.00150e-03,1.92290e+02
3.01240e-03,1.89405e+02
3.02333e-03,1.86560e+02
3.03431e-03,1.83755e+02
3.04532e-03,1.80988e+02
3.05638e-03,1.78260e+02
3.06747e-03,1.75569e+02
3.07861e-03,1.72916e+02
3.08978e-03,1.70300e+02
3.10100e-03,1.67720e+02
3.11225e-03,1.65175e+02
3.12355e-03,1.62666e+02
3.13489e-03,1.60192e+02
3.14627e-03,1.57752e+02
3.15769e-03,1.55346e+02
3.16915e-03,1.52974e+02
3.18065e-03,1.50634e+02
3.19220e-03,1.48327e+02
3.20379e-03,1.46051e+02
3.21541e-03,1.43808e+02
3.22709e-03,1.41595e+02
3.23880e-03,1.39413e+02
3.25056e-03,1.37261e+02
3.26236e-03,1.35140e+02
3.27420e-03,1.33047e+02
3.28608e-03,1.30984e+02
3.29801e-03,1.28949e+02
3.30998e-03,1.26943e+02
3.32200e-03,1.24964e+02
3.33406e-03,1.23013e+02
3.34616e-03,1.21088e+02
3.35830e-03,1.19191e+02
3.37049e-03,1.17320e+02
3.38273e-03,1.15475e+02
3.39501e-03,1.13655e+02
3.40733e-03,1.11861e+02
3.41970e-03,1.10091e+02
3.43211e-03,1.08346e+02
3.44457e-03,1.06625e+02
3.45707e-03,1.04929e+02
3.46962e-03,1.03255e+02
3.48222e-03,1.01605e+02
3.49486e-03,9.99778e+01
3.50754e-03,9.83731e+01
3.52028e-03,9.67907e+01
3.53305e-03,9.52303e+01
3.54588e-03,9.36914e+01
3.55875e-03,9.21740e+01
3.57167e-03,9.06776e+01
3.58463e-03,8.92019e+01
3.59764e-03,8.77467e+01
3.61070e-03,8.63117e+01
3.62381e-03,8.48966e+01
3.63696e-03,8.35011e+01
3.65016e-03,8.21250e+01
3.66341e-03,8.07680e+01
3.67671e-03,7.94298e+01
3.69006e-03,7.81102e+01
3.70345e-03,7.68088e+01
3.71690e-03,7.55256e+01
3.73039e-03,7.42601e+01
3.74393e-03,7.30122e+01
3.75752e-03,7.17816e+01
3.77116e-03,7.05680e+01
3.78485e-03,6.93713e+01
3.79859e-03,6.81912e+01
3.81237e-03,6.70275e+01
3.82621e-03,6.58799e+01
3.84010e-03,6.47483e+01
3.85404e-03,6.36323e+01
3.86803e-03,6.25318e+01
3.88207e-03,6.14466e+01
3.89616e-03,6.03764e+01
3.91030e-03,5.93211e+01
3.92450e-03,5.82805e+01
3.93874e-03,5.72542e+01
3.95304e-03,5.62422e+01
3.96739e-03,5.52443e+01
3.98179e-03,5.42601e+01
3.99624e-03,5.32897e+01
4.01075e-03,5.23327e+01
4.02531e-03,5.13890e+01
4.03992e-03,5.04583e+01
4.05458e-03,4.95406e+01
4.06930e-03,4.86356e+01
4.08407e-03,4.77432e+01
4.09890e-03,4.68631e+01
4.11378e-03,4.59953e+01
4.12871e-03,4.51395e+01
4.14370e-03,4.42956e+01
4.15874e-03,4.34633e+01
4.17383e-03,4.26427e+01
4.18898e-03,4.18334e+01
4.20419e-03,4.10353e+01
4.21945e-03,4.02483e+01
4.23477e-03,3.94723e+01
4.25014e-03,3.87070e+01
4.26557e-03,3.79523e+01
4.28105e-03,3.72081e+01
4.29659e-03,3.64742e+01
4.31218e-03,3.57505e+01
4.32784e-03,3.50368e+01
4.34355e-03,3.43330e+01
4.35931e-03,3.36390e+01
4.37514e-03,3.29547e+01
4.39102e-03,3.22798e+01
4.40696e-03,3.16143e+01
4.42295e-03,3.09580e+01
4.43901e-03,3.03108e+01
4.45512e-03,2.96726e+01
4.47129e-03,2.90433e+01
4.48752e-03,2.84227e+01
4.50381e-03,2.78107e+01
4.52016e-03,2.72072e+01
4.53657e-03,2.66120e+01
4.55304e-03,2.60252e+01
4.56956e-03,2.54464e+01
4.58615e-03,2.48757e+01
4.60280e-03,2.43129e+01
4.61950e-03,2.37580e+01
4.63627e-03,2.32107e+01
4.65310e-03,2.26710e+01
4.66999e-03,2.21388e+01
4.68694e-03,2.16140e+01
4.70396e-03,2.10965e+01
4.72103e-03,2.05861e+01
4.73817e-03,2.00829e+01
4.75537e-03,1.95866e+01
4.77263e-03,1.90972e+01
4.78995e-03,1.86146e+01
4.80734e-03,1.81387e+01
4.82479e-03,1.76694e+01
4.84230e-03,1.72066e+01
4.85988e-03,1.67502e+01
4.87752e-03,1.63001e+01
4.89523e-03,1.58563e+01
4.91300e-03,1.54187e+01
4.93083e-03,1.49871e+01
4.94873e-03,1.45616e+01
4.96669e-03,1.41419e+01
4.98472e-03,1.37280e+01
5.00281e-03,1.33199e+01
5.02097e-03,1.29175e+01
5.03920e-03,1.25206e+01
5.05749e-03,1.21293e+01
5.07585e-03,1.17433e+01
5.09427e-03,1.13628e+01
5.11276e-03,1.09875e+01
5.13132e-03,1.06174e+01
5.14995e-03,1.02525e+01
5.16864e-03,9.89258e+00
5.18740e-03,9.53769e+00
5.20623e-03,9.18773e+00
5.22513e-03,8.84262e+00
5.24410e-03,8.50230e+00
5.26313e-03,8.16671e+00
5.28224e-03,7.83577e+00
5.30141e-03,7.50942e+00
5.32066e-03,7.18760e+00
5.33997e-03,6.87025e+00
5.35935e-03,6.55730e+00
5.37881e-03,6.24869e+00
5.39833e-03,5.94436e+00
5.41793e-03,5.64426e+00
5.43759e-03,5.34832e+00
5.45733e-03,5.05649e+00
5.47714e-03,4.76871e+00
5.49702e-03,4.48492e+00
5.51698e-03,4.20507e+00
5.53700e-03,3.92911e+00
5.55710e-03,3.65697e+00
5.57727e-03,3.38861e+00
5.59752e-03,3.12397e+00
5.61784e-03,2.86300e+00
5.63823e-03,2.60566e+00
5.65869e-03,2.35189e+00
5.67923e-03,2.10164e+00
5.69985e-03,1.85486e+00
5.72054e-03,1.61150e+00
5.74130e-03,1.37153e+00
5.76214e-03,1.13488e+00
5.78306e-03,9.01516e-01
5.80405e-03,6.71391e-01
5.82512e-03,4.44459e-01
5.84626e-03,2.20677e-01
5.86749e-03,0.00000e+00
