m1=2070.817, m2=72.781, gsp=2.292, rhosp=51.626
fGW[Hz],dPh[rad]
3.79659e-03,3.01179e+02
3.91957e-03,2.81323e+02
4.04653e-03,2.62776e+02
4.17761e-03,2.45451e+02
4.31293e-03,2.29269e+02
4.45264e-03,2.14153e+02
4.59687e-03,2.00033e+02
4.74578e-03,1.86844e+02
4.89950e-03,1.74525e+02
5.05821e-03,1.63017e+02
5.22206e-03,1.52268e+02
5.39122e-03,1.42228e+02
5.56585e-03,1.32849e+02
5.74614e-03,1.24089e+02
5.93227e-03,1.15906e+02
6.12444e-03,1.08262e+02
6.32282e-03,1.01122e+02
6.52763e-03,9.44533e+01
6.73908e-03,8.82239e+01
6.95738e-03,8.24051e+01
7.18274e-03,7.69699e+01
7.41541e-03,7.18930e+01
7.65562e-03,6.71508e+01
7.90360e-03,6.27212e+01
8.15962e-03,5.85836e+01
8.42393e-03,5.47188e+01
8.69680e-03,5.11088e+01
8.97851e-03,4.77369e+01
9.26935e-03,4.45872e+01
9.56961e-03,4.16452e+01
9.87959e-03,3.88971e+01
1.01996e-02,3.63302e+01
1.05300e-02,3.39326e+01
1.08711e-02,3.16931e+01
1.12232e-02,2.96012e+01
1.15868e-02,2.76473e+01
1.19621e-02,2.58222e+01
1.23496e-02,2.41175e+01
1.27496e-02,2.25252e+01
1.31626e-02,2.10379e+01
1.35890e-02,1.96486e+01
1.40292e-02,1.83510e+01
1.44836e-02,1.71390e+01
1.49528e-02,1.60069e+01
1.54371e-02,1.49495e+01
1.59372e-02,1.39618e+01
1.64534e-02,1.30393e+01
1.69864e-02,1.21776e+01
1.75366e-02,1.13728e+01
1.81047e-02,1.06210e+01
1.86912e-02,9.91890e+00
1.92966e-02,9.26309e+00
1.99217e-02,8.65054e+00
2.05670e-02,8.07841e+00
2.12332e-02,7.54404e+00
2.19210e-02,7.04493e+00
2.26311e-02,6.57876e+00
2.33642e-02,6.14335e+00
2.41210e-02,5.73669e+00
2.49023e-02,5.35687e+00
2.57090e-02,5.00212e+00
2.65417e-02,4.67079e+00
2.74015e-02,4.36134e+00
2.82891e-02,4.07233e+00
2.92055e-02,3.80239e+00
3.01515e-02,3.55029e+00
3.11282e-02,3.31484e+00
3.21365e-02,3.09494e+00
3.31775e-02,2.88957e+00
3.42522e-02,2.69776e+00
3.53617e-02,2.51864e+00
3.65072e-02,2.35135e+00
3.76897e-02,2.19512e+00
3.89106e-02,2.04921e+00
4.01710e-02,1.91295e+00
4.14722e-02,1.78571e+00
4.28156e-02,1.66688e+00
4.42025e-02,1.55591e+00
4.56344e-02,1.45228e+00
4.71126e-02,1.35551e+00
4.86387e-02,1.26514e+00
5.02142e-02,1.18075e+00
5.18408e-02,1.10196e+00
5.35200e-02,1.02838e+00
5.52537e-02,9.59675e-01
5.70435e-02,8.95523e-01
5.88913e-02,8.35623e-01
6.07989e-02,7.79693e-01
6.27683e-02,7.27473e-01
6.48016e-02,6.78716e-01
6.69006e-02,6.33195e-01
6.90677e-02,5.90695e-01
7.13050e-02,5.51017e-01
7.36148e-02,5.13974e-01
7.59993e-02,4.79393e-01
7.84611e-02,4.47110e-01
8.10027e-02,4.16974e-01
8.36266e-02,3.88842e-01
8.63355e-02,3.62583e-01
8.91321e-02,3.38072e-01
9.20193e-02,3.15194e-01
9.50000e-02,2.93841e-01
9.80773e-02,2.73912e-01
1.01254e-01,2.55312e-01
1.04534e-01,2.37954e-01
1.07920e-01,2.21756e-01
1.11416e-01,2.06640e-01
1.15025e-01,1.92536e-01
1.18751e-01,1.79375e-01
1.22598e-01,1.67096e-01
1.26569e-01,1.55640e-01
1.30669e-01,1.44953e-01
1.34902e-01,1.34983e-01
1.39271e-01,1.25683e-01
1.43783e-01,1.17008e-01
1.48440e-01,1.08918e-01
1.53249e-01,1.01373e-01
1.58213e-01,9.43361e-02
1.63338e-01,8.77748e-02
1.68629e-01,8.16571e-02
1.74091e-01,7.59534e-02
1.79730e-01,7.06361e-02
1.85552e-01,6.56796e-02
1.91563e-01,6.10599e-02
1.97768e-01,5.67544e-02
2.04174e-01,5.27422e-02
2.10788e-01,4.90038e-02
2.17616e-01,4.55208e-02
2.24665e-01,4.22762e-02
2.31942e-01,3.92541e-02
2.39455e-01,3.64395e-02
2.47212e-01,3.38186e-02
2.55220e-01,3.13784e-02
2.63487e-01,2.91068e-02
2.72022e-01,2.69923e-02
2.80833e-01,2.50246e-02
2.89930e-01,2.31937e-02
2.99322e-01,2.14903e-02
3.09018e-01,1.99060e-02
3.19028e-01,1.84325e-02
3.29362e-01,1.70626e-02
3.40031e-01,1.57891e-02
3.51045e-01,1.46055e-02
3.62416e-01,1.35057e-02
3.74156e-01,1.24841e-02
3.86276e-01,1.15352e-02
3.98788e-01,1.06542e-02
4.11706e-01,9.83630e-03
4.25042e-01,9.07731e-03
4.38810e-01,8.37314e-03
4.53024e-01,7.72003e-03
4.67699e-01,7.11445e-03
4.82849e-01,6.55313e-03
4.98490e-01,6.03300e-03
5.14637e-01,5.55119e-03
5.31308e-01,5.10504e-03
5.48518e-01,4.69206e-03
5.66286e-01,4.30992e-03
5.84629e-01,3.95647e-03
6.03567e-01,3.62967e-03
6.23118e-01,3.32764e-03
6.43302e-01,3.04862e-03
6.64140e-01,2.79098e-03
6.85654e-01,2.55317e-03
7.07864e-01,2.33378e-03
7.30793e-01,2.13148e-03
7.54465e-01,1.94502e-03
7.78905e-01,1.77326e-03
8.04135e-01,1.61511e-03
8.30183e-01,1.46957e-03
8.57075e-01,1.33572e-03
8.84838e-01,1.21268e-03
9.13500e-01,1.09964e-03
9.43090e-01,9.95848e-04
9.73640e-01,9.00606e-04
1.00518e+00,8.13261e-04
1.03774e+00,7.33207e-04
1.07135e+00,6.59882e-04
1.10606e+00,5.92762e-04
1.14189e+00,5.31361e-04
1.17887e+00,4.75228e-04
1.21706e+00,4.23946e-04
1.25648e+00,3.77125e-04
1.29719e+00,3.34406e-04
1.33920e+00,2.95456e-04
1.38258e+00,2.59967e-04
1.42737e+00,2.27653e-04
1.47361e+00,1.98249e-04
1.52134e+00,1.71513e-04
1.57062e+00,1.47218e-04
1.62150e+00,1.25157e-04
1.67402e+00,1.05138e-04
1.72825e+00,8.69846e-05
1.78423e+00,7.05337e-05
1.84202e+00,5.56358e-05
1.90169e+00,4.21533e-05
1.96329e+00,2.99597e-05
2.02689e+00,1.89391e-05
2.09254e+00,8.98500e-06
2.16033e+00,0.00000e+00
