m1=300298.854, m2=16.648, gsp=2.145, rhosp=7051.658
fGW[Hz],dPh[rad]
1.89414e-03,1.43797e+03
1.91370e-03,1.38359e+03
1.93347e-03,1.33124e+03
1.95345e-03,1.28083e+03
1.97362e-03,1.23231e+03
1.99401e-03,1.18559e+03
2.01461e-03,1.14062e+03
2.03542e-03,1.09733e+03
2.05645e-03,1.05566e+03
2.07769e-03,1.01554e+03
2.09916e-03,9.76936e+02
2.12084e-03,9.39773e+02
2.14275e-03,9.04005e+02
2.16488e-03,8.69580e+02
2.18725e-03,8.36448e+02
2.20984e-03,8.04561e+02
2.23267e-03,7.73874e+02
2.25574e-03,7.44342e+02
2.27904e-03,7.15922e+02
2.30258e-03,6.88574e+02
2.32637e-03,6.62257e+02
2.35040e-03,6.36934e+02
2.37468e-03,6.12567e+02
2.39921e-03,5.89121e+02
2.42399e-03,5.66561e+02
2.44904e-03,5.44856e+02
2.47433e-03,5.23972e+02
2.49990e-03,5.03879e+02
2.52572e-03,4.84548e+02
2.55181e-03,4.65950e+02
2.57817e-03,4.48058e+02
2.60480e-03,4.30845e+02
2.63171e-03,4.14286e+02
2.65890e-03,3.98357e+02
2.68637e-03,3.83033e+02
2.71412e-03,3.68293e+02
2.74215e-03,3.54114e+02
2.77048e-03,3.40475e+02
2.79910e-03,3.27356e+02
2.82802e-03,3.14737e+02
2.85723e-03,3.02599e+02
2.88675e-03,2.90925e+02
2.91657e-03,2.79697e+02
2.94670e-03,2.68897e+02
2.97714e-03,2.58511e+02
3.00789e-03,2.48521e+02
3.03896e-03,2.38914e+02
3.07036e-03,2.29675e+02
3.10207e-03,2.20789e+02
3.13412e-03,2.12243e+02
3.16650e-03,2.04026e+02
3.19921e-03,1.96123e+02
3.23226e-03,1.88523e+02
3.26565e-03,1.81215e+02
3.29938e-03,1.74187e+02
3.33346e-03,1.67430e+02
3.36790e-03,1.60931e+02
3.40269e-03,1.54683e+02
3.43784e-03,1.48675e+02
3.47335e-03,1.42898e+02
3.50924e-03,1.37343e+02
3.54549e-03,1.32002e+02
3.58211e-03,1.26866e+02
3.61912e-03,1.21929e+02
3.65650e-03,1.17181e+02
3.69428e-03,1.12617e+02
3.73244e-03,1.08228e+02
3.77100e-03,1.04009e+02
3.80995e-03,9.99527e+01
3.84931e-03,9.60527e+01
3.88907e-03,9.23033e+01
3.92925e-03,8.86986e+01
3.96984e-03,8.52332e+01
4.01085e-03,8.19017e+01
4.05228e-03,7.86989e+01
4.09414e-03,7.56199e+01
4.13644e-03,7.26600e+01
4.17917e-03,6.98146e+01
4.22234e-03,6.70792e+01
4.26596e-03,6.44497e+01
4.31002e-03,6.19220e+01
4.35455e-03,5.94922e+01
4.39953e-03,5.71564e+01
4.44498e-03,5.49112e+01
4.49090e-03,5.27530e+01
4.53729e-03,5.06784e+01
4.58416e-03,4.86842e+01
4.63152e-03,4.67674e+01
4.67936e-03,4.49249e+01
4.72770e-03,4.31539e+01
4.77654e-03,4.14516e+01
4.82588e-03,3.98153e+01
4.87573e-03,3.82426e+01
4.92610e-03,3.67310e+01
4.97699e-03,3.52781e+01
5.02840e-03,3.38816e+01
5.08035e-03,3.25393e+01
5.13283e-03,3.12492e+01
5.18585e-03,3.00093e+01
5.23942e-03,2.88176e+01
5.29355e-03,2.76722e+01
5.34823e-03,2.65713e+01
5.40348e-03,2.55133e+01
5.45930e-03,2.44964e+01
5.51569e-03,2.35191e+01
5.57267e-03,2.25798e+01
5.63024e-03,2.16771e+01
5.68840e-03,2.08096e+01
5.74716e-03,1.99758e+01
5.80653e-03,1.91745e+01
5.86652e-03,1.84044e+01
5.92712e-03,1.76643e+01
5.98835e-03,1.69530e+01
6.05021e-03,1.62695e+01
6.11271e-03,1.56126e+01
6.17585e-03,1.49813e+01
6.23965e-03,1.43746e+01
6.30411e-03,1.37915e+01
6.36923e-03,1.32312e+01
6.43503e-03,1.26928e+01
6.50150e-03,1.21754e+01
6.56867e-03,1.16781e+01
6.63652e-03,1.12003e+01
6.70508e-03,1.07411e+01
6.77434e-03,1.02998e+01
6.84433e-03,9.87572e+00
6.91503e-03,9.46822e+00
6.98646e-03,9.07663e+00
7.05863e-03,8.70033e+00
7.13155e-03,8.33872e+00
7.20522e-03,7.99124e+00
7.27965e-03,7.65733e+00
7.35486e-03,7.33646e+00
7.43083e-03,7.02813e+00
7.50760e-03,6.73185e+00
7.58515e-03,6.44715e+00
7.66351e-03,6.17357e+00
7.74267e-03,5.91069e+00
7.82266e-03,5.65808e+00
7.90347e-03,5.41535e+00
7.98511e-03,5.18211e+00
8.06760e-03,4.95799e+00
8.15094e-03,4.74263e+00
8.23514e-03,4.53570e+00
8.32021e-03,4.33686e+00
8.40616e-03,4.14579e+00
8.49300e-03,3.96221e+00
8.58073e-03,3.78580e+00
8.66938e-03,3.61630e+00
8.75893e-03,3.45343e+00
8.84941e-03,3.29693e+00
8.94083e-03,3.14656e+00
9.03319e-03,3.00207e+00
9.12651e-03,2.86324e+00
9.22079e-03,2.72984e+00
9.31604e-03,2.60167e+00
9.41228e-03,2.47851e+00
9.50951e-03,2.36018e+00
9.60774e-03,2.24648e+00
9.70699e-03,2.13723e+00
9.80727e-03,2.03226e+00
9.90858e-03,1.93140e+00
1.00109e-02,1.83449e+00
1.01144e-02,1.74138e+00
1.02188e-02,1.65191e+00
1.03244e-02,1.56595e+00
1.04311e-02,1.48336e+00
1.05388e-02,1.40401e+00
1.06477e-02,1.32776e+00
1.07577e-02,1.25450e+00
1.08688e-02,1.18411e+00
1.09811e-02,1.11648e+00
1.10945e-02,1.05151e+00
1.12091e-02,9.89073e-01
1.13249e-02,9.29088e-01
1.14419e-02,8.71455e-01
1.15601e-02,8.16080e-01
1.16795e-02,7.62877e-01
1.18002e-02,7.11759e-01
1.19221e-02,6.62646e-01
1.20452e-02,6.15458e-01
1.21697e-02,5.70120e-01
1.22954e-02,5.26561e-01
1.24224e-02,4.84709e-01
1.25507e-02,4.44499e-01
1.26804e-02,4.05866e-01
1.28114e-02,3.68747e-01
1.29437e-02,3.33085e-01
1.30774e-02,2.98822e-01
1.32125e-02,2.65902e-01
1.33490e-02,2.34274e-01
1.34869e-02,2.03887e-01
1.36262e-02,1.74691e-01
1.37670e-02,1.46641e-01
1.39092e-02,1.19692e-01
1.40529e-02,9.37998e-02
1.41981e-02,6.89236e-02
1.43447e-02,4.50235e-02
1.44929e-02,2.20612e-02
1.46426e-02,0.00000e+00
