m1=124447.593, m2=13.686, gsp=2.065, rhosp=605.919
fGW[Hz],dPh[rad]
2.54077e-03,3.89520e+02
2.57460e-03,3.72121e+02
2.60888e-03,3.55466e+02
2.64362e-03,3.39525e+02
2.67883e-03,3.24268e+02
2.71450e-03,3.09668e+02
2.75064e-03,2.95699e+02
2.78727e-03,2.82334e+02
2.82439e-03,2.69549e+02
2.86200e-03,2.57320e+02
2.90011e-03,2.45624e+02
2.93872e-03,2.34439e+02
2.97786e-03,2.23744e+02
3.01751e-03,2.13518e+02
3.05769e-03,2.03743e+02
3.09841e-03,1.94398e+02
3.13966e-03,1.85466e+02
3.18147e-03,1.76930e+02
3.22384e-03,1.68773e+02
3.26676e-03,1.60979e+02
3.31026e-03,1.53533e+02
3.35434e-03,1.46419e+02
3.39901e-03,1.39623e+02
3.44427e-03,1.33133e+02
3.49014e-03,1.26935e+02
3.53661e-03,1.21016e+02
3.58370e-03,1.15364e+02
3.63142e-03,1.09967e+02
3.67978e-03,1.04816e+02
3.72878e-03,9.98984e+01
3.77843e-03,9.52047e+01
3.82875e-03,9.07251e+01
3.87973e-03,8.64500e+01
3.93139e-03,8.23707e+01
3.98374e-03,7.84785e+01
4.03679e-03,7.47650e+01
4.09054e-03,7.12225e+01
4.14501e-03,6.78433e+01
4.20021e-03,6.46202e+01
4.25614e-03,6.15462e+01
4.31281e-03,5.86147e+01
4.37024e-03,5.58193e+01
4.42844e-03,5.31539e+01
4.48740e-03,5.06126e+01
4.54716e-03,4.81899e+01
4.60771e-03,4.58804e+01
4.66906e-03,4.36790e+01
4.73124e-03,4.15808e+01
4.79424e-03,3.95812e+01
4.85808e-03,3.76755e+01
4.92277e-03,3.58596e+01
4.98832e-03,3.41293e+01
5.05474e-03,3.24807e+01
5.12205e-03,3.09101e+01
5.19026e-03,2.94138e+01
5.25937e-03,2.79886e+01
5.32941e-03,2.66310e+01
5.40037e-03,2.53380e+01
5.47228e-03,2.41065e+01
5.54515e-03,2.29337e+01
5.61899e-03,2.18170e+01
5.69381e-03,2.07536e+01
5.76963e-03,1.97411e+01
5.84646e-03,1.87771e+01
5.92431e-03,1.78593e+01
6.00320e-03,1.69857e+01
6.08314e-03,1.61540e+01
6.16414e-03,1.53624e+01
6.24622e-03,1.46089e+01
6.32940e-03,1.38918e+01
6.41368e-03,1.32093e+01
6.49908e-03,1.25598e+01
6.58563e-03,1.19417e+01
6.67332e-03,1.13536e+01
6.76218e-03,1.07940e+01
6.85223e-03,1.02615e+01
6.94347e-03,9.75496e+00
7.03593e-03,9.27303e+00
7.12962e-03,8.81456e+00
7.22456e-03,8.37843e+00
7.32076e-03,7.96357e+00
7.41824e-03,7.56896e+00
7.51702e-03,7.19363e+00
7.61712e-03,6.83665e+00
7.71855e-03,6.49714e+00
7.82133e-03,6.17426e+00
7.92548e-03,5.86721e+00
8.03101e-03,5.57522e+00
8.13795e-03,5.29757e+00
8.24632e-03,5.03355e+00
8.35613e-03,4.78252e+00
8.46740e-03,4.54385e+00
8.58015e-03,4.31692e+00
8.69440e-03,4.10118e+00
8.81018e-03,3.89607e+00
8.92749e-03,3.70109e+00
9.04637e-03,3.51573e+00
9.16683e-03,3.33954e+00
9.28890e-03,3.17205e+00
9.41259e-03,3.01285e+00
9.53793e-03,2.86153e+00
9.66493e-03,2.71771e+00
9.79363e-03,2.58102e+00
9.92404e-03,2.45110e+00
1.00562e-02,2.32763e+00
1.01901e-02,2.21029e+00
1.03258e-02,2.09878e+00
1.04633e-02,1.99282e+00
1.06026e-02,1.89212e+00
1.07438e-02,1.79643e+00
1.08869e-02,1.70551e+00
1.10318e-02,1.61911e+00
1.11787e-02,1.53702e+00
1.13276e-02,1.45903e+00
1.14784e-02,1.38492e+00
1.16313e-02,1.31451e+00
1.17862e-02,1.24761e+00
1.19431e-02,1.18406e+00
1.21021e-02,1.12368e+00
1.22633e-02,1.06633e+00
1.24266e-02,1.01183e+00
1.25921e-02,9.60070e-01
1.27597e-02,9.10896e-01
1.29296e-02,8.64185e-01
1.31018e-02,8.19813e-01
1.32763e-02,7.77664e-01
1.34531e-02,7.37629e-01
1.36322e-02,6.99600e-01
1.38137e-02,6.63480e-01
1.39977e-02,6.29172e-01
1.41841e-02,5.96586e-01
1.43729e-02,5.65636e-01
1.45643e-02,5.36241e-01
1.47583e-02,5.08323e-01
1.49548e-02,4.81808e-01
1.51539e-02,4.56626e-01
1.53557e-02,4.32711e-01
1.55602e-02,4.09998e-01
1.57674e-02,3.88429e-01
1.59773e-02,3.67945e-01
1.61901e-02,3.48493e-01
1.64057e-02,3.30020e-01
1.66241e-02,3.12478e-01
1.68455e-02,2.95820e-01
1.70698e-02,2.80001e-01
1.72971e-02,2.64980e-01
1.75275e-02,2.50717e-01
1.77608e-02,2.37173e-01
1.79974e-02,2.24312e-01
1.82370e-02,2.12100e-01
1.84798e-02,2.00505e-01
1.87259e-02,1.89495e-01
1.89753e-02,1.79040e-01
1.92280e-02,1.69114e-01
1.94840e-02,1.59690e-01
1.97434e-02,1.50741e-01
2.00063e-02,1.42245e-01
2.02727e-02,1.34178e-01
2.05427e-02,1.26519e-01
2.08162e-02,1.19247e-01
2.10934e-02,1.12343e-01
2.13743e-02,1.05789e-01
2.16589e-02,9.95656e-02
2.19473e-02,9.36574e-02
2.22396e-02,8.80482e-02
2.25357e-02,8.27229e-02
2.28358e-02,7.76673e-02
2.31399e-02,7.28676e-02
2.34480e-02,6.83109e-02
2.37603e-02,6.39851e-02
2.40767e-02,5.98784e-02
2.43973e-02,5.59797e-02
2.47221e-02,5.22786e-02
2.50513e-02,4.87651e-02
2.53849e-02,4.54296e-02
2.57229e-02,4.22632e-02
2.60655e-02,3.92574e-02
2.64126e-02,3.64039e-02
2.67643e-02,3.36952e-02
2.71207e-02,3.11238e-02
2.74818e-02,2.86828e-02
2.78477e-02,2.63657e-02
2.82186e-02,2.41661e-02
2.85943e-02,2.20782e-02
2.89751e-02,2.00962e-02
2.93609e-02,1.82147e-02
2.97519e-02,1.64288e-02
3.01481e-02,1.47335e-02
3.05495e-02,1.31243e-02
3.09563e-02,1.15968e-02
3.13685e-02,1.01469e-02
3.17862e-02,8.77053e-03
3.22095e-02,7.46410e-03
3.26384e-02,6.22403e-03
3.30730e-02,5.04694e-03
3.35134e-02,3.92964e-03
3.39597e-02,2.86911e-03
3.44119e-02,1.86245e-03
3.48701e-02,9.06951e-04
3.53344e-02,0.00000e+00
