m1=9585.227, m2=7.047, gsp=2.221, rhosp=1199.450
fGW[Hz],dPh[rad]
6.18656e-03,7.95144e+03
6.32190e-03,7.56435e+03
6.46020e-03,7.19561e+03
6.60153e-03,6.84436e+03
6.74595e-03,6.50978e+03
6.89352e-03,6.19110e+03
7.04433e-03,5.88756e+03
7.19843e-03,5.59848e+03
7.35591e-03,5.32316e+03
7.51683e-03,5.06097e+03
7.68127e-03,4.81129e+03
7.84930e-03,4.57354e+03
8.02102e-03,4.34715e+03
8.19649e-03,4.13160e+03
8.37580e-03,3.92638e+03
8.55903e-03,3.73100e+03
8.74627e-03,3.54501e+03
8.93760e-03,3.36795e+03
9.13313e-03,3.19942e+03
9.33293e-03,3.03901e+03
9.53710e-03,2.88634e+03
9.74573e-03,2.74105e+03
9.95893e-03,2.60278e+03
1.01768e-02,2.47121e+03
1.03994e-02,2.34603e+03
1.06269e-02,2.22692e+03
1.08594e-02,2.11362e+03
1.10970e-02,2.00583e+03
1.13397e-02,1.90330e+03
1.15878e-02,1.80578e+03
1.18413e-02,1.71304e+03
1.21003e-02,1.62484e+03
1.23651e-02,1.54098e+03
1.26356e-02,1.46125e+03
1.29120e-02,1.38544e+03
1.31944e-02,1.31338e+03
1.34831e-02,1.24489e+03
1.37781e-02,1.17979e+03
1.40795e-02,1.11792e+03
1.43875e-02,1.05914e+03
1.47022e-02,1.00328e+03
1.50238e-02,9.50224e+02
1.53525e-02,8.99822e+02
1.56884e-02,8.51952e+02
1.60316e-02,8.06491e+02
1.63823e-02,7.63323e+02
1.67407e-02,7.22339e+02
1.71069e-02,6.83432e+02
1.74811e-02,6.46503e+02
1.78636e-02,6.11456e+02
1.82543e-02,5.78200e+02
1.86537e-02,5.46647e+02
1.90618e-02,5.16715e+02
1.94788e-02,4.88326e+02
1.99049e-02,4.61403e+02
2.03403e-02,4.35875e+02
2.07853e-02,4.11674e+02
2.12400e-02,3.88735e+02
2.17047e-02,3.66995e+02
2.21795e-02,3.46396e+02
2.26647e-02,3.26881e+02
2.31605e-02,3.08397e+02
2.36672e-02,2.90892e+02
2.41849e-02,2.74317e+02
2.47140e-02,2.58627e+02
2.52546e-02,2.43777e+02
2.58071e-02,2.29725e+02
2.63717e-02,2.16430e+02
2.69486e-02,2.03856e+02
2.75381e-02,1.91964e+02
2.81406e-02,1.80721e+02
2.87562e-02,1.70094e+02
2.93853e-02,1.60051e+02
3.00281e-02,1.50562e+02
3.06850e-02,1.41599e+02
3.13563e-02,1.33135e+02
3.20422e-02,1.25143e+02
3.27432e-02,1.17600e+02
3.34595e-02,1.10482e+02
3.41915e-02,1.03767e+02
3.49395e-02,9.74336e+01
3.57038e-02,9.14616e+01
3.64849e-02,8.58319e+01
3.72830e-02,8.05265e+01
3.80986e-02,7.55279e+01
3.89321e-02,7.08198e+01
3.97838e-02,6.63865e+01
4.06541e-02,6.22132e+01
4.15435e-02,5.82858e+01
4.24523e-02,5.45908e+01
4.33810e-02,5.11155e+01
4.43300e-02,4.78478e+01
4.52998e-02,4.47762e+01
4.62908e-02,4.18898e+01
4.73034e-02,3.91783e+01
4.83383e-02,3.66318e+01
4.93957e-02,3.42410e+01
5.04763e-02,3.19972e+01
5.15806e-02,2.98919e+01
5.27090e-02,2.79171e+01
5.38620e-02,2.60654e+01
5.50403e-02,2.43297e+01
5.62444e-02,2.27031e+01
5.74748e-02,2.11793e+01
5.87322e-02,1.97523e+01
6.00170e-02,1.84163e+01
6.13300e-02,1.71659e+01
6.26716e-02,1.59960e+01
6.40427e-02,1.49018e+01
6.54437e-02,1.38786e+01
6.68754e-02,1.29222e+01
6.83383e-02,1.20285e+01
6.98333e-02,1.11936e+01
7.13610e-02,1.04139e+01
7.29221e-02,9.68599e+00
7.45174e-02,9.00662e+00
7.61476e-02,8.37275e+00
7.78134e-02,7.78151e+00
7.95157e-02,7.23020e+00
8.12552e-02,6.71627e+00
8.30328e-02,6.23733e+00
8.48492e-02,5.79113e+00
8.67054e-02,5.37555e+00
8.86022e-02,4.98859e+00
9.05405e-02,4.62839e+00
9.25212e-02,4.29319e+00
9.45452e-02,3.98134e+00
9.66135e-02,3.69129e+00
9.87270e-02,3.42159e+00
1.00887e-01,3.17089e+00
1.03094e-01,2.93789e+00
1.05349e-01,2.72141e+00
1.07654e-01,2.52033e+00
1.10009e-01,2.33360e+00
1.12415e-01,2.16023e+00
1.14875e-01,1.99931e+00
1.17388e-01,1.84998e+00
1.19956e-01,1.71144e+00
1.22580e-01,1.58293e+00
1.25262e-01,1.46377e+00
1.28002e-01,1.35328e+00
1.30802e-01,1.25087e+00
1.33663e-01,1.15595e+00
1.36588e-01,1.06801e+00
1.39576e-01,9.86544e-01
1.42629e-01,9.11090e-01
1.45749e-01,8.41219e-01
1.48938e-01,7.76530e-01
1.52196e-01,7.16650e-01
1.55525e-01,6.61230e-01
1.58928e-01,6.09948e-01
1.62404e-01,5.62504e-01
1.65957e-01,5.18617e-01
1.69588e-01,4.78026e-01
1.73298e-01,4.40492e-01
1.77089e-01,4.05788e-01
1.80963e-01,3.73706e-01
1.84922e-01,3.44053e-01
1.88967e-01,3.16648e-01
1.93101e-01,2.91325e-01
1.97325e-01,2.67928e-01
2.01642e-01,2.46315e-01
2.06053e-01,2.26351e-01
2.10561e-01,2.07913e-01
2.15167e-01,1.90886e-01
2.19874e-01,1.75165e-01
2.24684e-01,1.60651e-01
2.29600e-01,1.47253e-01
2.34622e-01,1.34885e-01
2.39755e-01,1.23471e-01
2.45000e-01,1.12938e-01
2.50360e-01,1.03219e-01
2.55837e-01,9.42508e-02
2.61433e-01,8.59774e-02
2.67153e-01,7.83454e-02
2.72997e-01,7.13055e-02
2.78969e-01,6.48125e-02
2.85072e-01,5.88244e-02
2.91308e-01,5.33022e-02
2.97681e-01,4.82103e-02
3.04193e-01,4.35153e-02
3.10848e-01,3.91868e-02
3.17648e-01,3.51963e-02
3.24597e-01,3.15177e-02
3.31698e-01,2.81268e-02
3.38954e-01,2.50014e-02
3.46369e-01,2.21209e-02
3.53947e-01,1.94662e-02
3.61690e-01,1.70198e-02
3.69602e-01,1.47654e-02
3.77688e-01,1.26881e-02
3.85950e-01,1.07741e-02
3.94393e-01,9.01065e-03
4.03021e-01,7.38596e-03
4.11838e-01,5.88921e-03
4.20847e-01,4.51037e-03
4.30054e-01,3.24023e-03
4.39462e-01,2.07025e-03
4.49076e-01,9.92589e-04
4.58900e-01,0.00000e+00
