m1=396687.532, m2=49.232, gsp=2.399, rhosp=85.070
fGW[Hz],dPh[rad]
1.17656e-03,2.82723e+04
1.18989e-03,2.72003e+04
1.20338e-03,2.61677e+04
1.21702e-03,2.51730e+04
1.23082e-03,2.42149e+04
1.24477e-03,2.32921e+04
1.25888e-03,2.24034e+04
1.27315e-03,2.15475e+04
1.28758e-03,2.07234e+04
1.30217e-03,1.99299e+04
1.31693e-03,1.91659e+04
1.33186e-03,1.84303e+04
1.34696e-03,1.77221e+04
1.36223e-03,1.70404e+04
1.37767e-03,1.63841e+04
1.39328e-03,1.57525e+04
1.40908e-03,1.51445e+04
1.42505e-03,1.45594e+04
1.44120e-03,1.39963e+04
1.45754e-03,1.34544e+04
1.47406e-03,1.29329e+04
1.49077e-03,1.24312e+04
1.50767e-03,1.19484e+04
1.52475e-03,1.14839e+04
1.54204e-03,1.10370e+04
1.55952e-03,1.06071e+04
1.57719e-03,1.01936e+04
1.59507e-03,9.79578e+03
1.61315e-03,9.41315e+03
1.63144e-03,9.04512e+03
1.64993e-03,8.69115e+03
1.66863e-03,8.35073e+03
1.68755e-03,8.02336e+03
1.70668e-03,7.70854e+03
1.72602e-03,7.40581e+03
1.74559e-03,7.11472e+03
1.76537e-03,6.83483e+03
1.78538e-03,6.56573e+03
1.80562e-03,6.30701e+03
1.82609e-03,6.05828e+03
1.84679e-03,5.81917e+03
1.86772e-03,5.58931e+03
1.88889e-03,5.36835e+03
1.91030e-03,5.15596e+03
1.93196e-03,4.95182e+03
1.95386e-03,4.75561e+03
1.97600e-03,4.56703e+03
1.99840e-03,4.38579e+03
2.02105e-03,4.21162e+03
2.04396e-03,4.04424e+03
2.06713e-03,3.88339e+03
2.09056e-03,3.72883e+03
2.11426e-03,3.58032e+03
2.13822e-03,3.43762e+03
2.16246e-03,3.30051e+03
2.18697e-03,3.16878e+03
2.21176e-03,3.04221e+03
2.23683e-03,2.92062e+03
2.26219e-03,2.80381e+03
2.28783e-03,2.69160e+03
2.31376e-03,2.58380e+03
2.33999e-03,2.48025e+03
2.36651e-03,2.38078e+03
2.39334e-03,2.28524e+03
2.42047e-03,2.19348e+03
2.44790e-03,2.10534e+03
2.47565e-03,2.02068e+03
2.50371e-03,1.93938e+03
2.53209e-03,1.86130e+03
2.56080e-03,1.78631e+03
2.58982e-03,1.71430e+03
2.61918e-03,1.64514e+03
2.64887e-03,1.57873e+03
2.67889e-03,1.51496e+03
2.70926e-03,1.45373e+03
2.73997e-03,1.39493e+03
2.77103e-03,1.33848e+03
2.80244e-03,1.28427e+03
2.83420e-03,1.23222e+03
2.86633e-03,1.18225e+03
2.89882e-03,1.13427e+03
2.93168e-03,1.08821e+03
2.96491e-03,1.04399e+03
2.99852e-03,1.00154e+03
3.03251e-03,9.60787e+02
3.06688e-03,9.21663e+02
3.10164e-03,8.84106e+02
3.13680e-03,8.48053e+02
3.17236e-03,8.13445e+02
3.20832e-03,7.80225e+02
3.24468e-03,7.48337e+02
3.28146e-03,7.17730e+02
3.31866e-03,6.88351e+02
3.35628e-03,6.60153e+02
3.39432e-03,6.33088e+02
3.43279e-03,6.07112e+02
3.47171e-03,5.82180e+02
3.51106e-03,5.58252e+02
3.55086e-03,5.35287e+02
3.59111e-03,5.13248e+02
3.63181e-03,4.92096e+02
3.67298e-03,4.71797e+02
3.71461e-03,4.52317e+02
3.75672e-03,4.33622e+02
3.79930e-03,4.15683e+02
3.84237e-03,3.98467e+02
3.88592e-03,3.81947e+02
3.92997e-03,3.66094e+02
3.97452e-03,3.50882e+02
4.01957e-03,3.36285e+02
4.06513e-03,3.22278e+02
4.11121e-03,3.08838e+02
4.15781e-03,2.95942e+02
4.20494e-03,2.83569e+02
4.25260e-03,2.71696e+02
4.30081e-03,2.60304e+02
4.34956e-03,2.49374e+02
4.39886e-03,2.38887e+02
4.44872e-03,2.28826e+02
4.49915e-03,2.19172e+02
4.55015e-03,2.09910e+02
4.60172e-03,2.01024e+02
4.65389e-03,1.92499e+02
4.70664e-03,1.84320e+02
4.75999e-03,1.76473e+02
4.81394e-03,1.68945e+02
4.86851e-03,1.61723e+02
4.92370e-03,1.54794e+02
4.97951e-03,1.48147e+02
5.03595e-03,1.41771e+02
5.09303e-03,1.35654e+02
5.15076e-03,1.29785e+02
5.20915e-03,1.24156e+02
5.26820e-03,1.18756e+02
5.32791e-03,1.13575e+02
5.38830e-03,1.08606e+02
5.44938e-03,1.03839e+02
5.51115e-03,9.92663e+01
5.57362e-03,9.48799e+01
5.63680e-03,9.06723e+01
5.70069e-03,8.66363e+01
5.76531e-03,8.27648e+01
5.83066e-03,7.90512e+01
5.89675e-03,7.54891e+01
5.96359e-03,7.20724e+01
6.03119e-03,6.87951e+01
6.09956e-03,6.56515e+01
6.16870e-03,6.26363e+01
6.23862e-03,5.97442e+01
6.30934e-03,5.69702e+01
6.38085e-03,5.43095e+01
6.45318e-03,5.17574e+01
6.52633e-03,4.93097e+01
6.60031e-03,4.69619e+01
6.67512e-03,4.47102e+01
6.75078e-03,4.25504e+01
6.82731e-03,4.04790e+01
6.90469e-03,3.84923e+01
6.98296e-03,3.65868e+01
7.06211e-03,3.47592e+01
7.14216e-03,3.30064e+01
7.22312e-03,3.13253e+01
7.30500e-03,2.97130e+01
7.38780e-03,2.81667e+01
7.47154e-03,2.66836e+01
7.55623e-03,2.52613e+01
7.64188e-03,2.38972e+01
7.72851e-03,2.25889e+01
7.81611e-03,2.13343e+01
7.90471e-03,2.01310e+01
7.99431e-03,1.89769e+01
8.08492e-03,1.78702e+01
8.17657e-03,1.68088e+01
8.26925e-03,1.57909e+01
8.36298e-03,1.48147e+01
8.45778e-03,1.38785e+01
8.55365e-03,1.29806e+01
8.65061e-03,1.21196e+01
8.74866e-03,1.12939e+01
8.84783e-03,1.05020e+01
8.94812e-03,9.74259e+00
9.04955e-03,9.01432e+00
9.15213e-03,8.31592e+00
9.25587e-03,7.64616e+00
9.36079e-03,7.00386e+00
9.46689e-03,6.38792e+00
9.57420e-03,5.79725e+00
9.68273e-03,5.23080e+00
9.79248e-03,4.68760e+00
9.90348e-03,4.16669e+00
1.00157e-02,3.66716e+00
1.01293e-02,3.18813e+00
1.02441e-02,2.72876e+00
1.03602e-02,2.28824e+00
1.04776e-02,1.86581e+00
1.05964e-02,1.46072e+00
1.07165e-02,1.07226e+00
1.08380e-02,6.99756e-01
1.09608e-02,3.42544e-01
1.10851e-02,0.00000e+00
