m1=97980.509, m2=17.084, gsp=2.079, rhosp=1866.099
fGW[Hz],dPh[rad]
2.48210e-03,7.63167e+02
2.51847e-03,7.28732e+02
2.55537e-03,6.95761e+02
2.59282e-03,6.64196e+02
2.63081e-03,6.33982e+02
2.66936e-03,6.05064e+02
2.70848e-03,5.77391e+02
2.74817e-03,5.50914e+02
2.78844e-03,5.25583e+02
2.82930e-03,5.01353e+02
2.87076e-03,4.78178e+02
2.91282e-03,4.56017e+02
2.95551e-03,4.34828e+02
2.99882e-03,4.14570e+02
3.04276e-03,3.95207e+02
3.08735e-03,3.76700e+02
3.13259e-03,3.59015e+02
3.17849e-03,3.42117e+02
3.22507e-03,3.25974e+02
3.27233e-03,3.10554e+02
3.32028e-03,2.95827e+02
3.36893e-03,2.81764e+02
3.41830e-03,2.68336e+02
3.46839e-03,2.55517e+02
3.51921e-03,2.43281e+02
3.57078e-03,2.31602e+02
3.62311e-03,2.20458e+02
3.67620e-03,2.09825e+02
3.73007e-03,1.99682e+02
3.78473e-03,1.90006e+02
3.84019e-03,1.80778e+02
3.89646e-03,1.71978e+02
3.95356e-03,1.63587e+02
4.01149e-03,1.55588e+02
4.07027e-03,1.47963e+02
4.12992e-03,1.40696e+02
4.19043e-03,1.33771e+02
4.25184e-03,1.27173e+02
4.31414e-03,1.20887e+02
4.37736e-03,1.14899e+02
4.44150e-03,1.09195e+02
4.50659e-03,1.03764e+02
4.57263e-03,9.85923e+01
4.63963e-03,9.36684e+01
4.70762e-03,8.89812e+01
4.77660e-03,8.45198e+01
4.84660e-03,8.02739e+01
4.91762e-03,7.62335e+01
4.98968e-03,7.23892e+01
5.06279e-03,6.87320e+01
5.13698e-03,6.52531e+01
5.21226e-03,6.19443e+01
5.28864e-03,5.87976e+01
5.36613e-03,5.58055e+01
5.44477e-03,5.29606e+01
5.52455e-03,5.02562e+01
5.60551e-03,4.76854e+01
5.68765e-03,4.52420e+01
5.77099e-03,4.29200e+01
5.85556e-03,4.07136e+01
5.94136e-03,3.86172e+01
6.02842e-03,3.66256e+01
6.11676e-03,3.47338e+01
6.20639e-03,3.29369e+01
6.29734e-03,3.12303e+01
6.38962e-03,2.96098e+01
6.48325e-03,2.80711e+01
6.57825e-03,2.66102e+01
6.67465e-03,2.52233e+01
6.77245e-03,2.39069e+01
6.87169e-03,2.26574e+01
6.97239e-03,2.14716e+01
7.07456e-03,2.03464e+01
7.17823e-03,1.92786e+01
7.28341e-03,1.82656e+01
7.39014e-03,1.73046e+01
7.49843e-03,1.63930e+01
7.60831e-03,1.55283e+01
7.71980e-03,1.47082e+01
7.83292e-03,1.39305e+01
7.94770e-03,1.31930e+01
8.06417e-03,1.24937e+01
8.18234e-03,1.18307e+01
8.30224e-03,1.12022e+01
8.42389e-03,1.06064e+01
8.54733e-03,1.00416e+01
8.67258e-03,9.50630e+00
8.79967e-03,8.99899e+00
8.92861e-03,8.51823e+00
9.05945e-03,8.06267e+00
9.19220e-03,7.63102e+00
9.32690e-03,7.22205e+00
9.46357e-03,6.83460e+00
9.60225e-03,6.46756e+00
9.74296e-03,6.11988e+00
9.88573e-03,5.79055e+00
1.00306e-02,5.47864e+00
1.01776e-02,5.18324e+00
1.03267e-02,4.90349e+00
1.04780e-02,4.63858e+00
1.06316e-02,4.38774e+00
1.07874e-02,4.15024e+00
1.09454e-02,3.92538e+00
1.11058e-02,3.71249e+00
1.12686e-02,3.51096e+00
1.14337e-02,3.32019e+00
1.16012e-02,3.13961e+00
1.17712e-02,2.96869e+00
1.19437e-02,2.80691e+00
1.21187e-02,2.65381e+00
1.22963e-02,2.50892e+00
1.24765e-02,2.37180e+00
1.26593e-02,2.24205e+00
1.28448e-02,2.11928e+00
1.30331e-02,2.00312e+00
1.32240e-02,1.89321e+00
1.34178e-02,1.78922e+00
1.36144e-02,1.69085e+00
1.38139e-02,1.59778e+00
1.40164e-02,1.50974e+00
1.42218e-02,1.42646e+00
1.44302e-02,1.34769e+00
1.46416e-02,1.27318e+00
1.48562e-02,1.20271e+00
1.50739e-02,1.13606e+00
1.52947e-02,1.07302e+00
1.55189e-02,1.01340e+00
1.57463e-02,9.57027e-01
1.59770e-02,9.03714e-01
1.62111e-02,8.53300e-01
1.64487e-02,8.05629e-01
1.66897e-02,7.60554e-01
1.69343e-02,7.17934e-01
1.71824e-02,6.77637e-01
1.74342e-02,6.39538e-01
1.76897e-02,6.03517e-01
1.79489e-02,5.69463e-01
1.82119e-02,5.37269e-01
1.84788e-02,5.06833e-01
1.87496e-02,4.78062e-01
1.90243e-02,4.50865e-01
1.93031e-02,4.25156e-01
1.95860e-02,4.00854e-01
1.98730e-02,3.77883e-01
2.01642e-02,3.56171e-01
2.04596e-02,3.35649e-01
2.07595e-02,3.16253e-01
2.10637e-02,2.97920e-01
2.13723e-02,2.80594e-01
2.16855e-02,2.64219e-01
2.20033e-02,2.48744e-01
2.23257e-02,2.34118e-01
2.26528e-02,2.20297e-01
2.29848e-02,2.07236e-01
2.33216e-02,1.94893e-01
2.36633e-02,1.83229e-01
2.40101e-02,1.72207e-01
2.43619e-02,1.61792e-01
2.47189e-02,1.51951e-01
2.50811e-02,1.42651e-01
2.54487e-02,1.33864e-01
2.58216e-02,1.25562e-01
2.62000e-02,1.17717e-01
2.65839e-02,1.10305e-01
2.69734e-02,1.03302e-01
2.73687e-02,9.66858e-02
2.77697e-02,9.04344e-02
2.81767e-02,8.45282e-02
2.85895e-02,7.89482e-02
2.90085e-02,7.36764e-02
2.94336e-02,6.86959e-02
2.98649e-02,6.39907e-02
3.03025e-02,5.95456e-02
3.07465e-02,5.53462e-02
3.11971e-02,5.13791e-02
3.16542e-02,4.76314e-02
3.21181e-02,4.40911e-02
3.25887e-02,4.07466e-02
3.30663e-02,3.75873e-02
3.35508e-02,3.46029e-02
3.40424e-02,3.17837e-02
3.45413e-02,2.91207e-02
3.50474e-02,2.66051e-02
3.55610e-02,2.42289e-02
3.60821e-02,2.19844e-02
3.66108e-02,1.98643e-02
3.71473e-02,1.78616e-02
3.76917e-02,1.59700e-02
3.82440e-02,1.41833e-02
3.88044e-02,1.24956e-02
3.93730e-02,1.09016e-02
3.99500e-02,9.39595e-03
4.05354e-02,7.97385e-03
4.11294e-02,6.63065e-03
4.17321e-02,5.36199e-03
4.23436e-02,4.16374e-03
4.29641e-02,3.03199e-03
4.35936e-02,1.96308e-03
4.42324e-02,9.53510e-04
4.48806e-02,0.00000e+00
