m1=302253.271, m2=18.046, gsp=2.351, rhosp=956.543
fGW[Hz],dPh[rad]
1.83477e-03,2.49186e+04
1.85396e-03,2.39991e+04
1.87335e-03,2.31129e+04
1.89294e-03,2.22589e+04
1.91274e-03,2.14359e+04
1.93274e-03,2.06429e+04
1.95296e-03,1.98787e+04
1.97339e-03,1.91424e+04
1.99403e-03,1.84329e+04
2.01488e-03,1.77492e+04
2.03595e-03,1.70906e+04
2.05725e-03,1.64560e+04
2.07877e-03,1.58446e+04
2.10051e-03,1.52556e+04
2.12248e-03,1.46882e+04
2.14468e-03,1.41416e+04
2.16711e-03,1.36150e+04
2.18977e-03,1.31078e+04
2.21268e-03,1.26192e+04
2.23582e-03,1.21486e+04
2.25920e-03,1.16952e+04
2.28283e-03,1.12586e+04
2.30671e-03,1.08380e+04
2.33083e-03,1.04330e+04
2.35521e-03,1.00429e+04
2.37984e-03,9.66718e+03
2.40474e-03,9.30535e+03
2.42989e-03,8.95690e+03
2.45530e-03,8.62133e+03
2.48098e-03,8.29817e+03
2.50693e-03,7.98699e+03
2.53315e-03,7.68733e+03
2.55964e-03,7.39878e+03
2.58641e-03,7.12093e+03
2.61347e-03,6.85340e+03
2.64080e-03,6.59580e+03
2.66842e-03,6.34777e+03
2.69633e-03,6.10896e+03
2.72453e-03,5.87903e+03
2.75303e-03,5.65766e+03
2.78182e-03,5.44454e+03
2.81092e-03,5.23935e+03
2.84031e-03,5.04181e+03
2.87002e-03,4.85163e+03
2.90004e-03,4.66856e+03
2.93037e-03,4.49231e+03
2.96102e-03,4.32265e+03
2.99199e-03,4.15932e+03
3.02328e-03,4.00210e+03
3.05490e-03,3.85076e+03
3.08685e-03,3.70508e+03
3.11914e-03,3.56485e+03
3.15176e-03,3.42988e+03
3.18473e-03,3.29996e+03
3.21804e-03,3.17490e+03
3.25169e-03,3.05454e+03
3.28570e-03,2.93869e+03
3.32007e-03,2.82719e+03
3.35479e-03,2.71987e+03
3.38988e-03,2.61659e+03
3.42534e-03,2.51718e+03
3.46116e-03,2.42151e+03
3.49736e-03,2.32943e+03
3.53394e-03,2.24082e+03
3.57090e-03,2.15554e+03
3.60825e-03,2.07347e+03
3.64599e-03,1.99449e+03
3.68412e-03,1.91849e+03
3.72265e-03,1.84534e+03
3.76159e-03,1.77496e+03
3.80093e-03,1.70722e+03
3.84069e-03,1.64204e+03
3.88086e-03,1.57932e+03
3.92145e-03,1.51897e+03
3.96246e-03,1.46089e+03
4.00390e-03,1.40501e+03
4.04578e-03,1.35124e+03
4.08810e-03,1.29949e+03
4.13085e-03,1.24971e+03
4.17406e-03,1.20180e+03
4.21771e-03,1.15571e+03
4.26183e-03,1.11136e+03
4.30640e-03,1.06868e+03
4.35144e-03,1.02762e+03
4.39695e-03,9.88120e+02
4.44294e-03,9.50111e+02
4.48941e-03,9.13542e+02
4.53637e-03,8.78357e+02
4.58381e-03,8.44505e+02
4.63175e-03,8.11936e+02
4.68020e-03,7.80602e+02
4.72915e-03,7.50455e+02
4.77861e-03,7.21452e+02
4.82859e-03,6.93548e+02
4.87909e-03,6.66704e+02
4.93012e-03,6.40877e+02
4.98169e-03,6.16031e+02
5.03379e-03,5.92128e+02
5.08644e-03,5.69133e+02
5.13964e-03,5.47011e+02
5.19339e-03,5.25729e+02
5.24771e-03,5.05256e+02
5.30260e-03,4.85561e+02
5.35806e-03,4.66614e+02
5.41410e-03,4.48387e+02
5.47072e-03,4.30854e+02
5.52794e-03,4.13987e+02
5.58576e-03,3.97761e+02
5.64418e-03,3.82153e+02
5.70321e-03,3.67139e+02
5.76286e-03,3.52696e+02
5.82314e-03,3.38802e+02
5.88404e-03,3.25438e+02
5.94558e-03,3.12582e+02
6.00777e-03,3.00216e+02
6.07060e-03,2.88321e+02
6.13409e-03,2.76879e+02
6.19825e-03,2.65872e+02
6.26308e-03,2.55285e+02
6.32858e-03,2.45102e+02
6.39477e-03,2.35306e+02
6.46166e-03,2.25884e+02
6.52924e-03,2.16821e+02
6.59753e-03,2.08104e+02
6.66653e-03,1.99719e+02
6.73626e-03,1.91654e+02
6.80671e-03,1.83896e+02
6.87790e-03,1.76435e+02
6.94984e-03,1.69258e+02
7.02253e-03,1.62354e+02
7.09598e-03,1.55715e+02
7.17019e-03,1.49328e+02
7.24519e-03,1.43186e+02
7.32096e-03,1.37278e+02
7.39753e-03,1.31595e+02
7.47491e-03,1.26130e+02
7.55309e-03,1.20873e+02
7.63208e-03,1.15817e+02
7.71191e-03,1.10954e+02
7.79257e-03,1.06276e+02
7.87407e-03,1.01778e+02
7.95642e-03,9.74513e+01
8.03964e-03,9.32899e+01
8.12373e-03,8.92876e+01
8.20869e-03,8.54382e+01
8.29455e-03,8.17359e+01
8.38130e-03,7.81752e+01
8.46896e-03,7.47505e+01
8.55754e-03,7.14568e+01
8.64704e-03,6.82890e+01
8.73748e-03,6.52424e+01
8.82887e-03,6.23122e+01
8.92121e-03,5.94942e+01
9.01451e-03,5.67839e+01
9.10880e-03,5.41772e+01
9.20407e-03,5.16703e+01
9.30033e-03,4.92593e+01
9.39760e-03,4.69405e+01
9.49589e-03,4.47104e+01
9.59521e-03,4.25657e+01
9.69557e-03,4.05030e+01
9.79697e-03,3.85193e+01
9.89944e-03,3.66115e+01
1.00030e-02,3.47767e+01
1.01076e-02,3.30122e+01
1.02133e-02,3.13152e+01
1.03201e-02,2.96831e+01
1.04281e-02,2.81136e+01
1.05371e-02,2.66041e+01
1.06473e-02,2.51524e+01
1.07587e-02,2.37564e+01
1.08712e-02,2.24138e+01
1.09849e-02,2.11226e+01
1.10998e-02,1.98808e+01
1.12159e-02,1.86866e+01
1.13332e-02,1.75382e+01
1.14518e-02,1.64337e+01
1.15715e-02,1.53716e+01
1.16926e-02,1.43501e+01
1.18149e-02,1.33678e+01
1.19384e-02,1.24231e+01
1.20633e-02,1.15146e+01
1.21895e-02,1.06409e+01
1.23170e-02,9.80071e+00
1.24458e-02,8.99270e+00
1.25759e-02,8.21566e+00
1.27075e-02,7.46839e+00
1.28404e-02,6.74977e+00
1.29747e-02,6.05869e+00
1.31104e-02,5.39410e+00
1.32475e-02,4.75498e+00
1.33861e-02,4.14036e+00
1.35261e-02,3.54930e+00
1.36675e-02,2.98091e+00
1.38105e-02,2.43430e+00
1.39549e-02,1.90865e+00
1.41009e-02,1.40315e+00
1.42484e-02,9.17030e-01
1.43974e-02,4.49552e-01
1.45480e-02,0.00000e+00
