m1=142264.740, m2=9.982, gsp=2.212, rhosp=123.171
fGW[Hz],dPh[rad]
2.76592e-03,2.84700e+03
2.79968e-03,2.72633e+03
2.83384e-03,2.61064e+03
2.86842e-03,2.49971e+03
2.90342e-03,2.39337e+03
2.93885e-03,2.29142e+03
2.97472e-03,2.19371e+03
3.01101e-03,2.10005e+03
3.04776e-03,2.01028e+03
3.08495e-03,1.92425e+03
3.12259e-03,1.84181e+03
3.16070e-03,1.76282e+03
3.19927e-03,1.68713e+03
3.23831e-03,1.61461e+03
3.27782e-03,1.54513e+03
3.31782e-03,1.47857e+03
3.35831e-03,1.41482e+03
3.39929e-03,1.35375e+03
3.44077e-03,1.29525e+03
3.48276e-03,1.23923e+03
3.52526e-03,1.18558e+03
3.56828e-03,1.13420e+03
3.61182e-03,1.08500e+03
3.65589e-03,1.03790e+03
3.70050e-03,9.92790e+02
3.74566e-03,9.49605e+02
3.79137e-03,9.08262e+02
3.83763e-03,8.68683e+02
3.88446e-03,8.30796e+02
3.93186e-03,7.94531e+02
3.97984e-03,7.59818e+02
4.02841e-03,7.26595e+02
4.07757e-03,6.94798e+02
4.12733e-03,6.64367e+02
4.17769e-03,6.35246e+02
4.22867e-03,6.07380e+02
4.28027e-03,5.80715e+02
4.33250e-03,5.55201e+02
4.38537e-03,5.30790e+02
4.43888e-03,5.07435e+02
4.49305e-03,4.85090e+02
4.54788e-03,4.63715e+02
4.60338e-03,4.43266e+02
4.65955e-03,4.23706e+02
4.71641e-03,4.04995e+02
4.77396e-03,3.87099e+02
4.83222e-03,3.69982e+02
4.89119e-03,3.53611e+02
4.95087e-03,3.37954e+02
5.01129e-03,3.22980e+02
5.07244e-03,3.08661e+02
5.13434e-03,2.94968e+02
5.19699e-03,2.81874e+02
5.26041e-03,2.69354e+02
5.32460e-03,2.57382e+02
5.38957e-03,2.45936e+02
5.45534e-03,2.34992e+02
5.52191e-03,2.24529e+02
5.58929e-03,2.14526e+02
5.65750e-03,2.04963e+02
5.72654e-03,1.95822e+02
5.79642e-03,1.87083e+02
5.86715e-03,1.78729e+02
5.93874e-03,1.70744e+02
6.01121e-03,1.63112e+02
6.08457e-03,1.55816e+02
6.15881e-03,1.48843e+02
6.23397e-03,1.42179e+02
6.31004e-03,1.35810e+02
6.38704e-03,1.29723e+02
6.46498e-03,1.23905e+02
6.54387e-03,1.18346e+02
6.62373e-03,1.13033e+02
6.70455e-03,1.07956e+02
6.78637e-03,1.03104e+02
6.86918e-03,9.84685e+01
6.95300e-03,9.40388e+01
7.03785e-03,8.98062e+01
7.12373e-03,8.57619e+01
7.21066e-03,8.18978e+01
7.29865e-03,7.82059e+01
7.38771e-03,7.46786e+01
7.47786e-03,7.13086e+01
7.56912e-03,6.80890e+01
7.66148e-03,6.50131e+01
7.75497e-03,6.20745e+01
7.84960e-03,5.92673e+01
7.94539e-03,5.65856e+01
8.04235e-03,5.40238e+01
8.14049e-03,5.15767e+01
8.23982e-03,4.92390e+01
8.34037e-03,4.70061e+01
8.44215e-03,4.48732e+01
8.54516e-03,4.28358e+01
8.64944e-03,4.08898e+01
8.75499e-03,3.90311e+01
8.86182e-03,3.72558e+01
8.96996e-03,3.55601e+01
9.07942e-03,3.39406e+01
9.19021e-03,3.23938e+01
9.30236e-03,3.09165e+01
9.41587e-03,2.95057e+01
9.53077e-03,2.81582e+01
9.64708e-03,2.68713e+01
9.76480e-03,2.56424e+01
9.88396e-03,2.44687e+01
1.00046e-02,2.33479e+01
1.01267e-02,2.22775e+01
1.02502e-02,2.12554e+01
1.03753e-02,2.02793e+01
1.05019e-02,1.93472e+01
1.06301e-02,1.84571e+01
1.07598e-02,1.76072e+01
1.08911e-02,1.67956e+01
1.10240e-02,1.60206e+01
1.11585e-02,1.52806e+01
1.12947e-02,1.45740e+01
1.14325e-02,1.38993e+01
1.15720e-02,1.32551e+01
1.17132e-02,1.26399e+01
1.18562e-02,1.20526e+01
1.20008e-02,1.14918e+01
1.21473e-02,1.09564e+01
1.22955e-02,1.04452e+01
1.24455e-02,9.95708e+00
1.25974e-02,9.49105e+00
1.27511e-02,9.04612e+00
1.29067e-02,8.62131e+00
1.30642e-02,8.21574e+00
1.32237e-02,7.82853e+00
1.33850e-02,7.45885e+00
1.35484e-02,7.10591e+00
1.37137e-02,6.76896e+00
1.38810e-02,6.44728e+00
1.40504e-02,6.14017e+00
1.42219e-02,5.84699e+00
1.43954e-02,5.56709e+00
1.45711e-02,5.29988e+00
1.47489e-02,5.04479e+00
1.49289e-02,4.80127e+00
1.51110e-02,4.56880e+00
1.52954e-02,4.34687e+00
1.54821e-02,4.13501e+00
1.56710e-02,3.93277e+00
1.58622e-02,3.73970e+00
1.60558e-02,3.55540e+00
1.62517e-02,3.37947e+00
1.64500e-02,3.21152e+00
1.66508e-02,3.05121e+00
1.68540e-02,2.89817e+00
1.70596e-02,2.75209e+00
1.72678e-02,2.61264e+00
1.74785e-02,2.47953e+00
1.76918e-02,2.35247e+00
1.79077e-02,2.23118e+00
1.81262e-02,2.11541e+00
1.83474e-02,2.00490e+00
1.85713e-02,1.89941e+00
1.87979e-02,1.79872e+00
1.90273e-02,1.70261e+00
1.92595e-02,1.61087e+00
1.94945e-02,1.52330e+00
1.97324e-02,1.43971e+00
1.99732e-02,1.35993e+00
2.02169e-02,1.28378e+00
2.04636e-02,1.21109e+00
2.07133e-02,1.14171e+00
2.09661e-02,1.07549e+00
2.12219e-02,1.01228e+00
2.14809e-02,9.51953e-01
2.17430e-02,8.94369e-01
2.20084e-02,8.39407e-01
2.22769e-02,7.86947e-01
2.25488e-02,7.36876e-01
2.28239e-02,6.89085e-01
2.31024e-02,6.43470e-01
2.33844e-02,5.99934e-01
2.36697e-02,5.58380e-01
2.39585e-02,5.18719e-01
2.42509e-02,4.80865e-01
2.45468e-02,4.44735e-01
2.48464e-02,4.10252e-01
2.51496e-02,3.77340e-01
2.54565e-02,3.45928e-01
2.57671e-02,3.15947e-01
2.60815e-02,2.87332e-01
2.63998e-02,2.60022e-01
2.67220e-02,2.33957e-01
2.70480e-02,2.09079e-01
2.73781e-02,1.85336e-01
2.77122e-02,1.62675e-01
2.80504e-02,1.41048e-01
2.83926e-02,1.20406e-01
2.87391e-02,1.00706e-01
2.90898e-02,8.19039e-02
2.94448e-02,6.39593e-02
2.98041e-02,4.68331e-02
3.01678e-02,3.04879e-02
3.05359e-02,1.48882e-02
3.09085e-02,0.00000e+00
