m1=2693.338, m2=28.531, gsp=2.352, rhosp=659.160
fGW[Hz],dPh[rad]
5.03576e-03,6.01808e+03
5.18435e-03,5.66125e+03
5.33731e-03,5.32554e+03
5.49479e-03,5.00973e+03
5.65692e-03,4.71261e+03
5.82383e-03,4.43310e+03
5.99566e-03,4.17014e+03
6.17256e-03,3.92277e+03
6.35469e-03,3.69004e+03
6.54219e-03,3.47110e+03
6.73521e-03,3.26513e+03
6.93394e-03,3.07137e+03
7.13853e-03,2.88908e+03
7.34915e-03,2.71760e+03
7.56599e-03,2.55627e+03
7.78923e-03,2.40451e+03
8.01905e-03,2.26174e+03
8.25566e-03,2.12742e+03
8.49924e-03,2.00107e+03
8.75002e-03,1.88221e+03
9.00819e-03,1.77039e+03
9.27398e-03,1.66519e+03
9.54761e-03,1.56624e+03
9.82932e-03,1.47315e+03
1.01193e-02,1.38557e+03
1.04179e-02,1.30319e+03
1.07253e-02,1.22569e+03
1.10417e-02,1.15279e+03
1.13675e-02,1.08421e+03
1.17029e-02,1.01970e+03
1.20482e-02,9.59012e+02
1.24037e-02,9.01924e+02
1.27697e-02,8.48222e+02
1.31465e-02,7.97706e+02
1.35344e-02,7.50187e+02
1.39337e-02,7.05487e+02
1.43448e-02,6.63439e+02
1.47681e-02,6.23887e+02
1.52038e-02,5.86682e+02
1.56524e-02,5.51685e+02
1.61142e-02,5.18765e+02
1.65897e-02,4.87800e+02
1.70792e-02,4.58674e+02
1.75831e-02,4.31277e+02
1.81019e-02,4.05508e+02
1.86360e-02,3.81269e+02
1.91859e-02,3.58470e+02
1.97519e-02,3.37026e+02
2.03347e-02,3.16856e+02
2.09347e-02,2.97885e+02
2.15524e-02,2.80042e+02
2.21883e-02,2.63260e+02
2.28430e-02,2.47476e+02
2.35170e-02,2.32631e+02
2.42109e-02,2.18669e+02
2.49252e-02,2.05538e+02
2.56606e-02,1.93189e+02
2.64178e-02,1.81575e+02
2.71972e-02,1.70652e+02
2.79997e-02,1.60380e+02
2.88258e-02,1.50720e+02
2.96763e-02,1.41636e+02
3.05519e-02,1.33094e+02
3.14534e-02,1.25061e+02
3.23814e-02,1.17507e+02
3.33369e-02,1.10404e+02
3.43205e-02,1.03725e+02
3.53331e-02,9.74449e+01
3.63756e-02,9.15399e+01
3.74489e-02,8.59878e+01
3.85539e-02,8.07678e+01
3.96914e-02,7.58599e+01
4.08625e-02,7.12457e+01
4.20682e-02,6.69078e+01
4.33094e-02,6.28298e+01
4.45873e-02,5.89961e+01
4.59028e-02,5.53923e+01
4.72572e-02,5.20047e+01
4.86515e-02,4.88204e+01
5.00870e-02,4.58274e+01
5.15649e-02,4.30143e+01
5.30863e-02,4.03704e+01
5.46526e-02,3.78856e+01
5.62652e-02,3.55504e+01
5.79253e-02,3.33559e+01
5.96344e-02,3.12938e+01
6.13939e-02,2.93562e+01
6.32054e-02,2.75356e+01
6.50703e-02,2.58251e+01
6.69902e-02,2.42181e+01
6.89668e-02,2.27084e+01
7.10017e-02,2.12903e+01
7.30966e-02,1.99582e+01
7.52533e-02,1.87071e+01
7.74737e-02,1.75320e+01
7.97596e-02,1.64285e+01
8.21129e-02,1.53923e+01
8.45357e-02,1.44193e+01
8.70300e-02,1.35058e+01
8.95978e-02,1.26481e+01
9.22414e-02,1.18431e+01
9.49630e-02,1.10874e+01
9.77649e-02,1.03782e+01
1.00650e-01,9.71256e+00
1.03619e-01,9.08801e+00
1.06677e-01,8.50202e+00
1.09824e-01,7.95227e+00
1.13064e-01,7.43659e+00
1.16400e-01,6.95292e+00
1.19835e-01,6.49933e+00
1.23371e-01,6.07402e+00
1.27011e-01,5.67526e+00
1.30758e-01,5.30146e+00
1.34616e-01,4.95111e+00
1.38588e-01,4.62278e+00
1.42677e-01,4.31514e+00
1.46887e-01,4.02694e+00
1.51221e-01,3.75699e+00
1.55683e-01,3.50418e+00
1.60276e-01,3.26747e+00
1.65005e-01,3.04588e+00
1.69874e-01,2.83847e+00
1.74886e-01,2.64439e+00
1.80046e-01,2.46281e+00
1.85358e-01,2.29298e+00
1.90828e-01,2.13415e+00
1.96458e-01,1.98567e+00
2.02255e-01,1.84688e+00
2.08222e-01,1.71718e+00
2.14366e-01,1.59602e+00
2.20691e-01,1.48287e+00
2.27202e-01,1.37721e+00
2.33906e-01,1.27859e+00
2.40807e-01,1.18657e+00
2.47913e-01,1.10072e+00
2.55227e-01,1.02066e+00
2.62758e-01,9.46029e-01
2.70511e-01,8.76476e-01
2.78492e-01,8.11679e-01
2.86709e-01,7.51335e-01
2.95169e-01,6.95159e-01
3.03878e-01,6.42882e-01
3.12844e-01,5.94253e-01
3.22074e-01,5.49035e-01
3.31577e-01,5.07006e-01
3.41360e-01,4.67958e-01
3.51432e-01,4.31694e-01
3.61802e-01,3.98031e-01
3.72477e-01,3.66797e-01
3.83467e-01,3.37829e-01
3.94781e-01,3.10975e-01
4.06429e-01,2.86093e-01
4.18421e-01,2.63050e-01
4.30767e-01,2.41720e-01
4.43477e-01,2.21985e-01
4.56561e-01,2.03736e-01
4.70032e-01,1.86870e-01
4.83901e-01,1.71289e-01
4.98179e-01,1.56904e-01
5.12878e-01,1.43629e-01
5.28010e-01,1.31387e-01
5.43589e-01,1.20102e-01
5.59628e-01,1.09706e-01
5.76140e-01,1.00134e-01
5.93139e-01,9.13255e-02
6.10640e-01,8.32243e-02
6.28657e-01,7.57777e-02
6.47206e-01,6.89369e-02
6.66302e-01,6.26560e-02
6.85961e-01,5.68925e-02
7.06201e-01,5.16069e-02
7.27038e-01,4.67623e-02
7.48489e-01,4.23243e-02
7.70574e-01,3.82612e-02
7.93310e-01,3.45434e-02
8.16717e-01,3.11434e-02
8.40814e-01,2.80358e-02
8.65623e-01,2.51970e-02
8.91163e-01,2.26052e-02
9.17457e-01,2.02401e-02
9.44527e-01,1.80832e-02
9.72396e-01,1.61170e-02
1.00109e+00,1.43257e-02
1.03062e+00,1.26945e-02
1.06103e+00,1.12100e-02
1.09234e+00,9.85945e-03
1.12457e+00,8.63150e-03
1.15775e+00,7.51552e-03
1.19191e+00,6.50178e-03
1.22708e+00,5.58134e-03
1.26328e+00,4.74598e-03
1.30056e+00,3.98816e-03
1.33893e+00,3.30100e-03
1.37843e+00,2.67816e-03
1.41911e+00,2.11384e-03
1.46098e+00,1.60276e-03
1.50408e+00,1.14007e-03
1.54846e+00,7.21350e-04
1.59415e+00,3.42554e-04
1.64119e+00,0.00000e+00
