m1=188110.457, m2=26.445, gsp=2.274, rhosp=21.013
fGW[Hz],dPh[rad]
1.78992e-03,4.41510e+03
1.81318e-03,4.22986e+03
1.83674e-03,4.05204e+03
1.86061e-03,3.88134e+03
1.88480e-03,3.71751e+03
1.90929e-03,3.56028e+03
1.93410e-03,3.40940e+03
1.95924e-03,3.26464e+03
1.98470e-03,3.12576e+03
2.01050e-03,2.99253e+03
2.03662e-03,2.86474e+03
2.06309e-03,2.74217e+03
2.08990e-03,2.62463e+03
2.11706e-03,2.51193e+03
2.14458e-03,2.40386e+03
2.17245e-03,2.30027e+03
2.20068e-03,2.20096e+03
2.22928e-03,2.10577e+03
2.25825e-03,2.01454e+03
2.28760e-03,1.92711e+03
2.31733e-03,1.84333e+03
2.34745e-03,1.76306e+03
2.37796e-03,1.68616e+03
2.40886e-03,1.61250e+03
2.44017e-03,1.54194e+03
2.47188e-03,1.47435e+03
2.50400e-03,1.40963e+03
2.53655e-03,1.34765e+03
2.56951e-03,1.28831e+03
2.60290e-03,1.23149e+03
2.63673e-03,1.17710e+03
2.67100e-03,1.12503e+03
2.70571e-03,1.07520e+03
2.74088e-03,1.02750e+03
2.77650e-03,9.81852e+02
2.81258e-03,9.38171e+02
2.84913e-03,8.96375e+02
2.88616e-03,8.56387e+02
2.92367e-03,8.18131e+02
2.96167e-03,7.81536e+02
3.00016e-03,7.46531e+02
3.03915e-03,7.13050e+02
3.07864e-03,6.81030e+02
3.11865e-03,6.50410e+02
3.15918e-03,6.21130e+02
3.20024e-03,5.93133e+02
3.24183e-03,5.66366e+02
3.28396e-03,5.40776e+02
3.32664e-03,5.16314e+02
3.36987e-03,4.92931e+02
3.41367e-03,4.70582e+02
3.45803e-03,4.49221e+02
3.50297e-03,4.28808e+02
3.54850e-03,4.09300e+02
3.59462e-03,3.90660e+02
3.64133e-03,3.72850e+02
3.68865e-03,3.55834e+02
3.73659e-03,3.39577e+02
3.78515e-03,3.24047e+02
3.83435e-03,3.09212e+02
3.88418e-03,2.95043e+02
3.93466e-03,2.81509e+02
3.98579e-03,2.68583e+02
4.03759e-03,2.56239e+02
4.09006e-03,2.44452e+02
4.14322e-03,2.33195e+02
4.19706e-03,2.22448e+02
4.25161e-03,2.12186e+02
4.30686e-03,2.02389e+02
4.36284e-03,1.93035e+02
4.41954e-03,1.84106e+02
4.47697e-03,1.75583e+02
4.53516e-03,1.67447e+02
4.59409e-03,1.59682e+02
4.65380e-03,1.52270e+02
4.71428e-03,1.45197e+02
4.77555e-03,1.38446e+02
4.83761e-03,1.32004e+02
4.90048e-03,1.25857e+02
4.96417e-03,1.19991e+02
5.02868e-03,1.14394e+02
5.09404e-03,1.09054e+02
5.16024e-03,1.03959e+02
5.22730e-03,9.90985e+01
5.29524e-03,9.44614e+01
5.36405e-03,9.00378e+01
5.43376e-03,8.58181e+01
5.50438e-03,8.17930e+01
5.57592e-03,7.79537e+01
5.64838e-03,7.42918e+01
5.72179e-03,7.07991e+01
5.79615e-03,6.74681e+01
5.87148e-03,6.42913e+01
5.94778e-03,6.12618e+01
6.02508e-03,5.83727e+01
6.10338e-03,5.56177e+01
6.18270e-03,5.29906e+01
6.26306e-03,5.04856e+01
6.34445e-03,4.80972e+01
6.42690e-03,4.58198e+01
6.51043e-03,4.36486e+01
6.59504e-03,4.15785e+01
6.68075e-03,3.96049e+01
6.76757e-03,3.77234e+01
6.85552e-03,3.59297e+01
6.94462e-03,3.42198e+01
7.03487e-03,3.25898e+01
7.12630e-03,3.10361e+01
7.21891e-03,2.95550e+01
7.31273e-03,2.81433e+01
7.40776e-03,2.67978e+01
7.50404e-03,2.55153e+01
7.60156e-03,2.42929e+01
7.70035e-03,2.31279e+01
7.80042e-03,2.20176e+01
7.90180e-03,2.09594e+01
8.00449e-03,1.99509e+01
8.10852e-03,1.89899e+01
8.21390e-03,1.80740e+01
8.32065e-03,1.72012e+01
8.42878e-03,1.63696e+01
8.53832e-03,1.55770e+01
8.64929e-03,1.48219e+01
8.76169e-03,1.41023e+01
8.87556e-03,1.34166e+01
8.99091e-03,1.27633e+01
9.10776e-03,1.21409e+01
9.22612e-03,1.15478e+01
9.34602e-03,1.09827e+01
9.46749e-03,1.04443e+01
9.59053e-03,9.93138e+00
9.71517e-03,9.44270e+00
9.84143e-03,8.97713e+00
9.96933e-03,8.53358e+00
1.00989e-02,8.11103e+00
1.02301e-02,7.70848e+00
1.03631e-02,7.32500e+00
1.04978e-02,6.95969e+00
1.06342e-02,6.61169e+00
1.07724e-02,6.28018e+00
1.09124e-02,5.96439e+00
1.10542e-02,5.66359e+00
1.11979e-02,5.37705e+00
1.13434e-02,5.10411e+00
1.14908e-02,4.84413e+00
1.16402e-02,4.59650e+00
1.17914e-02,4.36063e+00
1.19447e-02,4.13596e+00
1.20999e-02,3.92197e+00
1.22572e-02,3.71815e+00
1.24165e-02,3.52402e+00
1.25778e-02,3.33913e+00
1.27413e-02,3.16303e+00
1.29069e-02,2.99530e+00
1.30746e-02,2.83556e+00
1.32445e-02,2.68343e+00
1.34167e-02,2.53854e+00
1.35910e-02,2.40054e+00
1.37677e-02,2.26912e+00
1.39466e-02,2.14396e+00
1.41278e-02,2.02477e+00
1.43114e-02,1.91125e+00
1.44974e-02,1.80315e+00
1.46858e-02,1.70020e+00
1.48767e-02,1.60215e+00
1.50700e-02,1.50879e+00
1.52659e-02,1.41988e+00
1.54643e-02,1.33521e+00
1.56653e-02,1.25458e+00
1.58688e-02,1.17780e+00
1.60751e-02,1.10468e+00
1.62840e-02,1.03506e+00
1.64956e-02,9.68756e-01
1.67100e-02,9.05621e-01
1.69272e-02,8.45502e-01
1.71471e-02,7.88255e-01
1.73700e-02,7.33743e-01
1.75957e-02,6.81835e-01
1.78244e-02,6.32409e-01
1.80561e-02,5.85344e-01
1.82907e-02,5.40530e-01
1.85284e-02,4.97858e-01
1.87692e-02,4.57226e-01
1.90131e-02,4.18538e-01
1.92602e-02,3.81699e-01
1.95105e-02,3.46623e-01
1.97641e-02,3.13225e-01
2.00210e-02,2.81424e-01
2.02812e-02,2.51146e-01
2.05447e-02,2.22316e-01
2.08117e-02,1.94866e-01
2.10822e-02,1.68729e-01
2.13562e-02,1.43844e-01
2.16337e-02,1.20150e-01
2.19149e-02,9.75907e-02
2.21997e-02,7.61114e-02
2.24882e-02,5.56607e-02
2.27805e-02,3.61894e-02
2.30765e-02,1.76507e-02
2.33764e-02,0.00000e+00
