m1=268144.722, m2=10.020, gsp=2.355, rhosp=55.387
fGW[Hz],dPh[rad]
2.35715e-03,1.45161e+04
2.38024e-03,1.40054e+04
2.40355e-03,1.35124e+04
2.42710e-03,1.30365e+04
2.45087e-03,1.25773e+04
2.47488e-03,1.21341e+04
2.49912e-03,1.17063e+04
2.52360e-03,1.12934e+04
2.54831e-03,1.08950e+04
2.57328e-03,1.05105e+04
2.59848e-03,1.01394e+04
2.62393e-03,9.78128e+03
2.64963e-03,9.43569e+03
2.67559e-03,9.10220e+03
2.70180e-03,8.78038e+03
2.72826e-03,8.46984e+03
2.75498e-03,8.17017e+03
2.78197e-03,7.88101e+03
2.80922e-03,7.60199e+03
2.83673e-03,7.33276e+03
2.86452e-03,7.07297e+03
2.89258e-03,6.82231e+03
2.92091e-03,6.58045e+03
2.94952e-03,6.34709e+03
2.97841e-03,6.12193e+03
3.00759e-03,5.90469e+03
3.03704e-03,5.69509e+03
3.06679e-03,5.49287e+03
3.09683e-03,5.29777e+03
3.12717e-03,5.10953e+03
3.15780e-03,4.92793e+03
3.18873e-03,4.75273e+03
3.21996e-03,4.58370e+03
3.25150e-03,4.42064e+03
3.28335e-03,4.26332e+03
3.31551e-03,4.11156e+03
3.34798e-03,3.96515e+03
3.38078e-03,3.82391e+03
3.41389e-03,3.68767e+03
3.44733e-03,3.55623e+03
3.48110e-03,3.42944e+03
3.51520e-03,3.30713e+03
3.54963e-03,3.18915e+03
3.58440e-03,3.07534e+03
3.61951e-03,2.96556e+03
3.65496e-03,2.85966e+03
3.69076e-03,2.75751e+03
3.72691e-03,2.65898e+03
3.76342e-03,2.56394e+03
3.80028e-03,2.47226e+03
3.83750e-03,2.38384e+03
3.87509e-03,2.29855e+03
3.91305e-03,2.21628e+03
3.95138e-03,2.13693e+03
3.99008e-03,2.06040e+03
4.02916e-03,1.98658e+03
4.06863e-03,1.91538e+03
4.10848e-03,1.84671e+03
4.14872e-03,1.78048e+03
4.18936e-03,1.71660e+03
4.23039e-03,1.65498e+03
4.27183e-03,1.59556e+03
4.31367e-03,1.53825e+03
4.35593e-03,1.48298e+03
4.39859e-03,1.42967e+03
4.44168e-03,1.37826e+03
4.48518e-03,1.32867e+03
4.52912e-03,1.28085e+03
4.57348e-03,1.23473e+03
4.61828e-03,1.19026e+03
4.66351e-03,1.14736e+03
4.70919e-03,1.10600e+03
4.75532e-03,1.06610e+03
4.80190e-03,1.02763e+03
4.84893e-03,9.90526e+02
4.89643e-03,9.54745e+02
4.94439e-03,9.20239e+02
4.99282e-03,8.86963e+02
5.04172e-03,8.54873e+02
5.09111e-03,8.23927e+02
5.14097e-03,7.94085e+02
5.19133e-03,7.65307e+02
5.24218e-03,7.37555e+02
5.29353e-03,7.10794e+02
5.34538e-03,6.84987e+02
5.39773e-03,6.60101e+02
5.45061e-03,6.36104e+02
5.50399e-03,6.12963e+02
5.55791e-03,5.90648e+02
5.61235e-03,5.69130e+02
5.66732e-03,5.48380e+02
5.72283e-03,5.28371e+02
5.77889e-03,5.09077e+02
5.83549e-03,4.90473e+02
5.89265e-03,4.72533e+02
5.95037e-03,4.55234e+02
6.00865e-03,4.38554e+02
6.06751e-03,4.22469e+02
6.12694e-03,4.06960e+02
6.18695e-03,3.92005e+02
6.24755e-03,3.77585e+02
6.30875e-03,3.63680e+02
6.37054e-03,3.50273e+02
6.43294e-03,3.37346e+02
6.49595e-03,3.24880e+02
6.55958e-03,3.12861e+02
6.62383e-03,3.01272e+02
6.68871e-03,2.90098e+02
6.75423e-03,2.79323e+02
6.82039e-03,2.68934e+02
6.88719e-03,2.58917e+02
6.95465e-03,2.49259e+02
7.02277e-03,2.39946e+02
7.09156e-03,2.30967e+02
7.16102e-03,2.22309e+02
7.23117e-03,2.13962e+02
7.30200e-03,2.05913e+02
7.37352e-03,1.98153e+02
7.44574e-03,1.90670e+02
7.51867e-03,1.83456e+02
7.59232e-03,1.76500e+02
7.66669e-03,1.69794e+02
7.74178e-03,1.63327e+02
7.81761e-03,1.57093e+02
7.89419e-03,1.51082e+02
7.97151e-03,1.45286e+02
8.04959e-03,1.39698e+02
8.12844e-03,1.34311e+02
8.20806e-03,1.29116e+02
8.28845e-03,1.24108e+02
8.36964e-03,1.19280e+02
8.45162e-03,1.14624e+02
8.53440e-03,1.10136e+02
8.61800e-03,1.05808e+02
8.70241e-03,1.01636e+02
8.78765e-03,9.76133e+01
8.87373e-03,9.37350e+01
8.96065e-03,8.99958e+01
9.04842e-03,8.63907e+01
9.13705e-03,8.29150e+01
9.22654e-03,7.95640e+01
9.31692e-03,7.63333e+01
9.40818e-03,7.32185e+01
9.50033e-03,7.02155e+01
9.59339e-03,6.73202e+01
9.68735e-03,6.45289e+01
9.78224e-03,6.18377e+01
9.87806e-03,5.92432e+01
9.97482e-03,5.67418e+01
1.00725e-02,5.43302e+01
1.01712e-02,5.20052e+01
1.02708e-02,4.97636e+01
1.03714e-02,4.76026e+01
1.04730e-02,4.55191e+01
1.05756e-02,4.35105e+01
1.06792e-02,4.15739e+01
1.07838e-02,3.97070e+01
1.08894e-02,3.79071e+01
1.09961e-02,3.61718e+01
1.11038e-02,3.44988e+01
1.12125e-02,3.28860e+01
1.13224e-02,3.13311e+01
1.14333e-02,2.98320e+01
1.15452e-02,2.83868e+01
1.16583e-02,2.69935e+01
1.17725e-02,2.56502e+01
1.18878e-02,2.43553e+01
1.20043e-02,2.31068e+01
1.21219e-02,2.19032e+01
1.22406e-02,2.07429e+01
1.23605e-02,1.96243e+01
1.24816e-02,1.85458e+01
1.26038e-02,1.75061e+01
1.27273e-02,1.65038e+01
1.28519e-02,1.55375e+01
1.29778e-02,1.46059e+01
1.31049e-02,1.37078e+01
1.32333e-02,1.28420e+01
1.33629e-02,1.20073e+01
1.34938e-02,1.12027e+01
1.36260e-02,1.04269e+01
1.37595e-02,9.67903e+00
1.38942e-02,8.95805e+00
1.40303e-02,8.26298e+00
1.41678e-02,7.59291e+00
1.43065e-02,6.94692e+00
1.44467e-02,6.32416e+00
1.45882e-02,5.72379e+00
1.47311e-02,5.14501e+00
1.48753e-02,4.58704e+00
1.50211e-02,4.04913e+00
1.51682e-02,3.53057e+00
1.53168e-02,3.03065e+00
1.54668e-02,2.54871e+00
1.56183e-02,2.08410e+00
1.57713e-02,1.63620e+00
1.59257e-02,1.20441e+00
1.60817e-02,7.88150e-01
1.62393e-02,3.86859e-01
1.63983e-02,0.00000e+00
