m1=80809.446, m2=85.293, gsp=2.120, rhosp=1242.819
fGW[Hz],dPh[rad]
1.42531e-03,4.78657e+02
1.45164e-03,4.57603e+02
1.47846e-03,4.37440e+02
1.50577e-03,4.18132e+02
1.53359e-03,3.99644e+02
1.56192e-03,3.81940e+02
1.59077e-03,3.64990e+02
1.62016e-03,3.48761e+02
1.65009e-03,3.33225e+02
1.68057e-03,3.18352e+02
1.71162e-03,3.04115e+02
1.74324e-03,2.90487e+02
1.77545e-03,2.77444e+02
1.80824e-03,2.64961e+02
1.84165e-03,2.53014e+02
1.87567e-03,2.41583e+02
1.91032e-03,2.30644e+02
1.94561e-03,2.20177e+02
1.98156e-03,2.10164e+02
2.01816e-03,2.00584e+02
2.05545e-03,1.91421e+02
2.09342e-03,1.82655e+02
2.13209e-03,1.74272e+02
2.17148e-03,1.66254e+02
2.21159e-03,1.58587e+02
2.25245e-03,1.51256e+02
2.29406e-03,1.44246e+02
2.33644e-03,1.37545e+02
2.37960e-03,1.31138e+02
2.42356e-03,1.25015e+02
2.46834e-03,1.19162e+02
2.51394e-03,1.13569e+02
2.56038e-03,1.08224e+02
2.60768e-03,1.03116e+02
2.65585e-03,9.82370e+01
2.70491e-03,9.35758e+01
2.75488e-03,8.91233e+01
2.80578e-03,8.48709e+01
2.85761e-03,8.08098e+01
2.91040e-03,7.69319e+01
2.96417e-03,7.32295e+01
3.01893e-03,6.96949e+01
3.07470e-03,6.63209e+01
3.13150e-03,6.31008e+01
3.18935e-03,6.00277e+01
3.24827e-03,5.70954e+01
3.30828e-03,5.42978e+01
3.36939e-03,5.16291e+01
3.43164e-03,4.90836e+01
3.49503e-03,4.66560e+01
3.55960e-03,4.43411e+01
3.62536e-03,4.21341e+01
3.69233e-03,4.00302e+01
3.76054e-03,3.80249e+01
3.83002e-03,3.61138e+01
3.90077e-03,3.42928e+01
3.97283e-03,3.25579e+01
4.04623e-03,3.09054e+01
4.12097e-03,2.93314e+01
4.19710e-03,2.78326e+01
4.27464e-03,2.64056e+01
4.35361e-03,2.50472e+01
4.43404e-03,2.37542e+01
4.51595e-03,2.25238e+01
4.59938e-03,2.13531e+01
4.68434e-03,2.02394e+01
4.77088e-03,1.91802e+01
4.85902e-03,1.81729e+01
4.94878e-03,1.72152e+01
5.04020e-03,1.63048e+01
5.13332e-03,1.54395e+01
5.22815e-03,1.46173e+01
5.32473e-03,1.38361e+01
5.42310e-03,1.30941e+01
5.52328e-03,1.23894e+01
5.62532e-03,1.17203e+01
5.72924e-03,1.10851e+01
5.83508e-03,1.04822e+01
5.94288e-03,9.91008e+00
6.05266e-03,9.36729e+00
6.16448e-03,8.85243e+00
6.27836e-03,8.36416e+00
6.39435e-03,7.90121e+00
6.51247e-03,7.46235e+00
6.63278e-03,7.04643e+00
6.75532e-03,6.65231e+00
6.88011e-03,6.27896e+00
7.00721e-03,5.92533e+00
7.13666e-03,5.59048e+00
7.26850e-03,5.27346e+00
7.40278e-03,4.97340e+00
7.53954e-03,4.68945e+00
7.67882e-03,4.42081e+00
7.82068e-03,4.16670e+00
7.96515e-03,3.92639e+00
8.11230e-03,3.69919e+00
8.26217e-03,3.48443e+00
8.41480e-03,3.28147e+00
8.57025e-03,3.08971e+00
8.72858e-03,2.90856e+00
8.88983e-03,2.73749e+00
9.05405e-03,2.57596e+00
9.22132e-03,2.42348e+00
9.39167e-03,2.27958e+00
9.56517e-03,2.14379e+00
9.74187e-03,2.01570e+00
9.92184e-03,1.89489e+00
1.01051e-02,1.78097e+00
1.02918e-02,1.67357e+00
1.04819e-02,1.57235e+00
1.06756e-02,1.47697e+00
1.08728e-02,1.38711e+00
1.10737e-02,1.30247e+00
1.12782e-02,1.22276e+00
1.14866e-02,1.14771e+00
1.16988e-02,1.07707e+00
1.19149e-02,1.01059e+00
1.21350e-02,9.48042e-01
1.23592e-02,8.89199e-01
1.25875e-02,8.33855e-01
1.28201e-02,7.81813e-01
1.30569e-02,7.32887e-01
1.32981e-02,6.86899e-01
1.35438e-02,6.43680e-01
1.37940e-02,6.03073e-01
1.40488e-02,5.64926e-01
1.43083e-02,5.29098e-01
1.45727e-02,4.95454e-01
1.48419e-02,4.63867e-01
1.51161e-02,4.34216e-01
1.53953e-02,4.06388e-01
1.56797e-02,3.80276e-01
1.59694e-02,3.55777e-01
1.62644e-02,3.32797e-01
1.65649e-02,3.11245e-01
1.68709e-02,2.91036e-01
1.71825e-02,2.72088e-01
1.75000e-02,2.54327e-01
1.78233e-02,2.37681e-01
1.81525e-02,2.22082e-01
1.84879e-02,2.07467e-01
1.88294e-02,1.93775e-01
1.91773e-02,1.80951e-01
1.95315e-02,1.68941e-01
1.98924e-02,1.57695e-01
2.02598e-02,1.47167e-01
2.06341e-02,1.37311e-01
2.10153e-02,1.28085e-01
2.14035e-02,1.19452e-01
2.17989e-02,1.11374e-01
2.22017e-02,1.03816e-01
2.26118e-02,9.67452e-02
2.30295e-02,9.01318e-02
2.34550e-02,8.39465e-02
2.38883e-02,7.81625e-02
2.43296e-02,7.27544e-02
2.47790e-02,6.76982e-02
2.52368e-02,6.29716e-02
2.57030e-02,5.85537e-02
2.61778e-02,5.44247e-02
2.66614e-02,5.05662e-02
2.71540e-02,4.69607e-02
2.76556e-02,4.35921e-02
2.81665e-02,4.04451e-02
2.86869e-02,3.75054e-02
2.92168e-02,3.47596e-02
2.97566e-02,3.21952e-02
3.03063e-02,2.98004e-02
3.08661e-02,2.75642e-02
3.14364e-02,2.54762e-02
3.20171e-02,2.35268e-02
3.26086e-02,2.17070e-02
3.32110e-02,2.00083e-02
3.38245e-02,1.84227e-02
3.44494e-02,1.69428e-02
3.50858e-02,1.55617e-02
3.57340e-02,1.42728e-02
3.63941e-02,1.30702e-02
3.70664e-02,1.19481e-02
3.77512e-02,1.09012e-02
3.84486e-02,9.92447e-03
3.91589e-02,9.01334e-03
3.98823e-02,8.16342e-03
4.06191e-02,7.37066e-03
4.13695e-02,6.63125e-03
4.21337e-02,5.94165e-03
4.29121e-02,5.29853e-03
4.37048e-02,4.69880e-03
4.45122e-02,4.13955e-03
4.53345e-02,3.61809e-03
4.61720e-02,3.13188e-03
4.70250e-02,2.67857e-03
4.78937e-02,2.25595e-03
4.87785e-02,1.86195e-03
4.96796e-02,1.49466e-03
5.05974e-02,1.15228e-03
5.15321e-02,8.33141e-04
5.24841e-02,5.35670e-04
5.34537e-02,2.58411e-04
5.44412e-02,0.00000e+00
