m1=128307.325, m2=38.310, gsp=2.064, rhosp=9172.593
fGW[Hz],dPh[rad]
1.71405e-03,6.85830e+02
1.74005e-03,6.55784e+02
1.76644e-03,6.26973e+02
1.79323e-03,5.99350e+02
1.82043e-03,5.72869e+02
1.84804e-03,5.47486e+02
1.87606e-03,5.23158e+02
1.90452e-03,4.99846e+02
1.93340e-03,4.77508e+02
1.96273e-03,4.56108e+02
1.99250e-03,4.35609e+02
2.02272e-03,4.15975e+02
2.05339e-03,3.97172e+02
2.08454e-03,3.79168e+02
2.11615e-03,3.61931e+02
2.14825e-03,3.45431e+02
2.18083e-03,3.29637e+02
2.21391e-03,3.14523e+02
2.24749e-03,3.00061e+02
2.28157e-03,2.86224e+02
2.31618e-03,2.72988e+02
2.35131e-03,2.60329e+02
2.38697e-03,2.48222e+02
2.42317e-03,2.36646e+02
2.45992e-03,2.25578e+02
2.49723e-03,2.14998e+02
2.53511e-03,2.04887e+02
2.57356e-03,1.95224e+02
2.61259e-03,1.85991e+02
2.65222e-03,1.77170e+02
2.69244e-03,1.68745e+02
2.73328e-03,1.60698e+02
2.77473e-03,1.53014e+02
2.81682e-03,1.45677e+02
2.85954e-03,1.38674e+02
2.90291e-03,1.31989e+02
2.94694e-03,1.25609e+02
2.99163e-03,1.19521e+02
3.03701e-03,1.13713e+02
3.08307e-03,1.08173e+02
3.12983e-03,1.02889e+02
3.17730e-03,9.78497e+01
3.22549e-03,9.30450e+01
3.27441e-03,8.84645e+01
3.32407e-03,8.40984e+01
3.37449e-03,7.99373e+01
3.42567e-03,7.59721e+01
3.47763e-03,7.21942e+01
3.53037e-03,6.85954e+01
3.58392e-03,6.51676e+01
3.63827e-03,6.19031e+01
3.69345e-03,5.87947e+01
3.74947e-03,5.58354e+01
3.80634e-03,5.30184e+01
3.86407e-03,5.03372e+01
3.92268e-03,4.77857e+01
3.98217e-03,4.53580e+01
4.04257e-03,4.30484e+01
4.10388e-03,4.08515e+01
4.16612e-03,3.87620e+01
4.22931e-03,3.67751e+01
4.29346e-03,3.48859e+01
4.35857e-03,3.30898e+01
4.42468e-03,3.13826e+01
4.49179e-03,2.97601e+01
4.55992e-03,2.82183e+01
4.62908e-03,2.67533e+01
4.69928e-03,2.53616e+01
4.77056e-03,2.40396e+01
4.84291e-03,2.27840e+01
4.91636e-03,2.15917e+01
4.99093e-03,2.04595e+01
5.06663e-03,1.93847e+01
5.14347e-03,1.83645e+01
5.22148e-03,1.73961e+01
5.30068e-03,1.64771e+01
5.38107e-03,1.56050e+01
5.46268e-03,1.47777e+01
5.54554e-03,1.39928e+01
5.62965e-03,1.32483e+01
5.71503e-03,1.25421e+01
5.80171e-03,1.18725e+01
5.88970e-03,1.12376e+01
5.97903e-03,1.06356e+01
6.06971e-03,1.00650e+01
6.16177e-03,9.52406e+00
6.25523e-03,9.01140e+00
6.35010e-03,8.52557e+00
6.44641e-03,8.06522e+00
6.54418e-03,7.62906e+00
6.64344e-03,7.21586e+00
6.74420e-03,6.82445e+00
6.84649e-03,6.45373e+00
6.95033e-03,6.10263e+00
7.05574e-03,5.77016e+00
7.16275e-03,5.45535e+00
7.27139e-03,5.15729e+00
7.38168e-03,4.87513e+00
7.49363e-03,4.60803e+00
7.60729e-03,4.35523e+00
7.72267e-03,4.11597e+00
7.83980e-03,3.88954e+00
7.95870e-03,3.67529e+00
8.07941e-03,3.47258e+00
8.20195e-03,3.28079e+00
8.32635e-03,3.09936e+00
8.45263e-03,2.92774e+00
8.58083e-03,2.76542e+00
8.71098e-03,2.61190e+00
8.84309e-03,2.46672e+00
8.97722e-03,2.32943e+00
9.11337e-03,2.19962e+00
9.25159e-03,2.07688e+00
9.39191e-03,1.96085e+00
9.53436e-03,1.85116e+00
9.67896e-03,1.74747e+00
9.82576e-03,1.64947e+00
9.97479e-03,1.55684e+00
1.01261e-02,1.46930e+00
1.02797e-02,1.38658e+00
1.04356e-02,1.30840e+00
1.05938e-02,1.23454e+00
1.07545e-02,1.16475e+00
1.09176e-02,1.09882e+00
1.10832e-02,1.03653e+00
1.12513e-02,9.77694e-01
1.14220e-02,9.22114e-01
1.15952e-02,8.69615e-01
1.17711e-02,8.20031e-01
1.19496e-02,7.73202e-01
1.21308e-02,7.28977e-01
1.23148e-02,6.87214e-01
1.25016e-02,6.47777e-01
1.26912e-02,6.10539e-01
1.28837e-02,5.75379e-01
1.30791e-02,5.42183e-01
1.32775e-02,5.10842e-01
1.34788e-02,4.81254e-01
1.36833e-02,4.53323e-01
1.38908e-02,4.26956e-01
1.41015e-02,4.02068e-01
1.43154e-02,3.78576e-01
1.45325e-02,3.56403e-01
1.47529e-02,3.35476e-01
1.49767e-02,3.15725e-01
1.52038e-02,2.97086e-01
1.54344e-02,2.79496e-01
1.56685e-02,2.62896e-01
1.59061e-02,2.47233e-01
1.61474e-02,2.32452e-01
1.63923e-02,2.18506e-01
1.66409e-02,2.05348e-01
1.68933e-02,1.92932e-01
1.71495e-02,1.81219e-01
1.74096e-02,1.70168e-01
1.76737e-02,1.59742e-01
1.79417e-02,1.49907e-01
1.82138e-02,1.40629e-01
1.84901e-02,1.31876e-01
1.87705e-02,1.23620e-01
1.90552e-02,1.15833e-01
1.93442e-02,1.08487e-01
1.96376e-02,1.01558e-01
1.99355e-02,9.50232e-02
2.02378e-02,8.88596e-02
2.05448e-02,8.30463e-02
2.08564e-02,7.75637e-02
2.11727e-02,7.23930e-02
2.14938e-02,6.75166e-02
2.18198e-02,6.29180e-02
2.21507e-02,5.85812e-02
2.24867e-02,5.44916e-02
2.28277e-02,5.06352e-02
2.31740e-02,4.69986e-02
2.35254e-02,4.35695e-02
2.38823e-02,4.03360e-02
2.42445e-02,3.72872e-02
2.46122e-02,3.44124e-02
2.49855e-02,3.17018e-02
2.53644e-02,2.91461e-02
2.57491e-02,2.67364e-02
2.61397e-02,2.44645e-02
2.65361e-02,2.23225e-02
2.69386e-02,2.03030e-02
2.73472e-02,1.83991e-02
2.77619e-02,1.66041e-02
2.81830e-02,1.49119e-02
2.86104e-02,1.33166e-02
2.90444e-02,1.18126e-02
2.94849e-02,1.03948e-02
2.99321e-02,9.05822e-03
3.03861e-02,7.79825e-03
3.08469e-02,6.61050e-03
3.13148e-02,5.49086e-03
3.17897e-02,4.43542e-03
3.22719e-02,3.44052e-03
3.27613e-02,2.50271e-03
3.32582e-02,1.61870e-03
3.37627e-02,7.85435e-04
3.42747e-02,0.00000e+00
