m1=59049.538, m2=3.968, gsp=2.261, rhosp=25.152
fGW[Hz],dPh[rad]
4.87035e-03,9.24326e+03
4.93755e-03,8.81984e+03
5.00569e-03,8.41506e+03
5.07476e-03,8.02815e+03
5.14478e-03,7.65835e+03
5.21578e-03,7.30496e+03
5.28775e-03,6.96727e+03
5.36071e-03,6.64463e+03
5.43468e-03,6.33639e+03
5.50967e-03,6.04195e+03
5.58570e-03,5.76072e+03
5.66278e-03,5.49213e+03
5.74092e-03,5.23565e+03
5.82013e-03,4.99074e+03
5.90044e-03,4.75692e+03
5.98186e-03,4.53370e+03
6.06440e-03,4.32063e+03
6.14809e-03,4.11726e+03
6.23292e-03,3.92316e+03
6.31893e-03,3.73794e+03
6.40612e-03,3.56121e+03
6.49452e-03,3.39259e+03
6.58413e-03,3.23172e+03
6.67499e-03,3.07827e+03
6.76709e-03,2.93190e+03
6.86047e-03,2.79230e+03
6.95514e-03,2.65917e+03
7.05111e-03,2.53222e+03
7.14841e-03,2.41117e+03
7.24705e-03,2.29576e+03
7.34705e-03,2.18574e+03
7.44843e-03,2.08085e+03
7.55120e-03,1.98088e+03
7.65540e-03,1.88560e+03
7.76104e-03,1.79479e+03
7.86813e-03,1.70826e+03
7.97670e-03,1.62580e+03
8.08677e-03,1.54724e+03
8.19836e-03,1.47239e+03
8.31148e-03,1.40108e+03
8.42617e-03,1.33315e+03
8.54244e-03,1.26845e+03
8.66032e-03,1.20682e+03
8.77982e-03,1.14813e+03
8.90097e-03,1.09224e+03
9.02379e-03,1.03901e+03
9.14831e-03,9.88329e+02
9.27454e-03,9.40074e+02
9.40252e-03,8.94132e+02
9.53226e-03,8.50395e+02
9.66380e-03,8.08759e+02
9.79714e-03,7.69126e+02
9.93233e-03,7.31403e+02
1.00694e-02,6.95498e+02
1.02083e-02,6.61327e+02
1.03492e-02,6.28808e+02
1.04920e-02,5.97862e+02
1.06368e-02,5.68415e+02
1.07835e-02,5.40397e+02
1.09323e-02,5.13738e+02
1.10832e-02,4.88375e+02
1.12361e-02,4.64246e+02
1.13912e-02,4.41292e+02
1.15484e-02,4.19457e+02
1.17077e-02,3.98687e+02
1.18693e-02,3.78931e+02
1.20331e-02,3.60141e+02
1.21991e-02,3.42271e+02
1.23674e-02,3.25276e+02
1.25381e-02,3.09113e+02
1.27111e-02,2.93744e+02
1.28865e-02,2.79129e+02
1.30643e-02,2.65232e+02
1.32446e-02,2.52018e+02
1.34273e-02,2.39455e+02
1.36126e-02,2.27511e+02
1.38005e-02,2.16156e+02
1.39909e-02,2.05360e+02
1.41839e-02,1.95098e+02
1.43797e-02,1.85343e+02
1.45781e-02,1.76070e+02
1.47792e-02,1.67255e+02
1.49832e-02,1.58877e+02
1.51899e-02,1.50914e+02
1.53995e-02,1.43346e+02
1.56120e-02,1.36153e+02
1.58274e-02,1.29317e+02
1.60458e-02,1.22821e+02
1.62673e-02,1.16648e+02
1.64917e-02,1.10781e+02
1.67193e-02,1.05207e+02
1.69500e-02,9.99095e+01
1.71839e-02,9.48762e+01
1.74210e-02,9.00938e+01
1.76614e-02,8.55498e+01
1.79051e-02,8.12326e+01
1.81522e-02,7.71308e+01
1.84026e-02,7.32338e+01
1.86566e-02,6.95316e+01
1.89140e-02,6.60144e+01
1.91750e-02,6.26731e+01
1.94396e-02,5.94990e+01
1.97078e-02,5.64838e+01
1.99798e-02,5.36196e+01
2.02555e-02,5.08988e+01
2.05350e-02,4.83145e+01
2.08183e-02,4.58597e+01
2.11056e-02,4.35281e+01
2.13968e-02,4.13134e+01
2.16921e-02,3.92100e+01
2.19914e-02,3.72122e+01
2.22949e-02,3.53147e+01
2.26025e-02,3.35126e+01
2.29144e-02,3.18012e+01
2.32306e-02,3.01758e+01
2.35511e-02,2.86321e+01
2.38761e-02,2.71662e+01
2.42056e-02,2.57740e+01
2.45396e-02,2.44520e+01
2.48782e-02,2.31966e+01
2.52215e-02,2.20044e+01
2.55695e-02,2.08723e+01
2.59223e-02,1.97973e+01
2.62800e-02,1.87766e+01
2.66426e-02,1.78073e+01
2.70103e-02,1.68869e+01
2.73830e-02,1.60130e+01
2.77608e-02,1.51832e+01
2.81439e-02,1.43954e+01
2.85323e-02,1.36473e+01
2.89260e-02,1.29370e+01
2.93251e-02,1.22626e+01
2.97298e-02,1.16224e+01
3.01400e-02,1.10145e+01
3.05559e-02,1.04373e+01
3.09775e-02,9.88933e+00
3.14050e-02,9.36909e+00
3.18383e-02,8.87518e+00
3.22776e-02,8.40628e+00
3.27230e-02,7.96111e+00
3.31746e-02,7.53849e+00
3.36323e-02,7.13727e+00
3.40964e-02,6.75638e+00
3.45669e-02,6.39479e+00
3.50439e-02,6.05152e+00
3.55275e-02,5.72565e+00
3.60177e-02,5.41631e+00
3.65147e-02,5.12264e+00
3.70185e-02,4.84387e+00
3.75294e-02,4.57924e+00
3.80472e-02,4.32804e+00
3.85722e-02,4.08958e+00
3.91045e-02,3.86322e+00
3.96441e-02,3.64835e+00
4.01911e-02,3.44439e+00
4.07457e-02,3.25078e+00
4.13079e-02,3.06700e+00
4.18779e-02,2.89255e+00
4.24558e-02,2.72696e+00
4.30416e-02,2.56979e+00
4.36355e-02,2.42060e+00
4.42377e-02,2.27899e+00
4.48481e-02,2.14457e+00
4.54669e-02,2.01699e+00
4.60943e-02,1.89589e+00
4.67304e-02,1.78094e+00
4.73752e-02,1.67184e+00
4.80289e-02,1.56829e+00
4.86916e-02,1.47000e+00
4.93635e-02,1.37671e+00
5.00447e-02,1.28817e+00
5.07352e-02,1.20412e+00
5.14353e-02,1.12436e+00
5.21451e-02,1.04865e+00
5.28646e-02,9.76792e-01
5.35941e-02,9.08591e-01
5.43336e-02,8.43861e-01
5.50833e-02,7.82425e-01
5.58434e-02,7.24116e-01
5.66140e-02,6.68775e-01
5.73952e-02,6.16251e-01
5.81872e-02,5.66401e-01
5.89901e-02,5.19089e-01
5.98041e-02,4.74186e-01
6.06293e-02,4.31569e-01
6.14659e-02,3.91123e-01
6.23140e-02,3.52736e-01
6.31739e-02,3.16305e-01
6.40456e-02,2.81728e-01
6.49294e-02,2.48914e-01
6.58253e-02,2.17770e-01
6.67336e-02,1.88214e-01
6.76545e-02,1.60163e-01
6.85880e-02,1.33541e-01
6.95344e-02,1.08276e-01
7.04939e-02,8.42985e-02
7.14667e-02,6.15427e-02
7.24528e-02,3.99465e-02
7.34526e-02,1.94509e-02
7.44661e-02,0.00000e+00
