m1=34893.109, m2=26.322, gsp=2.120, rhosp=578.143
fGW[Hz],dPh[rad]
2.73242e-03,6.81840e+02
2.78554e-03,6.50410e+02
2.83970e-03,6.20375e+02
2.89490e-03,5.91676e+02
2.95118e-03,5.64254e+02
3.00856e-03,5.38054e+02
3.06704e-03,5.13023e+02
3.12667e-03,4.89111e+02
3.18746e-03,4.66269e+02
3.24942e-03,4.44450e+02
3.31259e-03,4.23610e+02
3.37699e-03,4.03706e+02
3.44264e-03,3.84697e+02
3.50957e-03,3.66546e+02
3.57780e-03,3.49213e+02
3.64735e-03,3.32663e+02
3.71826e-03,3.16863e+02
3.79055e-03,3.01779e+02
3.86424e-03,2.87380e+02
3.93936e-03,2.73636e+02
4.01595e-03,2.60519e+02
4.09402e-03,2.48000e+02
4.17361e-03,2.36053e+02
4.25475e-03,2.24654e+02
4.33746e-03,2.13779e+02
4.42179e-03,2.03403e+02
4.50775e-03,1.93506e+02
4.59539e-03,1.84065e+02
4.68472e-03,1.75061e+02
4.77580e-03,1.66475e+02
4.86864e-03,1.58288e+02
4.96329e-03,1.50482e+02
5.05978e-03,1.43040e+02
5.15815e-03,1.35946e+02
5.25843e-03,1.29185e+02
5.36066e-03,1.22741e+02
5.46487e-03,1.16601e+02
5.57111e-03,1.10751e+02
5.67942e-03,1.05177e+02
5.78983e-03,9.98685e+01
5.90239e-03,9.48123e+01
6.01714e-03,8.99971e+01
6.13411e-03,8.54123e+01
6.25337e-03,8.10474e+01
6.37494e-03,7.68923e+01
6.49887e-03,7.29376e+01
6.62521e-03,6.91741e+01
6.75401e-03,6.55932e+01
6.88531e-03,6.21864e+01
7.01917e-03,5.89459e+01
7.15563e-03,5.58639e+01
7.29474e-03,5.29332e+01
7.43655e-03,5.01468e+01
7.58113e-03,4.74981e+01
7.72851e-03,4.49806e+01
7.87876e-03,4.25882e+01
8.03193e-03,4.03152e+01
8.18807e-03,3.81560e+01
8.34726e-03,3.61052e+01
8.50953e-03,3.41577e+01
8.67496e-03,3.23087e+01
8.84361e-03,3.05535e+01
9.01554e-03,2.88877e+01
9.19081e-03,2.73070e+01
9.36948e-03,2.58074e+01
9.55163e-03,2.43850e+01
9.73732e-03,2.30360e+01
9.92663e-03,2.17571e+01
1.01196e-02,2.05447e+01
1.03163e-02,1.93957e+01
1.05169e-02,1.83069e+01
1.07214e-02,1.72755e+01
1.09298e-02,1.62986e+01
1.11423e-02,1.53735e+01
1.13589e-02,1.44977e+01
1.15797e-02,1.36688e+01
1.18048e-02,1.28844e+01
1.20343e-02,1.21423e+01
1.22683e-02,1.14403e+01
1.25068e-02,1.07765e+01
1.27499e-02,1.01490e+01
1.29978e-02,9.55577e+00
1.32505e-02,8.99522e+00
1.35081e-02,8.46563e+00
1.37707e-02,7.96543e+00
1.40384e-02,7.49308e+00
1.43113e-02,7.04714e+00
1.45895e-02,6.62625e+00
1.48732e-02,6.22909e+00
1.51623e-02,5.85441e+00
1.54571e-02,5.50103e+00
1.57576e-02,5.16783e+00
1.60639e-02,4.85372e+00
1.63762e-02,4.55768e+00
1.66946e-02,4.27875e+00
1.70191e-02,4.01600e+00
1.73500e-02,3.76855e+00
1.76873e-02,3.53557e+00
1.80311e-02,3.31627e+00
1.83817e-02,3.10990e+00
1.87390e-02,2.91574e+00
1.91033e-02,2.73311e+00
1.94747e-02,2.56137e+00
1.98533e-02,2.39992e+00
2.02393e-02,2.24817e+00
2.06328e-02,2.10557e+00
2.10339e-02,1.97161e+00
2.14428e-02,1.84579e+00
2.18597e-02,1.72765e+00
2.22846e-02,1.61674e+00
2.27179e-02,1.51264e+00
2.31595e-02,1.41497e+00
2.36097e-02,1.32334e+00
2.40687e-02,1.23740e+00
2.45367e-02,1.15682e+00
2.50137e-02,1.08127e+00
2.54999e-02,1.01046e+00
2.59957e-02,9.44117e-01
2.65011e-02,8.81959e-01
2.70163e-02,8.23740e-01
2.75415e-02,7.69221e-01
2.80769e-02,7.18179e-01
2.86227e-02,6.70402e-01
2.91792e-02,6.25689e-01
2.97465e-02,5.83854e-01
3.03247e-02,5.44718e-01
3.09143e-02,5.08116e-01
3.15153e-02,4.73889e-01
3.21280e-02,4.41890e-01
3.27526e-02,4.11979e-01
3.33893e-02,3.84026e-01
3.40384e-02,3.57907e-01
3.47001e-02,3.33506e-01
3.53747e-02,3.10715e-01
3.60624e-02,2.89430e-01
3.67635e-02,2.69556e-01
3.74782e-02,2.51003e-01
3.82068e-02,2.33685e-01
3.89496e-02,2.17523e-01
3.97068e-02,2.02442e-01
4.04788e-02,1.88372e-01
4.12657e-02,1.75248e-01
4.20679e-02,1.63007e-01
4.28858e-02,1.51592e-01
4.37195e-02,1.40949e-01
4.45694e-02,1.31027e-01
4.54359e-02,1.21778e-01
4.63192e-02,1.13158e-01
4.72197e-02,1.05126e-01
4.81377e-02,9.76412e-02
4.90735e-02,9.06684e-02
5.00275e-02,8.41730e-02
5.10001e-02,7.81233e-02
5.19916e-02,7.24891e-02
5.30023e-02,6.72427e-02
5.40327e-02,6.23579e-02
5.50832e-02,5.78103e-02
5.61540e-02,5.35770e-02
5.72457e-02,4.96368e-02
5.83586e-02,4.59698e-02
5.94931e-02,4.25573e-02
6.06497e-02,3.93820e-02
6.18288e-02,3.64277e-02
6.30308e-02,3.36793e-02
6.42562e-02,3.11227e-02
6.55054e-02,2.87446e-02
6.67788e-02,2.65329e-02
6.80771e-02,2.44760e-02
6.94005e-02,2.25634e-02
7.07497e-02,2.07849e-02
7.21252e-02,1.91313e-02
7.35273e-02,1.75940e-02
7.49568e-02,1.61650e-02
7.64140e-02,1.48366e-02
7.78995e-02,1.36018e-02
7.94140e-02,1.24542e-02
8.09578e-02,1.13877e-02
8.25317e-02,1.03966e-02
8.41362e-02,9.47564e-03
8.57719e-02,8.61988e-03
8.74393e-02,7.82478e-03
8.91392e-02,7.08607e-03
9.08721e-02,6.39980e-03
9.26388e-02,5.76227e-03
9.44397e-02,5.17006e-03
9.62757e-02,4.61998e-03
9.81474e-02,4.10904e-03
1.00055e-01,3.63450e-03
1.02001e-01,3.19378e-03
1.03984e-01,2.78448e-03
1.06005e-01,2.40439e-03
1.08066e-01,2.05144e-03
1.10167e-01,1.72370e-03
1.12309e-01,1.41938e-03
1.14492e-01,1.13682e-03
1.16718e-01,8.74480e-04
1.18987e-01,6.30916e-04
1.21300e-01,4.04795e-04
1.23658e-01,1.94874e-04
1.26062e-01,0.00000e+00
