m1=3174.389, m2=9.964, gsp=2.149, rhosp=3659.775
fGW[Hz],dPh[rad]
7.16400e-03,9.72924e+02
7.35611e-03,9.16731e+02
7.55337e-03,8.63771e+02
7.75592e-03,8.13860e+02
7.96390e-03,7.66820e+02
8.17746e-03,7.22488e+02
8.39675e-03,6.80708e+02
8.62191e-03,6.41333e+02
8.85312e-03,6.04225e+02
9.09052e-03,5.69254e+02
9.33429e-03,5.36297e+02
9.58460e-03,5.05238e+02
9.84162e-03,4.75968e+02
1.01055e-02,4.48385e+02
1.03765e-02,4.22391e+02
1.06548e-02,3.97895e+02
1.09405e-02,3.74811e+02
1.12339e-02,3.53058e+02
1.15351e-02,3.32559e+02
1.18444e-02,3.13243e+02
1.21621e-02,2.95040e+02
1.24882e-02,2.77888e+02
1.28231e-02,2.61725e+02
1.31669e-02,2.46496e+02
1.35200e-02,2.32145e+02
1.38826e-02,2.18624e+02
1.42549e-02,2.05883e+02
1.46371e-02,1.93878e+02
1.50296e-02,1.82567e+02
1.54327e-02,1.71910e+02
1.58465e-02,1.61869e+02
1.62714e-02,1.52408e+02
1.67078e-02,1.43495e+02
1.71558e-02,1.35098e+02
1.76159e-02,1.27186e+02
1.80882e-02,1.19733e+02
1.85733e-02,1.12712e+02
1.90713e-02,1.06097e+02
1.95828e-02,9.98659e+01
2.01079e-02,9.39960e+01
2.06471e-02,8.84666e+01
2.12008e-02,8.32582e+01
2.17693e-02,7.83521e+01
2.23531e-02,7.37310e+01
2.29525e-02,6.93784e+01
2.35680e-02,6.52789e+01
2.42000e-02,6.14178e+01
2.48489e-02,5.77815e+01
2.55153e-02,5.43568e+01
2.61995e-02,5.11317e+01
2.69020e-02,4.80946e+01
2.76234e-02,4.52346e+01
2.83642e-02,4.25416e+01
2.91248e-02,4.00058e+01
2.99058e-02,3.76182e+01
3.07078e-02,3.53702e+01
3.15312e-02,3.32538e+01
3.23767e-02,3.12613e+01
3.32450e-02,2.93856e+01
3.41365e-02,2.76199e+01
3.50519e-02,2.59578e+01
3.59918e-02,2.43934e+01
3.69570e-02,2.29210e+01
3.79480e-02,2.15352e+01
3.89656e-02,2.02311e+01
4.00105e-02,1.90038e+01
4.10834e-02,1.78490e+01
4.21851e-02,1.67624e+01
4.33163e-02,1.57401e+01
4.44779e-02,1.47783e+01
4.56706e-02,1.38736e+01
4.68953e-02,1.30225e+01
4.81529e-02,1.22220e+01
4.94441e-02,1.14692e+01
5.07700e-02,1.07612e+01
5.21315e-02,1.00954e+01
5.35294e-02,9.46943e+00
5.49648e-02,8.88090e+00
5.64388e-02,8.32763e+00
5.79522e-02,7.80757e+00
5.95063e-02,7.31877e+00
6.11020e-02,6.85940e+00
6.27405e-02,6.42774e+00
6.44229e-02,6.02216e+00
6.61505e-02,5.64113e+00
6.79244e-02,5.28321e+00
6.97458e-02,4.94704e+00
7.16161e-02,4.63134e+00
7.35366e-02,4.33490e+00
7.55085e-02,4.05658e+00
7.75334e-02,3.79533e+00
7.96125e-02,3.55011e+00
8.17474e-02,3.32000e+00
8.39395e-02,3.10408e+00
8.61904e-02,2.90152e+00
8.85017e-02,2.71153e+00
9.08750e-02,2.53335e+00
9.33119e-02,2.36629e+00
9.58141e-02,2.20967e+00
9.83834e-02,2.06287e+00
1.01022e-01,1.92531e+00
1.03731e-01,1.79642e+00
1.06512e-01,1.67569e+00
1.09369e-01,1.56263e+00
1.12301e-01,1.45677e+00
1.15313e-01,1.35767e+00
1.18405e-01,1.26493e+00
1.21580e-01,1.17816e+00
1.24840e-01,1.09700e+00
1.28188e-01,1.02109e+00
1.31626e-01,9.50131e-01
1.35155e-01,8.83805e-01
1.38780e-01,8.21830e-01
1.42501e-01,7.63937e-01
1.46322e-01,7.09873e-01
1.50246e-01,6.59400e-01
1.54275e-01,6.12294e-01
1.58412e-01,5.68344e-01
1.62660e-01,5.27353e-01
1.67022e-01,4.89133e-01
1.71501e-01,4.53509e-01
1.76100e-01,4.20317e-01
1.80822e-01,3.89401e-01
1.85671e-01,3.60616e-01
1.90650e-01,3.33824e-01
1.95762e-01,3.08898e-01
2.01012e-01,2.85715e-01
2.06402e-01,2.64162e-01
2.11937e-01,2.44134e-01
2.17620e-01,2.25528e-01
2.23456e-01,2.08252e-01
2.29448e-01,1.92216e-01
2.35601e-01,1.77339e-01
2.41919e-01,1.63542e-01
2.48406e-01,1.50752e-01
2.55068e-01,1.38902e-01
2.61907e-01,1.27926e-01
2.68931e-01,1.17765e-01
2.76142e-01,1.08362e-01
2.83547e-01,9.96657e-02
2.91151e-01,9.16256e-02
2.98958e-01,8.41959e-02
3.06975e-01,7.73334e-02
3.15207e-01,7.09978e-02
3.23660e-01,6.51513e-02
3.32339e-01,5.97587e-02
3.41251e-01,5.47871e-02
3.50402e-01,5.02058e-02
3.59798e-01,4.59860e-02
3.69446e-01,4.21011e-02
3.79353e-01,3.85263e-02
3.89526e-01,3.52381e-02
3.99972e-01,3.22152e-02
4.10697e-01,2.94373e-02
4.21711e-01,2.68858e-02
4.33019e-01,2.45433e-02
4.44631e-01,2.23937e-02
4.56554e-01,2.04219e-02
4.68797e-01,1.86141e-02
4.81368e-01,1.69573e-02
4.94277e-01,1.54397e-02
5.07531e-01,1.40500e-02
5.21141e-01,1.27781e-02
5.35116e-01,1.16144e-02
5.49465e-01,1.05503e-02
5.64200e-01,9.57753e-03
5.79329e-01,8.68866e-03
5.94865e-01,7.87676e-03
6.10816e-01,7.13545e-03
6.27196e-01,6.45887e-03
6.44015e-01,5.84158e-03
6.61285e-01,5.27859e-03
6.79018e-01,4.76531e-03
6.97226e-01,4.29752e-03
7.15923e-01,3.87133e-03
7.35121e-01,3.48318e-03
7.54834e-01,3.12977e-03
7.75075e-01,2.80811e-03
7.95860e-01,2.51543e-03
8.17202e-01,2.24920e-03
8.39116e-01,2.00711e-03
8.61617e-01,1.78702e-03
8.84722e-01,1.58700e-03
9.08447e-01,1.40527e-03
9.32808e-01,1.24019e-03
9.57822e-01,1.09027e-03
9.83507e-01,9.54169e-04
1.00988e+00,8.30631e-04
1.03696e+00,7.18525e-04
1.06477e+00,6.16817e-04
1.09332e+00,5.24562e-04
1.12264e+00,4.40899e-04
1.15274e+00,3.65044e-04
1.18366e+00,2.96282e-04
1.21540e+00,2.33962e-04
1.24799e+00,1.77490e-04
1.28145e+00,1.26327e-04
1.31582e+00,7.99821e-05
1.35110e+00,3.80085e-05
1.38733e+00,0.00000e+00
