m1=329349.258, m2=24.508, gsp=2.019, rhosp=8607.747
fGW[Hz],dPh[rad]
1.60106e-03,2.02920e+02
1.61822e-03,1.94930e+02
1.63556e-03,1.87249e+02
1.65308e-03,1.79864e+02
1.67080e-03,1.72764e+02
1.68870e-03,1.65939e+02
1.70679e-03,1.59379e+02
1.72508e-03,1.53072e+02
1.74357e-03,1.47011e+02
1.76225e-03,1.41185e+02
1.78113e-03,1.35585e+02
1.80021e-03,1.30203e+02
1.81950e-03,1.25031e+02
1.83900e-03,1.20061e+02
1.85870e-03,1.15285e+02
1.87862e-03,1.10696e+02
1.89875e-03,1.06286e+02
1.91910e-03,1.02048e+02
1.93966e-03,9.79772e+01
1.96044e-03,9.40658e+01
1.98145e-03,9.03079e+01
2.00268e-03,8.66978e+01
2.02414e-03,8.32296e+01
2.04583e-03,7.98980e+01
2.06775e-03,7.66977e+01
2.08990e-03,7.36236e+01
2.11230e-03,7.06708e+01
2.13493e-03,6.78347e+01
2.15781e-03,6.51107e+01
2.18093e-03,6.24945e+01
2.20429e-03,5.99819e+01
2.22791e-03,5.75689e+01
2.25179e-03,5.52516e+01
2.27591e-03,5.30263e+01
2.30030e-03,5.08893e+01
2.32495e-03,4.88373e+01
2.34986e-03,4.68670e+01
2.37504e-03,4.49750e+01
2.40049e-03,4.31585e+01
2.42621e-03,4.14143e+01
2.45220e-03,3.97398e+01
2.47848e-03,3.81321e+01
2.50504e-03,3.65886e+01
2.53188e-03,3.51068e+01
2.55901e-03,3.36843e+01
2.58643e-03,3.23187e+01
2.61414e-03,3.10078e+01
2.64215e-03,2.97494e+01
2.67046e-03,2.85415e+01
2.69907e-03,2.73821e+01
2.72800e-03,2.62692e+01
2.75723e-03,2.52010e+01
2.78677e-03,2.41757e+01
2.81663e-03,2.31917e+01
2.84681e-03,2.22473e+01
2.87731e-03,2.13409e+01
2.90814e-03,2.04710e+01
2.93930e-03,1.96361e+01
2.97080e-03,1.88350e+01
3.00263e-03,1.80661e+01
3.03480e-03,1.73283e+01
3.06732e-03,1.66203e+01
3.10019e-03,1.59409e+01
3.13341e-03,1.52890e+01
3.16698e-03,1.46634e+01
3.20091e-03,1.40631e+01
3.23521e-03,1.34872e+01
3.26988e-03,1.29345e+01
3.30491e-03,1.24043e+01
3.34033e-03,1.18956e+01
3.37612e-03,1.14074e+01
3.41229e-03,1.09391e+01
3.44886e-03,1.04898e+01
3.48581e-03,1.00588e+01
3.52316e-03,9.64522e+00
3.56091e-03,9.24848e+00
3.59907e-03,8.86787e+00
3.63763e-03,8.50274e+00
3.67661e-03,8.15246e+00
3.71600e-03,7.81644e+00
3.75582e-03,7.49411e+00
3.79606e-03,7.18490e+00
3.83674e-03,6.88829e+00
3.87785e-03,6.60377e+00
3.91940e-03,6.33085e+00
3.96140e-03,6.06906e+00
4.00384e-03,5.81796e+00
4.04674e-03,5.57710e+00
4.09010e-03,5.34608e+00
4.13393e-03,5.12449e+00
4.17822e-03,4.91196e+00
4.22299e-03,4.70811e+00
4.26824e-03,4.51260e+00
4.31398e-03,4.32508e+00
4.36020e-03,4.14523e+00
4.40692e-03,3.97273e+00
4.45414e-03,3.80730e+00
4.50187e-03,3.64864e+00
4.55010e-03,3.49648e+00
4.59886e-03,3.35055e+00
4.64813e-03,3.21060e+00
4.69794e-03,3.07639e+00
4.74828e-03,2.94767e+00
4.79915e-03,2.82424e+00
4.85058e-03,2.70587e+00
4.90255e-03,2.59235e+00
4.95508e-03,2.48349e+00
5.00818e-03,2.37910e+00
5.06184e-03,2.27900e+00
5.11608e-03,2.18300e+00
5.17089e-03,2.09095e+00
5.22630e-03,2.00268e+00
5.28230e-03,1.91804e+00
5.33890e-03,1.83687e+00
5.39611e-03,1.75904e+00
5.45393e-03,1.68442e+00
5.51236e-03,1.61286e+00
5.57143e-03,1.54424e+00
5.63113e-03,1.47845e+00
5.69146e-03,1.41536e+00
5.75245e-03,1.35487e+00
5.81409e-03,1.29688e+00
5.87638e-03,1.24126e+00
5.93935e-03,1.18794e+00
6.00299e-03,1.13682e+00
6.06731e-03,1.08780e+00
6.13232e-03,1.04080e+00
6.19803e-03,9.95737e-01
6.26444e-03,9.52531e-01
6.33156e-03,9.11107e-01
6.39941e-03,8.71390e-01
6.46798e-03,8.33311e-01
6.53728e-03,7.96803e-01
6.60733e-03,7.61800e-01
6.67812e-03,7.28241e-01
6.74968e-03,6.96067e-01
6.82200e-03,6.65221e-01
6.89510e-03,6.35648e-01
6.96898e-03,6.07295e-01
7.04365e-03,5.80113e-01
7.11913e-03,5.54053e-01
7.19541e-03,5.29069e-01
7.27251e-03,5.05117e-01
7.35043e-03,4.82154e-01
7.42919e-03,4.60140e-01
7.50879e-03,4.39036e-01
7.58925e-03,4.18803e-01
7.67057e-03,3.99407e-01
7.75276e-03,3.80812e-01
7.83583e-03,3.62986e-01
7.91979e-03,3.45897e-01
8.00465e-03,3.29514e-01
8.09042e-03,3.13808e-01
8.17711e-03,2.98753e-01
8.26473e-03,2.84319e-01
8.35328e-03,2.70483e-01
8.44279e-03,2.57219e-01
8.53325e-03,2.44504e-01
8.62469e-03,2.32315e-01
8.71710e-03,2.20630e-01
8.81050e-03,2.09429e-01
8.90491e-03,1.98691e-01
9.00032e-03,1.88398e-01
9.09676e-03,1.78531e-01
9.19423e-03,1.69072e-01
9.29275e-03,1.60005e-01
9.39232e-03,1.51314e-01
9.49296e-03,1.42982e-01
9.59468e-03,1.34995e-01
9.69748e-03,1.27339e-01
9.80139e-03,1.20000e-01
9.90641e-03,1.12965e-01
1.00126e-02,1.06222e-01
1.01198e-02,9.97579e-02
1.02283e-02,9.35616e-02
1.03379e-02,8.76220e-02
1.04486e-02,8.19286e-02
1.05606e-02,7.64711e-02
1.06738e-02,7.12397e-02
1.07881e-02,6.62252e-02
1.09037e-02,6.14185e-02
1.10206e-02,5.68111e-02
1.11386e-02,5.23947e-02
1.12580e-02,4.81613e-02
1.13786e-02,4.41035e-02
1.15005e-02,4.02139e-02
1.16238e-02,3.64856e-02
1.17483e-02,3.29118e-02
1.18742e-02,2.94863e-02
1.20014e-02,2.62029e-02
1.21300e-02,2.30556e-02
1.22600e-02,2.00388e-02
1.23914e-02,1.71472e-02
1.25241e-02,1.43755e-02
1.26583e-02,1.17188e-02
1.27940e-02,9.17236e-03
1.29311e-02,6.73152e-03
1.30696e-02,4.39195e-03
1.32097e-02,2.14945e-03
1.33512e-02,0.00000e+00
