m1=504894.931, m2=4.565, gsp=2.346, rhosp=27.340
fGW[Hz],dPh[rad]
2.70218e-03,3.80283e+03
2.71812e-03,3.71864e+03
2.73415e-03,3.63629e+03
2.75028e-03,3.55574e+03
2.76650e-03,3.47695e+03
2.78282e-03,3.39988e+03
2.79923e-03,3.32449e+03
2.81574e-03,3.25076e+03
2.83235e-03,3.17863e+03
2.84905e-03,3.10808e+03
2.86586e-03,3.03907e+03
2.88276e-03,2.97156e+03
2.89976e-03,2.90554e+03
2.91687e-03,2.84095e+03
2.93407e-03,2.77778e+03
2.95138e-03,2.71599e+03
2.96878e-03,2.65555e+03
2.98629e-03,2.59643e+03
3.00391e-03,2.53860e+03
3.02162e-03,2.48203e+03
3.03945e-03,2.42671e+03
3.05737e-03,2.37259e+03
3.07541e-03,2.31965e+03
3.09355e-03,2.26787e+03
3.11179e-03,2.21723e+03
3.13015e-03,2.16769e+03
3.14861e-03,2.11923e+03
3.16718e-03,2.07183e+03
3.18586e-03,2.02547e+03
3.20465e-03,1.98012e+03
3.22355e-03,1.93577e+03
3.24256e-03,1.89238e+03
3.26169e-03,1.84994e+03
3.28093e-03,1.80843e+03
3.30028e-03,1.76783e+03
3.31974e-03,1.72812e+03
3.33932e-03,1.68927e+03
3.35902e-03,1.65127e+03
3.37883e-03,1.61411e+03
3.39876e-03,1.57776e+03
3.41881e-03,1.54220e+03
3.43897e-03,1.50742e+03
3.45926e-03,1.47340e+03
3.47966e-03,1.44012e+03
3.50018e-03,1.40758e+03
3.52083e-03,1.37574e+03
3.54159e-03,1.34460e+03
3.56248e-03,1.31414e+03
3.58349e-03,1.28435e+03
3.60463e-03,1.25521e+03
3.62589e-03,1.22670e+03
3.64728e-03,1.19882e+03
3.66879e-03,1.17155e+03
3.69043e-03,1.14488e+03
3.71219e-03,1.11879e+03
3.73409e-03,1.09327e+03
3.75611e-03,1.06831e+03
3.77827e-03,1.04390e+03
3.80055e-03,1.02002e+03
3.82297e-03,9.96658e+02
3.84552e-03,9.73811e+02
3.86820e-03,9.51463e+02
3.89101e-03,9.29605e+02
3.91396e-03,9.08225e+02
3.93705e-03,8.87313e+02
3.96027e-03,8.66858e+02
3.98363e-03,8.46851e+02
4.00712e-03,8.27281e+02
4.03076e-03,8.08140e+02
4.05453e-03,7.89418e+02
4.07845e-03,7.71105e+02
4.10250e-03,7.53193e+02
4.12670e-03,7.35673e+02
4.15104e-03,7.18537e+02
4.17552e-03,7.01775e+02
4.20015e-03,6.85381e+02
4.22492e-03,6.69345e+02
4.24984e-03,6.53660e+02
4.27491e-03,6.38318e+02
4.30012e-03,6.23312e+02
4.32549e-03,6.08635e+02
4.35100e-03,5.94278e+02
4.37666e-03,5.80236e+02
4.40247e-03,5.66502e+02
4.42844e-03,5.53067e+02
4.45456e-03,5.39927e+02
4.48083e-03,5.27075e+02
4.50726e-03,5.14504e+02
4.53385e-03,5.02208e+02
4.56059e-03,4.90181e+02
4.58749e-03,4.78418e+02
4.61454e-03,4.66912e+02
4.64176e-03,4.55657e+02
4.66914e-03,4.44650e+02
4.69668e-03,4.33883e+02
4.72438e-03,4.23352e+02
4.75225e-03,4.13051e+02
4.78028e-03,4.02976e+02
4.80847e-03,3.93121e+02
4.83683e-03,3.83483e+02
4.86536e-03,3.74055e+02
4.89406e-03,3.64833e+02
4.92292e-03,3.55814e+02
4.95196e-03,3.46992e+02
4.98117e-03,3.38363e+02
5.01054e-03,3.29923e+02
5.04010e-03,3.21668e+02
5.06983e-03,3.13593e+02
5.09973e-03,3.05696e+02
5.12981e-03,2.97971e+02
5.16006e-03,2.90416e+02
5.19050e-03,2.83025e+02
5.22111e-03,2.75797e+02
5.25191e-03,2.68727e+02
5.28288e-03,2.61812e+02
5.31404e-03,2.55048e+02
5.34539e-03,2.48432e+02
5.37691e-03,2.41961e+02
5.40863e-03,2.35632e+02
5.44053e-03,2.29442e+02
5.47262e-03,2.23387e+02
5.50490e-03,2.17464e+02
5.53736e-03,2.11672e+02
5.57002e-03,2.06006e+02
5.60288e-03,2.00464e+02
5.63592e-03,1.95043e+02
5.66916e-03,1.89742e+02
5.70260e-03,1.84556e+02
5.73624e-03,1.79484e+02
5.77007e-03,1.74523e+02
5.80410e-03,1.69671e+02
5.83834e-03,1.64925e+02
5.87277e-03,1.60283e+02
5.90741e-03,1.55742e+02
5.94225e-03,1.51301e+02
5.97730e-03,1.46957e+02
6.01256e-03,1.42709e+02
6.04802e-03,1.38553e+02
6.08369e-03,1.34489e+02
6.11957e-03,1.30513e+02
6.15567e-03,1.26625e+02
6.19197e-03,1.22821e+02
6.22850e-03,1.19101e+02
6.26523e-03,1.15463e+02
6.30219e-03,1.11904e+02
6.33936e-03,1.08423e+02
6.37675e-03,1.05019e+02
6.41436e-03,1.01689e+02
6.45219e-03,9.84314e+01
6.49025e-03,9.52457e+01
6.52853e-03,9.21297e+01
6.56703e-03,8.90820e+01
6.60577e-03,8.61010e+01
6.64473e-03,8.31854e+01
6.68392e-03,8.03336e+01
6.72334e-03,7.75442e+01
6.76300e-03,7.48160e+01
6.80289e-03,7.21475e+01
6.84301e-03,6.95375e+01
6.88337e-03,6.69847e+01
6.92397e-03,6.44878e+01
6.96481e-03,6.20456e+01
7.00589e-03,5.96568e+01
7.04721e-03,5.73204e+01
7.08878e-03,5.50352e+01
7.13059e-03,5.28001e+01
7.17265e-03,5.06139e+01
7.21495e-03,4.84756e+01
7.25751e-03,4.63842e+01
7.30031e-03,4.43386e+01
7.34337e-03,4.23377e+01
7.38668e-03,4.03808e+01
7.43025e-03,3.84667e+01
7.47407e-03,3.65945e+01
7.51816e-03,3.47633e+01
7.56250e-03,3.29723e+01
7.60710e-03,3.12205e+01
7.65197e-03,2.95071e+01
7.69711e-03,2.78312e+01
7.74250e-03,2.61920e+01
7.78817e-03,2.45888e+01
7.83411e-03,2.30207e+01
7.88031e-03,2.14869e+01
7.92679e-03,1.99867e+01
7.97355e-03,1.85194e+01
8.02057e-03,1.70843e+01
8.06788e-03,1.56806e+01
8.11547e-03,1.43076e+01
8.16333e-03,1.29647e+01
8.21148e-03,1.16513e+01
8.25991e-03,1.03666e+01
8.30863e-03,9.11010e+00
8.35764e-03,7.88111e+00
8.40693e-03,6.67904e+00
8.45652e-03,5.50332e+00
8.50639e-03,4.35335e+00
8.55657e-03,3.22858e+00
8.60703e-03,2.12846e+00
8.65780e-03,1.05244e+00
8.70886e-03,0.00000e+00
