m1=10041.584, m2=7.212, gsp=2.490, rhosp=985.871
fGW[Hz],dPh[rad]
6.06221e-03,8.42056e+05
6.19401e-03,8.04105e+05
6.32868e-03,7.67806e+05
6.46628e-03,7.33086e+05
6.60687e-03,6.99881e+05
6.75051e-03,6.68124e+05
6.89728e-03,6.37753e+05
7.04724e-03,6.08711e+05
7.20046e-03,5.80940e+05
7.35701e-03,5.54385e+05
7.51696e-03,5.28995e+05
7.68039e-03,5.04720e+05
7.84738e-03,4.81512e+05
8.01799e-03,4.59325e+05
8.19232e-03,4.38117e+05
8.37043e-03,4.17844e+05
8.55242e-03,3.98467e+05
8.73836e-03,3.79948e+05
8.92835e-03,3.62249e+05
9.12247e-03,3.45336e+05
9.32081e-03,3.29174e+05
9.52346e-03,3.13732e+05
9.73051e-03,2.98978e+05
9.94207e-03,2.84883e+05
1.01582e-02,2.71418e+05
1.03791e-02,2.58557e+05
1.06047e-02,2.46272e+05
1.08353e-02,2.34541e+05
1.10709e-02,2.23337e+05
1.13116e-02,2.12639e+05
1.15575e-02,2.02425e+05
1.18088e-02,1.92674e+05
1.20655e-02,1.83365e+05
1.23279e-02,1.74480e+05
1.25959e-02,1.66000e+05
1.28698e-02,1.57908e+05
1.31496e-02,1.50186e+05
1.34355e-02,1.42819e+05
1.37276e-02,1.35791e+05
1.40260e-02,1.29086e+05
1.43310e-02,1.22692e+05
1.46426e-02,1.16595e+05
1.49609e-02,1.10780e+05
1.52862e-02,1.05237e+05
1.56185e-02,9.99531e+04
1.59581e-02,9.49165e+04
1.63051e-02,9.01167e+04
1.66596e-02,8.55432e+04
1.70218e-02,8.11859e+04
1.73919e-02,7.70352e+04
1.77700e-02,7.30820e+04
1.81563e-02,6.93174e+04
1.85511e-02,6.57331e+04
1.89544e-02,6.23210e+04
1.93665e-02,5.90734e+04
1.97876e-02,5.59828e+04
2.02178e-02,5.30423e+04
2.06574e-02,5.02450e+04
2.11065e-02,4.75844e+04
2.15654e-02,4.50544e+04
2.20343e-02,4.26491e+04
2.25133e-02,4.03626e+04
2.30028e-02,3.81897e+04
2.35029e-02,3.61251e+04
2.40139e-02,3.41638e+04
2.45360e-02,3.23010e+04
2.50695e-02,3.05322e+04
2.56145e-02,2.88530e+04
2.61714e-02,2.72593e+04
2.67404e-02,2.57470e+04
2.73218e-02,2.43124e+04
2.79158e-02,2.29517e+04
2.85228e-02,2.16615e+04
2.91429e-02,2.04384e+04
2.97765e-02,1.92792e+04
3.04239e-02,1.81809e+04
3.10854e-02,1.71405e+04
3.17612e-02,1.61553e+04
3.24518e-02,1.52225e+04
3.31573e-02,1.43397e+04
3.38782e-02,1.35043e+04
3.46148e-02,1.27141e+04
3.53674e-02,1.19668e+04
3.61363e-02,1.12602e+04
3.69220e-02,1.05924e+04
3.77248e-02,9.96146e+03
3.85450e-02,9.36543e+03
3.93830e-02,8.80258e+03
4.02392e-02,8.27122e+03
4.11141e-02,7.76974e+03
4.20080e-02,7.29661e+03
4.29213e-02,6.85035e+03
4.38545e-02,6.42957e+03
4.48080e-02,6.03294e+03
4.57822e-02,5.65919e+03
4.67776e-02,5.30710e+03
4.77946e-02,4.97552e+03
4.88337e-02,4.66336e+03
4.98955e-02,4.36957e+03
5.09803e-02,4.09315e+03
5.20887e-02,3.83317e+03
5.32212e-02,3.58871e+03
5.43783e-02,3.35893e+03
5.55606e-02,3.14301e+03
5.67685e-02,2.94018e+03
5.80028e-02,2.74970e+03
5.92639e-02,2.57088e+03
6.05524e-02,2.40306e+03
6.18689e-02,2.24560e+03
6.32140e-02,2.09792e+03
6.45884e-02,1.95945e+03
6.59926e-02,1.82965e+03
6.74274e-02,1.70802e+03
6.88934e-02,1.59408e+03
7.03913e-02,1.48737e+03
7.19217e-02,1.38746e+03
7.34854e-02,1.29395e+03
7.50831e-02,1.20646e+03
7.67156e-02,1.12461e+03
7.83835e-02,1.04807e+03
8.00877e-02,9.76519e+02
8.18289e-02,9.09640e+02
8.36080e-02,8.47149e+02
8.54258e-02,7.88774e+02
8.72831e-02,7.34259e+02
8.91808e-02,6.83361e+02
9.11197e-02,6.35854e+02
9.31008e-02,5.91522e+02
9.51250e-02,5.50163e+02
9.71932e-02,5.11589e+02
9.93063e-02,4.75619e+02
1.01465e-01,4.42086e+02
1.03671e-01,4.10833e+02
1.05925e-01,3.81711e+02
1.08228e-01,3.54581e+02
1.10582e-01,3.29312e+02
1.12986e-01,3.05782e+02
1.15442e-01,2.83875e+02
1.17952e-01,2.63485e+02
1.20517e-01,2.44509e+02
1.23137e-01,2.26854e+02
1.25814e-01,2.10430e+02
1.28549e-01,1.95155e+02
1.31344e-01,1.80952e+02
1.34200e-01,1.67746e+02
1.37118e-01,1.55471e+02
1.40099e-01,1.44062e+02
1.43145e-01,1.33461e+02
1.46257e-01,1.23612e+02
1.49437e-01,1.14463e+02
1.52686e-01,1.05965e+02
1.56006e-01,9.80744e+01
1.59398e-01,9.07476e+01
1.62863e-01,8.39458e+01
1.66404e-01,7.76323e+01
1.70022e-01,7.17727e+01
1.73718e-01,6.63352e+01
1.77495e-01,6.12900e+01
1.81354e-01,5.66095e+01
1.85297e-01,5.22678e+01
1.89326e-01,4.82409e+01
1.93442e-01,4.45064e+01
1.97648e-01,4.10435e+01
2.01945e-01,3.78328e+01
2.06336e-01,3.48561e+01
2.10822e-01,3.20969e+01
2.15406e-01,2.95394e+01
2.20089e-01,2.71691e+01
2.24874e-01,2.49726e+01
2.29763e-01,2.29372e+01
2.34759e-01,2.10514e+01
2.39863e-01,1.93043e+01
2.45078e-01,1.76858e+01
2.50406e-01,1.61866e+01
2.55850e-01,1.47981e+01
2.61413e-01,1.35120e+01
2.67097e-01,1.23211e+01
2.72904e-01,1.12182e+01
2.78837e-01,1.01971e+01
2.84900e-01,9.25160e+00
2.91094e-01,8.37625e+00
2.97423e-01,7.56590e+00
3.03889e-01,6.81575e+00
3.10496e-01,6.12137e+00
3.17247e-01,5.47867e+00
3.24144e-01,4.88382e+00
3.31192e-01,4.33329e+00
3.38393e-01,3.82382e+00
3.45750e-01,3.35235e+00
3.53267e-01,2.91608e+00
3.60948e-01,2.51240e+00
3.68795e-01,2.13889e+00
3.76813e-01,1.79332e+00
3.85006e-01,1.47360e+00
3.93377e-01,1.17781e+00
4.01929e-01,9.04185e-01
4.10668e-01,6.51062e-01
4.19597e-01,4.16915e-01
4.28719e-01,2.00331e-01
4.38040e-01,0.00000e+00
