m1=1342.339, m2=52.158, gsp=2.135, rhosp=12.550
fGW[Hz],dPh[rad]
4.79643e-03,1.10918e+01
4.95682e-03,1.03027e+01
5.12256e-03,9.56968e+00
5.29386e-03,8.88882e+00
5.47088e-03,8.25640e+00
5.65382e-03,7.66897e+00
5.84287e-03,7.12333e+00
6.03825e-03,6.61650e+00
6.24016e-03,6.14572e+00
6.44882e-03,5.70844e+00
6.66446e-03,5.30227e+00
6.88731e-03,4.92499e+00
7.11762e-03,4.57454e+00
7.35562e-03,4.24903e+00
7.60158e-03,3.94668e+00
7.85577e-03,3.66584e+00
8.11846e-03,3.40497e+00
8.38993e-03,3.16267e+00
8.67048e-03,2.93760e+00
8.96040e-03,2.72854e+00
9.26003e-03,2.53436e+00
9.56967e-03,2.35399e+00
9.88967e-03,2.18646e+00
1.02204e-02,2.03084e+00
1.05621e-02,1.88630e+00
1.09153e-02,1.75204e+00
1.12803e-02,1.62733e+00
1.16575e-02,1.51149e+00
1.20473e-02,1.40390e+00
1.24502e-02,1.30396e+00
1.28665e-02,1.21113e+00
1.32967e-02,1.12491e+00
1.37413e-02,1.04482e+00
1.42008e-02,9.70432e-01
1.46757e-02,9.01336e-01
1.51664e-02,8.37157e-01
1.56736e-02,7.77544e-01
1.61977e-02,7.22174e-01
1.67393e-02,6.70743e-01
1.72990e-02,6.22973e-01
1.78775e-02,5.78602e-01
1.84753e-02,5.37389e-01
1.90931e-02,4.99109e-01
1.97315e-02,4.63553e-01
2.03913e-02,4.30528e-01
2.10732e-02,3.99853e-01
2.17778e-02,3.71362e-01
2.25061e-02,3.44898e-01
2.32586e-02,3.20318e-01
2.40364e-02,2.97488e-01
2.48401e-02,2.76283e-01
2.56707e-02,2.56587e-01
2.65291e-02,2.38294e-01
2.74162e-02,2.21303e-01
2.83330e-02,2.05522e-01
2.92804e-02,1.90864e-01
3.02595e-02,1.77250e-01
3.12714e-02,1.64605e-01
3.23170e-02,1.52861e-01
3.33977e-02,1.41953e-01
3.45144e-02,1.31822e-01
3.56686e-02,1.22413e-01
3.68613e-02,1.13674e-01
3.80939e-02,1.05557e-01
3.93677e-02,9.80182e-02
4.06841e-02,9.10168e-02
4.20445e-02,8.45142e-02
4.34504e-02,7.84749e-02
4.49033e-02,7.28659e-02
4.64048e-02,6.76567e-02
4.79566e-02,6.28188e-02
4.95602e-02,5.83257e-02
5.12174e-02,5.41529e-02
5.29300e-02,5.02776e-02
5.47000e-02,4.66786e-02
5.65290e-02,4.33363e-02
5.84193e-02,4.02324e-02
6.03728e-02,3.73498e-02
6.23916e-02,3.46729e-02
6.44778e-02,3.21870e-02
6.66339e-02,2.98785e-02
6.88620e-02,2.77347e-02
7.11647e-02,2.57440e-02
7.35444e-02,2.38954e-02
7.60036e-02,2.21788e-02
7.85450e-02,2.05848e-02
8.11715e-02,1.91047e-02
8.38858e-02,1.77303e-02
8.66908e-02,1.64542e-02
8.95896e-02,1.52693e-02
9.25854e-02,1.41691e-02
9.56813e-02,1.31476e-02
9.88808e-02,1.21991e-02
1.02187e-01,1.13186e-02
1.05604e-01,1.05011e-02
1.09135e-01,9.74205e-03
1.12785e-01,9.03742e-03
1.16556e-01,8.38327e-03
1.20454e-01,7.77600e-03
1.24481e-01,7.21227e-03
1.28644e-01,6.68898e-03
1.32946e-01,6.20324e-03
1.37391e-01,5.75236e-03
1.41985e-01,5.33387e-03
1.46733e-01,4.94544e-03
1.51640e-01,4.58494e-03
1.56710e-01,4.25036e-03
1.61951e-01,3.93986e-03
1.67366e-01,3.65171e-03
1.72962e-01,3.38432e-03
1.78746e-01,3.13621e-03
1.84723e-01,2.90599e-03
1.90900e-01,2.69239e-03
1.97284e-01,2.49422e-03
2.03880e-01,2.31037e-03
2.10698e-01,2.13982e-03
2.17743e-01,1.98161e-03
2.25024e-01,1.83487e-03
2.32549e-01,1.69877e-03
2.40325e-01,1.57254e-03
2.48361e-01,1.45549e-03
2.56666e-01,1.34695e-03
2.65249e-01,1.24631e-03
2.74118e-01,1.15300e-03
2.83284e-01,1.06650e-03
2.92757e-01,9.86319e-04
3.02546e-01,9.12001e-04
3.12663e-01,8.43125e-04
3.23118e-01,7.79299e-04
3.33923e-01,7.20159e-04
3.45089e-01,6.65368e-04
3.56628e-01,6.14611e-04
3.68553e-01,5.67599e-04
3.80877e-01,5.24060e-04
3.93613e-01,4.83743e-04
4.06775e-01,4.46415e-04
4.20377e-01,4.11859e-04
4.34434e-01,3.79876e-04
4.48961e-01,3.50278e-04
4.63974e-01,3.22891e-04
4.79488e-01,2.97556e-04
4.95522e-01,2.74123e-04
5.12091e-01,2.52453e-04
5.29215e-01,2.32417e-04
5.46911e-01,2.13897e-04
5.65199e-01,1.96782e-04
5.84099e-01,1.80967e-04
6.03630e-01,1.66359e-04
6.23815e-01,1.52868e-04
6.44675e-01,1.40412e-04
6.66232e-01,1.28915e-04
6.88510e-01,1.18306e-04
7.11532e-01,1.08519e-04
7.35325e-01,9.94928e-05
7.59913e-01,9.11715e-05
7.85324e-01,8.35022e-05
8.11584e-01,7.64362e-05
8.38722e-01,6.99284e-05
8.66768e-01,6.39369e-05
8.95752e-01,5.84226e-05
9.25705e-01,5.33496e-05
9.56659e-01,4.86845e-05
9.88648e-01,4.43962e-05
1.02171e+00,4.04559e-05
1.05587e+00,3.68371e-05
1.09118e+00,3.35151e-05
1.12767e+00,3.04668e-05
1.16537e+00,2.76712e-05
1.20434e+00,2.51085e-05
1.24461e+00,2.27607e-05
1.28623e+00,2.06107e-05
1.32924e+00,1.86430e-05
1.37369e+00,1.68431e-05
1.41963e+00,1.51977e-05
1.46710e+00,1.36944e-05
1.51615e+00,1.23217e-05
1.56685e+00,1.10690e-05
1.61924e+00,9.92664e-06
1.67339e+00,8.88547e-06
1.72935e+00,7.93716e-06
1.78717e+00,7.07400e-06
1.84693e+00,6.28886e-06
1.90869e+00,5.57518e-06
1.97252e+00,4.92689e-06
2.03848e+00,4.33842e-06
2.10664e+00,3.80461e-06
2.17708e+00,3.32073e-06
2.24988e+00,2.88243e-06
2.32511e+00,2.48569e-06
2.40286e+00,2.12683e-06
2.48321e+00,1.80248e-06
2.56625e+00,1.50951e-06
2.65206e+00,1.24509e-06
2.74074e+00,1.00662e-06
2.83239e+00,7.91684e-07
2.92710e+00,5.98115e-07
3.02498e+00,4.23910e-07
3.12613e+00,2.67242e-07
3.23066e+00,1.26445e-07
3.33869e+00,0.00000e+00
