m1=79238.458, m2=19.344, gsp=2.377, rhosp=5876.164
fGW[Hz],dPh[rad]
2.49823e-03,1.41004e+05
2.53746e-03,1.34956e+05
2.57731e-03,1.29149e+05
2.61778e-03,1.23574e+05
2.65889e-03,1.18224e+05
2.70065e-03,1.13088e+05
2.74306e-03,1.08160e+05
2.78613e-03,1.03432e+05
2.82989e-03,9.88957e+04
2.87433e-03,9.45449e+04
2.91946e-03,9.03723e+04
2.96531e-03,8.63712e+04
3.01188e-03,8.25352e+04
3.05918e-03,7.88579e+04
3.10722e-03,7.53334e+04
3.15601e-03,7.19558e+04
3.20557e-03,6.87195e+04
3.25591e-03,6.56191e+04
3.30704e-03,6.26493e+04
3.35897e-03,5.98051e+04
3.41172e-03,5.70816e+04
3.46530e-03,5.44741e+04
3.51972e-03,5.19780e+04
3.57499e-03,4.95890e+04
3.63113e-03,4.73029e+04
3.68815e-03,4.51155e+04
3.74607e-03,4.30229e+04
3.80490e-03,4.10214e+04
3.86465e-03,3.91073e+04
3.92534e-03,3.72770e+04
3.98698e-03,3.55273e+04
4.04959e-03,3.38548e+04
4.11319e-03,3.22563e+04
4.17778e-03,3.07289e+04
4.24339e-03,2.92697e+04
4.31002e-03,2.78757e+04
4.37771e-03,2.65444e+04
4.44645e-03,2.52730e+04
4.51628e-03,2.40592e+04
4.58720e-03,2.29005e+04
4.65924e-03,2.17945e+04
4.73241e-03,2.07390e+04
4.80672e-03,1.97320e+04
4.88221e-03,1.87713e+04
4.95888e-03,1.78549e+04
5.03675e-03,1.69810e+04
5.11584e-03,1.61477e+04
5.19618e-03,1.53532e+04
5.27778e-03,1.45959e+04
5.36066e-03,1.38742e+04
5.44485e-03,1.31864e+04
5.53035e-03,1.25310e+04
5.61720e-03,1.19068e+04
5.70541e-03,1.13122e+04
5.79501e-03,1.07459e+04
5.88601e-03,1.02067e+04
5.97844e-03,9.69339e+03
6.07232e-03,9.20475e+03
6.16768e-03,8.73969e+03
6.26454e-03,8.29714e+03
6.36292e-03,7.87606e+03
6.46284e-03,7.47547e+03
6.56433e-03,7.09443e+03
6.66741e-03,6.73205e+03
6.77212e-03,6.38745e+03
6.87846e-03,6.05981e+03
6.98648e-03,5.74834e+03
7.09620e-03,5.45228e+03
7.20763e-03,5.17091e+03
7.32082e-03,4.90354e+03
7.43578e-03,4.64949e+03
7.55255e-03,4.40815e+03
7.67116e-03,4.17891e+03
7.79162e-03,3.96119e+03
7.91398e-03,3.75443e+03
8.03826e-03,3.55811e+03
8.16449e-03,3.37172e+03
8.29270e-03,3.19479e+03
8.42293e-03,3.02686e+03
8.55520e-03,2.86748e+03
8.68955e-03,2.71624e+03
8.82601e-03,2.57274e+03
8.96461e-03,2.43661e+03
9.10539e-03,2.30747e+03
9.24838e-03,2.18498e+03
9.39361e-03,2.06881e+03
9.54113e-03,1.95865e+03
9.69096e-03,1.85420e+03
9.84314e-03,1.75517e+03
9.99772e-03,1.66130e+03
1.01547e-02,1.57231e+03
1.03142e-02,1.48797e+03
1.04762e-02,1.40805e+03
1.06407e-02,1.33231e+03
1.08078e-02,1.26055e+03
1.09775e-02,1.19256e+03
1.11499e-02,1.12815e+03
1.13250e-02,1.06714e+03
1.15028e-02,1.00935e+03
1.16835e-02,9.54623e+02
1.18669e-02,9.02796e+02
1.20533e-02,8.53720e+02
1.22426e-02,8.07253e+02
1.24348e-02,7.63261e+02
1.26301e-02,7.21615e+02
1.28284e-02,6.82192e+02
1.30299e-02,6.44878e+02
1.32345e-02,6.09561e+02
1.34423e-02,5.76139e+02
1.36534e-02,5.44510e+02
1.38679e-02,5.14582e+02
1.40856e-02,4.86264e+02
1.43068e-02,4.59473e+02
1.45315e-02,4.34127e+02
1.47597e-02,4.10150e+02
1.49915e-02,3.87469e+02
1.52269e-02,3.66017e+02
1.54660e-02,3.45727e+02
1.57089e-02,3.26538e+02
1.59556e-02,3.08392e+02
1.62061e-02,2.91232e+02
1.64606e-02,2.75005e+02
1.67191e-02,2.59663e+02
1.69817e-02,2.45158e+02
1.72484e-02,2.31444e+02
1.75192e-02,2.18479e+02
1.77944e-02,2.06224e+02
1.80738e-02,1.94639e+02
1.83576e-02,1.83689e+02
1.86459e-02,1.73339e+02
1.89387e-02,1.63556e+02
1.92361e-02,1.54312e+02
1.95382e-02,1.45575e+02
1.98450e-02,1.37318e+02
2.01567e-02,1.29517e+02
2.04732e-02,1.22144e+02
2.07947e-02,1.15179e+02
2.11213e-02,1.08597e+02
2.14529e-02,1.02379e+02
2.17898e-02,9.65039e+01
2.21320e-02,9.09538e+01
2.24796e-02,8.57106e+01
2.28326e-02,8.07576e+01
2.31911e-02,7.60788e+01
2.35553e-02,7.16593e+01
2.39252e-02,6.74848e+01
2.43010e-02,6.35419e+01
2.46826e-02,5.98178e+01
2.50702e-02,5.63005e+01
2.54639e-02,5.29786e+01
2.58638e-02,4.98414e+01
2.62699e-02,4.68787e+01
2.66825e-02,4.40808e+01
2.71015e-02,4.14387e+01
2.75271e-02,3.89438e+01
2.79593e-02,3.65879e+01
2.83984e-02,3.43633e+01
2.88444e-02,3.22628e+01
2.92973e-02,3.02795e+01
2.97574e-02,2.84069e+01
3.02247e-02,2.66389e+01
3.06994e-02,2.49696e+01
3.11815e-02,2.33936e+01
3.16711e-02,2.19058e+01
3.21685e-02,2.05011e+01
3.26736e-02,1.91751e+01
3.31867e-02,1.79232e+01
3.37079e-02,1.67414e+01
3.42372e-02,1.56259e+01
3.47749e-02,1.45728e+01
3.53210e-02,1.35787e+01
3.58757e-02,1.26404e+01
3.64390e-02,1.17547e+01
3.70113e-02,1.09186e+01
3.75925e-02,1.01295e+01
3.81828e-02,9.38467e+00
3.87824e-02,8.68165e+00
3.93915e-02,8.01810e+00
4.00101e-02,7.39182e+00
4.06384e-02,6.80073e+00
4.12766e-02,6.24286e+00
4.19248e-02,5.71634e+00
4.25831e-02,5.21943e+00
4.32518e-02,4.75046e+00
4.39311e-02,4.30787e+00
4.46209e-02,3.89018e+00
4.53217e-02,3.49600e+00
4.60334e-02,3.12400e+00
4.67563e-02,2.77294e+00
4.74905e-02,2.44165e+00
4.82363e-02,2.12902e+00
4.89938e-02,1.83400e+00
4.97632e-02,1.55560e+00
5.05447e-02,1.29289e+00
5.13384e-02,1.04498e+00
5.21446e-02,8.11052e-01
5.29635e-02,5.90309e-01
5.37952e-02,3.82012e-01
5.46400e-02,1.85463e-01
5.54980e-02,0.00000e+00
