m1=6025.029, m2=17.873, gsp=2.406, rhosp=485.364
fGW[Hz],dPh[rad]
4.90239e-03,4.62336e+04
5.02724e-03,4.38708e+04
5.15527e-03,4.16278e+04
5.28656e-03,3.94987e+04
5.42120e-03,3.74777e+04
5.55926e-03,3.55593e+04
5.70084e-03,3.37384e+04
5.84602e-03,3.20099e+04
5.99490e-03,3.03692e+04
6.14758e-03,2.88119e+04
6.30414e-03,2.73337e+04
6.46469e-03,2.59306e+04
6.62933e-03,2.45989e+04
6.79816e-03,2.33349e+04
6.97129e-03,2.21352e+04
7.14883e-03,2.09966e+04
7.33089e-03,1.99158e+04
7.51759e-03,1.88901e+04
7.70904e-03,1.79166e+04
7.90537e-03,1.69927e+04
8.10669e-03,1.61158e+04
8.31315e-03,1.52837e+04
8.52486e-03,1.44939e+04
8.74197e-03,1.37444e+04
8.96460e-03,1.30331e+04
9.19290e-03,1.23582e+04
9.42702e-03,1.17176e+04
9.66710e-03,1.11098e+04
9.91330e-03,1.05330e+04
1.01658e-02,9.98573e+03
1.04247e-02,9.46639e+03
1.06901e-02,8.97362e+03
1.09624e-02,8.50605e+03
1.12416e-02,8.06242e+03
1.15279e-02,7.64150e+03
1.18214e-02,7.24215e+03
1.21225e-02,6.86327e+03
1.24312e-02,6.50381e+03
1.27478e-02,6.16280e+03
1.30725e-02,5.83930e+03
1.34054e-02,5.53242e+03
1.37468e-02,5.24130e+03
1.40969e-02,4.96516e+03
1.44559e-02,4.70323e+03
1.48240e-02,4.45479e+03
1.52016e-02,4.21916e+03
1.55887e-02,3.99567e+03
1.59857e-02,3.78372e+03
1.63928e-02,3.58271e+03
1.68103e-02,3.39209e+03
1.72384e-02,3.21133e+03
1.76774e-02,3.03993e+03
1.81276e-02,2.87742e+03
1.85893e-02,2.72333e+03
1.90627e-02,2.57724e+03
1.95482e-02,2.43874e+03
2.00460e-02,2.30744e+03
2.05565e-02,2.18298e+03
2.10801e-02,2.06501e+03
2.16169e-02,1.95320e+03
2.21674e-02,1.84722e+03
2.27320e-02,1.74679e+03
2.33109e-02,1.65162e+03
2.39046e-02,1.56144e+03
2.45133e-02,1.47599e+03
2.51376e-02,1.39503e+03
2.57778e-02,1.31834e+03
2.64343e-02,1.24569e+03
2.71075e-02,1.17688e+03
2.77979e-02,1.11170e+03
2.85058e-02,1.04998e+03
2.92318e-02,9.91532e+02
2.99762e-02,9.36190e+02
3.07396e-02,8.83795e+02
3.15225e-02,8.34194e+02
3.23253e-02,7.87243e+02
3.31485e-02,7.42806e+02
3.39927e-02,7.00752e+02
3.48584e-02,6.60959e+02
3.57462e-02,6.23309e+02
3.66565e-02,5.87692e+02
3.75901e-02,5.54002e+02
3.85474e-02,5.22139e+02
3.95291e-02,4.92007e+02
4.05358e-02,4.63518e+02
4.15681e-02,4.36585e+02
4.26267e-02,4.11127e+02
4.37123e-02,3.87067e+02
4.48256e-02,3.64332e+02
4.59671e-02,3.42853e+02
4.71378e-02,3.22563e+02
4.83383e-02,3.03400e+02
4.95693e-02,2.85305e+02
5.08317e-02,2.68222e+02
5.21262e-02,2.52096e+02
5.34538e-02,2.36878e+02
5.48151e-02,2.22519e+02
5.62111e-02,2.08973e+02
5.76426e-02,1.96197e+02
5.91106e-02,1.84150e+02
6.06160e-02,1.72793e+02
6.21597e-02,1.62089e+02
6.37427e-02,1.52003e+02
6.53661e-02,1.42501e+02
6.70308e-02,1.33553e+02
6.87379e-02,1.25127e+02
7.04884e-02,1.17195e+02
7.22836e-02,1.09731e+02
7.41245e-02,1.02708e+02
7.60122e-02,9.61035e+01
7.79480e-02,8.98932e+01
7.99331e-02,8.40556e+01
8.19688e-02,7.85700e+01
8.40563e-02,7.34168e+01
8.61970e-02,6.85773e+01
8.83922e-02,6.40340e+01
9.06433e-02,5.97701e+01
9.29518e-02,5.57697e+01
9.53190e-02,5.20180e+01
9.77465e-02,4.85006e+01
1.00236e-01,4.52040e+01
1.02789e-01,4.21156e+01
1.05406e-01,3.92233e+01
1.08091e-01,3.65155e+01
1.10843e-01,3.39815e+01
1.13666e-01,3.16111e+01
1.16561e-01,2.93944e+01
1.19530e-01,2.73225e+01
1.22574e-01,2.53865e+01
1.25695e-01,2.35784e+01
1.28896e-01,2.18902e+01
1.32179e-01,2.03148e+01
1.35545e-01,1.88452e+01
1.38997e-01,1.74748e+01
1.42537e-01,1.61975e+01
1.46167e-01,1.50075e+01
1.49890e-01,1.38992e+01
1.53707e-01,1.28675e+01
1.57621e-01,1.19076e+01
1.61636e-01,1.10147e+01
1.65752e-01,1.01846e+01
1.69973e-01,9.41315e+00
1.74302e-01,8.69656e+00
1.78741e-01,8.03120e+00
1.83293e-01,7.41366e+00
1.87961e-01,6.84076e+00
1.92748e-01,6.30948e+00
1.97657e-01,5.81702e+00
2.02690e-01,5.36073e+00
2.07852e-01,4.93813e+00
2.13146e-01,4.54689e+00
2.18574e-01,4.18484e+00
2.24141e-01,3.84993e+00
2.29849e-01,3.54025e+00
2.35702e-01,3.25403e+00
2.41705e-01,2.98957e+00
2.47861e-01,2.74534e+00
2.54173e-01,2.51986e+00
2.60646e-01,2.31177e+00
2.67284e-01,2.11981e+00
2.74091e-01,1.94280e+00
2.81071e-01,1.77961e+00
2.88229e-01,1.62924e+00
2.95570e-01,1.49073e+00
3.03097e-01,1.36317e+00
3.10816e-01,1.24575e+00
3.18732e-01,1.13770e+00
3.26849e-01,1.03829e+00
3.35173e-01,9.46878e-01
3.43709e-01,8.62834e-01
3.52462e-01,7.85592e-01
3.61439e-01,7.14622e-01
3.70643e-01,6.49433e-01
3.80083e-01,5.89572e-01
3.89762e-01,5.34619e-01
3.99688e-01,4.84186e-01
4.09867e-01,4.37912e-01
4.20306e-01,3.95465e-01
4.31010e-01,3.56539e-01
4.41986e-01,3.20851e-01
4.53242e-01,2.88139e-01
4.64785e-01,2.58162e-01
4.76622e-01,2.30697e-01
4.88760e-01,2.05539e-01
5.01208e-01,1.82499e-01
5.13972e-01,1.61404e-01
5.27062e-01,1.42093e-01
5.40484e-01,1.24419e-01
5.54249e-01,1.08245e-01
5.68364e-01,9.34478e-02
5.82839e-01,7.99120e-02
5.97682e-01,6.75323e-02
6.12904e-01,5.62117e-02
6.28512e-01,4.58613e-02
6.44519e-01,3.63995e-02
6.60933e-01,2.77512e-02
6.77765e-01,1.98477e-02
6.95026e-01,1.26258e-02
7.12726e-01,6.02756e-03
7.30878e-01,0.00000e+00
