m1=425590.364, m2=69.833, gsp=2.393, rhosp=124.769
fGW[Hz],dPh[rad]
1.01403e-03,2.61190e+04
1.02592e-03,2.51200e+04
1.03796e-03,2.41576e+04
1.05014e-03,2.32307e+04
1.06246e-03,2.23379e+04
1.07493e-03,2.14780e+04
1.08754e-03,2.06500e+04
1.10030e-03,1.98526e+04
1.11321e-03,1.90849e+04
1.12627e-03,1.83458e+04
1.13949e-03,1.76342e+04
1.15286e-03,1.69493e+04
1.16639e-03,1.62900e+04
1.18007e-03,1.56554e+04
1.19392e-03,1.50446e+04
1.20793e-03,1.44569e+04
1.22210e-03,1.38914e+04
1.23644e-03,1.33472e+04
1.25095e-03,1.28236e+04
1.26563e-03,1.23199e+04
1.28048e-03,1.18353e+04
1.29550e-03,1.13692e+04
1.31070e-03,1.09209e+04
1.32608e-03,1.04897e+04
1.34164e-03,1.00750e+04
1.35738e-03,9.67614e+03
1.37331e-03,9.29264e+03
1.38942e-03,8.92389e+03
1.40572e-03,8.56934e+03
1.42222e-03,8.22848e+03
1.43891e-03,7.90079e+03
1.45579e-03,7.58578e+03
1.47287e-03,7.28298e+03
1.49015e-03,6.99194e+03
1.50764e-03,6.71222e+03
1.52533e-03,6.44339e+03
1.54322e-03,6.18505e+03
1.56133e-03,5.93679e+03
1.57965e-03,5.69824e+03
1.59819e-03,5.46904e+03
1.61694e-03,5.24883e+03
1.63591e-03,5.03726e+03
1.65511e-03,4.83402e+03
1.67453e-03,4.63878e+03
1.69417e-03,4.45124e+03
1.71405e-03,4.27110e+03
1.73416e-03,4.09809e+03
1.75451e-03,3.93192e+03
1.77510e-03,3.77234e+03
1.79593e-03,3.61910e+03
1.81700e-03,3.47194e+03
1.83832e-03,3.33063e+03
1.85989e-03,3.19496e+03
1.88171e-03,3.06469e+03
1.90379e-03,2.93962e+03
1.92613e-03,2.81956e+03
1.94873e-03,2.70429e+03
1.97159e-03,2.59364e+03
1.99473e-03,2.48743e+03
2.01813e-03,2.38548e+03
2.04181e-03,2.28763e+03
2.06577e-03,2.19371e+03
2.09001e-03,2.10357e+03
2.11453e-03,2.01707e+03
2.13934e-03,1.93406e+03
2.16444e-03,1.85440e+03
2.18984e-03,1.77795e+03
2.21553e-03,1.70460e+03
2.24153e-03,1.63423e+03
2.26783e-03,1.56670e+03
2.29444e-03,1.50191e+03
2.32136e-03,1.43976e+03
2.34860e-03,1.38012e+03
2.37616e-03,1.32292e+03
2.40404e-03,1.26804e+03
2.43224e-03,1.21540e+03
2.46078e-03,1.16491e+03
2.48966e-03,1.11647e+03
2.51887e-03,1.07002e+03
2.54842e-03,1.02546e+03
2.57833e-03,9.82727e+02
2.60858e-03,9.41742e+02
2.63919e-03,9.02435e+02
2.67015e-03,8.64740e+02
2.70148e-03,8.28591e+02
2.73318e-03,7.93926e+02
2.76525e-03,7.60685e+02
2.79770e-03,7.28811e+02
2.83052e-03,6.98248e+02
2.86373e-03,6.68942e+02
2.89734e-03,6.40844e+02
2.93133e-03,6.13904e+02
2.96573e-03,5.88075e+02
3.00052e-03,5.63311e+02
3.03573e-03,5.39571e+02
3.07135e-03,5.16811e+02
3.10739e-03,4.94992e+02
3.14385e-03,4.74075e+02
3.18074e-03,4.54024e+02
3.21806e-03,4.34803e+02
3.25582e-03,4.16379e+02
3.29402e-03,3.98718e+02
3.33267e-03,3.81790e+02
3.37177e-03,3.65565e+02
3.41133e-03,3.50013e+02
3.45136e-03,3.35107e+02
3.49186e-03,3.20820e+02
3.53283e-03,3.07128e+02
3.57428e-03,2.94005e+02
3.61622e-03,2.81428e+02
3.65865e-03,2.69375e+02
3.70158e-03,2.57824e+02
3.74501e-03,2.46755e+02
3.78895e-03,2.36147e+02
3.83341e-03,2.25981e+02
3.87839e-03,2.16240e+02
3.92390e-03,2.06905e+02
3.96994e-03,1.97960e+02
4.01652e-03,1.89389e+02
4.06365e-03,1.81176e+02
4.11133e-03,1.73306e+02
4.15957e-03,1.65765e+02
4.20837e-03,1.58540e+02
4.25775e-03,1.51618e+02
4.30771e-03,1.44985e+02
4.35825e-03,1.38630e+02
4.40939e-03,1.32542e+02
4.46113e-03,1.26708e+02
4.51347e-03,1.21119e+02
4.56643e-03,1.15765e+02
4.62001e-03,1.10635e+02
4.67422e-03,1.05721e+02
4.72907e-03,1.01013e+02
4.78455e-03,9.65021e+01
4.84069e-03,9.21811e+01
4.89749e-03,8.80417e+01
4.95496e-03,8.40762e+01
5.01309e-03,8.02775e+01
5.07192e-03,7.66385e+01
5.13143e-03,7.31527e+01
5.19164e-03,6.98134e+01
5.25255e-03,6.66147e+01
5.31418e-03,6.35507e+01
5.37654e-03,6.06157e+01
5.43962e-03,5.78043e+01
5.50345e-03,5.51114e+01
5.56802e-03,5.25319e+01
5.63335e-03,5.00612e+01
5.69945e-03,4.76946e+01
5.76633e-03,4.54279e+01
5.83398e-03,4.32567e+01
5.90244e-03,4.11771e+01
5.97169e-03,3.91853e+01
6.04176e-03,3.72775e+01
6.11265e-03,3.54503e+01
6.18437e-03,3.37002e+01
6.25694e-03,3.20240e+01
6.33035e-03,3.04187e+01
6.40463e-03,2.88811e+01
6.47978e-03,2.74085e+01
6.55581e-03,2.59982e+01
6.63273e-03,2.46474e+01
6.71056e-03,2.33538e+01
6.78929e-03,2.21149e+01
6.86896e-03,2.09283e+01
6.94955e-03,1.97920e+01
7.03109e-03,1.87037e+01
7.11359e-03,1.76615e+01
7.19706e-03,1.66634e+01
7.28151e-03,1.57075e+01
7.36694e-03,1.47921e+01
7.45338e-03,1.39155e+01
7.54084e-03,1.30759e+01
7.62932e-03,1.22719e+01
7.71884e-03,1.15020e+01
7.80940e-03,1.07647e+01
7.90104e-03,1.00587e+01
7.99374e-03,9.38250e+00
8.08754e-03,8.73501e+00
8.18243e-03,8.11496e+00
8.27844e-03,7.52119e+00
8.37557e-03,6.95259e+00
8.47385e-03,6.40811e+00
8.57327e-03,5.88671e+00
8.67387e-03,5.38743e+00
8.77564e-03,4.90932e+00
8.87861e-03,4.45149e+00
8.98279e-03,4.01309e+00
9.08819e-03,3.59329e+00
9.19482e-03,3.19130e+00
9.30271e-03,2.80637e+00
9.41186e-03,2.43778e+00
9.52230e-03,2.08483e+00
9.63403e-03,1.74687e+00
9.74707e-03,1.42325e+00
9.86143e-03,1.11338e+00
9.97714e-03,8.16661e-01
1.00942e-02,5.32545e-01
1.02126e-02,2.60495e-01
1.03325e-02,0.00000e+00
