m1=57885.684, m2=10.753, gsp=2.269, rhosp=964.815
fGW[Hz],dPh[rad]
3.36787e-03,2.15420e+04
3.42102e-03,2.05750e+04
3.47501e-03,1.96485e+04
3.52985e-03,1.87610e+04
3.58555e-03,1.79110e+04
3.64214e-03,1.70969e+04
3.69962e-03,1.63174e+04
3.75801e-03,1.55712e+04
3.81731e-03,1.48569e+04
3.87756e-03,1.41732e+04
3.93875e-03,1.35190e+04
4.00091e-03,1.28931e+04
4.06405e-03,1.22943e+04
4.12819e-03,1.17216e+04
4.19334e-03,1.11739e+04
4.25952e-03,1.06502e+04
4.32674e-03,1.01495e+04
4.39502e-03,9.67094e+03
4.46438e-03,9.21356e+03
4.53484e-03,8.77651e+03
4.60641e-03,8.35895e+03
4.67910e-03,7.96008e+03
4.75295e-03,7.57913e+03
4.82796e-03,7.21534e+03
4.90415e-03,6.86800e+03
4.98155e-03,6.53643e+03
5.06016e-03,6.21995e+03
5.14002e-03,5.91794e+03
5.22114e-03,5.62977e+03
5.30354e-03,5.35486e+03
5.38724e-03,5.09264e+03
5.47226e-03,4.84257e+03
5.55862e-03,4.60412e+03
5.64634e-03,4.37679e+03
5.73545e-03,4.16010e+03
5.82597e-03,3.95359e+03
5.91791e-03,3.75680e+03
6.01130e-03,3.56931e+03
6.10617e-03,3.39071e+03
6.20254e-03,3.22061e+03
6.30043e-03,3.05862e+03
6.39986e-03,2.90439e+03
6.50086e-03,2.75757e+03
6.60345e-03,2.61782e+03
6.70767e-03,2.48483e+03
6.81352e-03,2.35828e+03
6.92105e-03,2.23789e+03
7.03028e-03,2.12338e+03
7.14123e-03,2.01446e+03
7.25393e-03,1.91089e+03
7.36841e-03,1.81243e+03
7.48469e-03,1.71882e+03
7.60281e-03,1.62984e+03
7.72280e-03,1.54529e+03
7.84468e-03,1.46495e+03
7.96848e-03,1.38861e+03
8.09424e-03,1.31611e+03
8.22198e-03,1.24724e+03
8.35173e-03,1.18184e+03
8.48354e-03,1.11974e+03
8.61742e-03,1.06079e+03
8.75342e-03,1.00483e+03
8.89156e-03,9.51716e+02
9.03189e-03,9.01314e+02
9.17443e-03,8.53489e+02
9.31921e-03,8.08117e+02
9.46629e-03,7.65078e+02
9.61568e-03,7.24256e+02
9.76743e-03,6.85543e+02
9.92158e-03,6.48835e+02
1.00782e-02,6.14031e+02
1.02372e-02,5.81038e+02
1.03988e-02,5.49765e+02
1.05629e-02,5.20126e+02
1.07296e-02,4.92039e+02
1.08989e-02,4.65426e+02
1.10709e-02,4.40212e+02
1.12456e-02,4.16327e+02
1.14231e-02,3.93703e+02
1.16034e-02,3.72277e+02
1.17865e-02,3.51986e+02
1.19725e-02,3.32773e+02
1.21615e-02,3.14582e+02
1.23534e-02,2.97362e+02
1.25483e-02,2.81061e+02
1.27464e-02,2.65633e+02
1.29475e-02,2.51032e+02
1.31519e-02,2.37215e+02
1.33594e-02,2.24142e+02
1.35703e-02,2.11773e+02
1.37844e-02,2.00071e+02
1.40020e-02,1.89003e+02
1.42229e-02,1.78533e+02
1.44474e-02,1.68632e+02
1.46754e-02,1.59268e+02
1.49070e-02,1.50414e+02
1.51423e-02,1.42042e+02
1.53812e-02,1.34127e+02
1.56240e-02,1.26644e+02
1.58706e-02,1.19571e+02
1.61210e-02,1.12886e+02
1.63754e-02,1.06567e+02
1.66339e-02,1.00595e+02
1.68964e-02,9.49517e+01
1.71630e-02,8.96192e+01
1.74339e-02,8.45808e+01
1.77090e-02,7.98206e+01
1.79885e-02,7.53234e+01
1.82724e-02,7.10752e+01
1.85608e-02,6.70622e+01
1.88537e-02,6.32719e+01
1.91512e-02,5.96920e+01
1.94535e-02,5.63110e+01
1.97605e-02,5.31182e+01
2.00723e-02,5.01032e+01
2.03891e-02,4.72562e+01
2.07109e-02,4.45682e+01
2.10377e-02,4.20303e+01
2.13697e-02,3.96342e+01
2.17070e-02,3.73723e+01
2.20496e-02,3.52370e+01
2.23975e-02,3.32215e+01
2.27510e-02,3.13190e+01
2.31101e-02,2.95233e+01
2.34748e-02,2.78286e+01
2.38453e-02,2.62292e+01
2.42216e-02,2.47198e+01
2.46038e-02,2.32954e+01
2.49921e-02,2.19513e+01
2.53865e-02,2.06830e+01
2.57872e-02,1.94864e+01
2.61941e-02,1.83573e+01
2.66075e-02,1.72920e+01
2.70274e-02,1.62870e+01
2.74540e-02,1.53389e+01
2.78872e-02,1.44445e+01
2.83274e-02,1.36008e+01
2.87744e-02,1.28049e+01
2.92285e-02,1.20542e+01
2.96898e-02,1.13461e+01
3.01583e-02,1.06782e+01
3.06343e-02,1.00483e+01
3.11178e-02,9.45416e+00
3.16088e-02,8.89386e+00
3.21077e-02,8.36545e+00
3.26144e-02,7.86713e+00
3.31291e-02,7.39721e+00
3.36519e-02,6.95407e+00
3.41830e-02,6.53621e+00
3.47225e-02,6.14219e+00
3.52705e-02,5.77066e+00
3.58271e-02,5.42035e+00
3.63925e-02,5.09005e+00
3.69668e-02,4.77862e+00
3.75502e-02,4.48501e+00
3.81429e-02,4.20819e+00
3.87448e-02,3.94721e+00
3.93563e-02,3.70116e+00
3.99774e-02,3.46921e+00
4.06083e-02,3.25054e+00
4.12492e-02,3.04441e+00
4.19001e-02,2.85008e+00
4.25614e-02,2.66691e+00
4.32331e-02,2.49423e+00
4.39154e-02,2.33147e+00
4.46084e-02,2.17805e+00
4.53124e-02,2.03343e+00
4.60275e-02,1.89712e+00
4.67539e-02,1.76864e+00
4.74918e-02,1.64754e+00
4.82413e-02,1.53340e+00
4.90026e-02,1.42583e+00
4.97760e-02,1.32444e+00
5.05615e-02,1.22888e+00
5.13594e-02,1.13882e+00
5.21700e-02,1.05394e+00
5.29933e-02,9.73946e-01
5.38296e-02,8.98558e-01
5.46792e-02,8.27512e-01
5.55421e-02,7.60557e-01
5.64186e-02,6.97460e-01
5.73090e-02,6.37998e-01
5.82135e-02,5.81964e-01
5.91322e-02,5.29159e-01
6.00654e-02,4.79399e-01
6.10133e-02,4.32508e-01
6.19762e-02,3.88321e-01
6.29543e-02,3.46683e-01
6.39478e-02,3.07448e-01
6.49570e-02,2.70476e-01
6.59821e-02,2.35639e-01
6.70234e-02,2.02812e-01
6.80812e-02,1.71880e-01
6.91556e-02,1.42735e-01
7.02470e-02,1.15272e-01
7.13556e-02,8.93955e-02
7.24817e-02,6.50138e-02
7.36256e-02,4.20407e-02
7.47876e-02,2.03949e-02
7.59678e-02,0.00000e+00
