m1=2276.411, m2=38.749, gsp=2.456, rhosp=5154.542
fGW[Hz],dPh[rad]
4.68617e-03,3.20526e+04
4.83034e-03,3.01391e+04
4.97894e-03,2.83397e+04
5.13212e-03,2.66477e+04
5.29001e-03,2.50567e+04
5.45276e-03,2.35605e+04
5.62051e-03,2.21537e+04
5.79342e-03,2.08308e+04
5.97166e-03,1.95868e+04
6.15537e-03,1.84170e+04
6.34474e-03,1.73170e+04
6.53994e-03,1.62827e+04
6.74114e-03,1.53101e+04
6.94853e-03,1.43955e+04
7.16230e-03,1.35355e+04
7.38264e-03,1.27268e+04
7.60977e-03,1.19664e+04
7.84388e-03,1.12514e+04
8.08520e-03,1.05790e+04
8.33394e-03,9.94675e+03
8.59033e-03,9.35223e+03
8.85461e-03,8.79320e+03
9.12702e-03,8.26754e+03
9.40781e-03,7.77325e+03
9.69724e-03,7.30846e+03
9.99557e-03,6.87142e+03
1.03031e-02,6.46046e+03
1.06201e-02,6.07404e+03
1.09468e-02,5.71069e+03
1.12836e-02,5.36902e+03
1.16307e-02,5.04776e+03
1.19885e-02,4.74568e+03
1.23573e-02,4.46163e+03
1.27375e-02,4.19454e+03
1.31294e-02,3.94341e+03
1.35333e-02,3.70727e+03
1.39496e-02,3.48523e+03
1.43788e-02,3.27645e+03
1.48212e-02,3.08014e+03
1.52771e-02,2.89556e+03
1.57471e-02,2.72201e+03
1.62316e-02,2.55882e+03
1.67309e-02,2.40538e+03
1.72457e-02,2.26111e+03
1.77762e-02,2.12547e+03
1.83231e-02,1.99792e+03
1.88868e-02,1.87800e+03
1.94679e-02,1.76525e+03
2.00668e-02,1.65924e+03
2.06841e-02,1.55956e+03
2.13205e-02,1.46585e+03
2.19764e-02,1.37773e+03
2.26525e-02,1.29489e+03
2.33494e-02,1.21700e+03
2.40678e-02,1.14377e+03
2.48082e-02,1.07493e+03
2.55714e-02,1.01020e+03
2.63581e-02,9.49342e+02
2.71690e-02,8.92129e+02
2.80049e-02,8.38341e+02
2.88664e-02,7.87773e+02
2.97545e-02,7.40233e+02
3.06699e-02,6.95541e+02
3.16134e-02,6.53525e+02
3.25860e-02,6.14027e+02
3.35885e-02,5.76896e+02
3.46219e-02,5.41991e+02
3.56870e-02,5.09178e+02
3.67849e-02,4.78333e+02
3.79166e-02,4.49339e+02
3.90831e-02,4.22084e+02
4.02855e-02,3.96464e+02
4.15248e-02,3.72383e+02
4.28024e-02,3.49748e+02
4.41192e-02,3.28472e+02
4.54765e-02,3.08475e+02
4.68756e-02,2.89680e+02
4.83177e-02,2.72015e+02
4.98042e-02,2.55412e+02
5.13364e-02,2.39809e+02
5.29157e-02,2.25145e+02
5.45437e-02,2.11364e+02
5.62217e-02,1.98414e+02
5.79513e-02,1.86244e+02
5.97342e-02,1.74808e+02
6.15719e-02,1.64062e+02
6.34662e-02,1.53965e+02
6.54187e-02,1.44477e+02
6.74313e-02,1.35563e+02
6.95058e-02,1.27188e+02
7.16441e-02,1.19320e+02
7.38482e-02,1.11929e+02
7.61202e-02,1.04985e+02
7.84620e-02,9.84622e+01
8.08759e-02,9.23353e+01
8.33640e-02,8.65804e+01
8.59287e-02,8.11753e+01
8.85722e-02,7.60989e+01
9.12971e-02,7.13316e+01
9.41059e-02,6.68548e+01
9.70010e-02,6.26511e+01
9.99853e-02,5.87040e+01
1.03061e-01,5.49981e+01
1.06232e-01,5.15190e+01
1.09500e-01,4.82530e+01
1.12869e-01,4.51873e+01
1.16341e-01,4.23098e+01
1.19921e-01,3.96092e+01
1.23610e-01,3.70748e+01
1.27413e-01,3.46967e+01
1.31332e-01,3.24654e+01
1.35373e-01,3.03721e+01
1.39538e-01,2.84084e+01
1.43830e-01,2.65664e+01
1.48255e-01,2.48390e+01
1.52816e-01,2.32190e+01
1.57518e-01,2.17000e+01
1.62364e-01,2.02760e+01
1.67359e-01,1.89410e+01
1.72508e-01,1.76898e+01
1.77815e-01,1.65173e+01
1.83285e-01,1.54186e+01
1.88924e-01,1.43893e+01
1.94736e-01,1.34252e+01
2.00727e-01,1.25222e+01
2.06903e-01,1.16767e+01
2.13268e-01,1.08851e+01
2.19829e-01,1.01442e+01
2.26592e-01,9.45076e+00
2.33563e-01,8.80196e+00
2.40749e-01,8.19504e+00
2.48155e-01,7.62741e+00
2.55790e-01,7.09666e+00
2.63659e-01,6.60051e+00
2.71770e-01,6.13681e+00
2.80131e-01,5.70356e+00
2.88750e-01,5.29886e+00
2.97633e-01,4.92094e+00
3.06789e-01,4.56813e+00
3.16228e-01,4.23884e+00
3.25956e-01,3.93162e+00
3.35984e-01,3.64507e+00
3.46321e-01,3.37789e+00
3.56975e-01,3.12885e+00
3.67958e-01,2.89680e+00
3.79278e-01,2.68066e+00
3.90946e-01,2.47942e+00
4.02974e-01,2.29211e+00
4.15371e-01,2.11785e+00
4.28150e-01,1.95579e+00
4.41322e-01,1.80514e+00
4.54899e-01,1.66515e+00
4.68894e-01,1.53513e+00
4.83319e-01,1.41443e+00
4.98189e-01,1.30242e+00
5.13515e-01,1.19853e+00
5.29313e-01,1.10222e+00
5.45598e-01,1.01298e+00
5.62383e-01,9.30337e-01
5.79685e-01,8.53835e-01
5.97518e-01,7.83060e-01
6.15901e-01,7.17616e-01
6.34849e-01,6.57137e-01
6.54380e-01,6.01276e-01
6.74512e-01,5.49710e-01
6.95263e-01,5.02136e-01
7.16653e-01,4.58270e-01
7.38700e-01,4.17848e-01
7.61426e-01,3.80620e-01
7.84852e-01,3.46356e-01
8.08997e-01,3.14838e-01
8.33886e-01,2.85863e-01
8.59540e-01,2.59244e-01
8.85984e-01,2.34803e-01
9.13241e-01,2.12376e-01
9.41337e-01,1.91810e-01
9.70297e-01,1.72963e-01
1.00015e+00,1.55701e-01
1.03092e+00,1.39900e-01
1.06263e+00,1.25447e-01
1.09532e+00,1.12234e-01
1.12902e+00,1.00162e-01
1.16376e+00,8.91397e-02
1.19956e+00,7.90817e-02
1.23646e+00,6.99091e-02
1.27450e+00,6.15490e-02
1.31371e+00,5.39339e-02
1.35413e+00,4.70014e-02
1.39579e+00,4.06939e-02
1.43873e+00,3.49583e-02
1.48299e+00,2.97457e-02
1.52862e+00,2.50110e-02
1.57564e+00,2.07127e-02
1.62412e+00,1.68125e-02
1.67408e+00,1.32755e-02
1.72559e+00,1.00695e-02
1.77867e+00,7.16484e-03
1.83339e+00,4.53456e-03
1.88980e+00,2.15384e-03
1.94794e+00,0.00000e+00
