m1=34514.091, m2=6.395, gsp=2.192, rhosp=101.919
fGW[Hz],dPh[rad]
4.65715e-03,4.21477e+03
4.73524e-03,4.01878e+03
4.81463e-03,3.83130e+03
4.89536e-03,3.65200e+03
4.97744e-03,3.48054e+03
5.06090e-03,3.31661e+03
5.14576e-03,3.15990e+03
5.23204e-03,3.01011e+03
5.31976e-03,2.86696e+03
5.40896e-03,2.73018e+03
5.49965e-03,2.59950e+03
5.59187e-03,2.47467e+03
5.68563e-03,2.35545e+03
5.78096e-03,2.24161e+03
5.87789e-03,2.13292e+03
5.97645e-03,2.02916e+03
6.07666e-03,1.93013e+03
6.17854e-03,1.83563e+03
6.28214e-03,1.74547e+03
6.38747e-03,1.65945e+03
6.49457e-03,1.57741e+03
6.60347e-03,1.49918e+03
6.71419e-03,1.42459e+03
6.82677e-03,1.35348e+03
6.94124e-03,1.28570e+03
7.05762e-03,1.22112e+03
7.17596e-03,1.15958e+03
7.29628e-03,1.10096e+03
7.41862e-03,1.04512e+03
7.54301e-03,9.91956e+02
7.66948e-03,9.41335e+02
7.79808e-03,8.93147e+02
7.92883e-03,8.47285e+02
8.06177e-03,8.03644e+02
8.19695e-03,7.62124e+02
8.33439e-03,7.22629e+02
8.47413e-03,6.85067e+02
8.61622e-03,6.49351e+02
8.76069e-03,6.15396e+02
8.90758e-03,5.83121e+02
9.05694e-03,5.52448e+02
9.20880e-03,5.23304e+02
9.36320e-03,4.95618e+02
9.52020e-03,4.69321e+02
9.67982e-03,4.44348e+02
9.84213e-03,4.20638e+02
1.00072e-02,3.98130e+02
1.01749e-02,3.76767e+02
1.03455e-02,3.56495e+02
1.05190e-02,3.37261e+02
1.06954e-02,3.19016e+02
1.08747e-02,3.01712e+02
1.10571e-02,2.85304e+02
1.12425e-02,2.69748e+02
1.14310e-02,2.55002e+02
1.16226e-02,2.41026e+02
1.18175e-02,2.27783e+02
1.20157e-02,2.15237e+02
1.22171e-02,2.03352e+02
1.24220e-02,1.92097e+02
1.26302e-02,1.81439e+02
1.28420e-02,1.71349e+02
1.30573e-02,1.61797e+02
1.32763e-02,1.52757e+02
1.34989e-02,1.44203e+02
1.37252e-02,1.36110e+02
1.39554e-02,1.28454e+02
1.41894e-02,1.21213e+02
1.44273e-02,1.14366e+02
1.46692e-02,1.07891e+02
1.49151e-02,1.01771e+02
1.51652e-02,9.59857e+01
1.54195e-02,9.05184e+01
1.56780e-02,8.53523e+01
1.59409e-02,8.04714e+01
1.62082e-02,7.58609e+01
1.64800e-02,7.15062e+01
1.67563e-02,6.73939e+01
1.70372e-02,6.35109e+01
1.73229e-02,5.98451e+01
1.76134e-02,5.63847e+01
1.79087e-02,5.31187e+01
1.82090e-02,5.00366e+01
1.85143e-02,4.71284e+01
1.88247e-02,4.43847e+01
1.91404e-02,4.17966e+01
1.94613e-02,3.93554e+01
1.97876e-02,3.70531e+01
2.01194e-02,3.48822e+01
2.04567e-02,3.28354e+01
2.07997e-02,3.09057e+01
2.11485e-02,2.90868e+01
2.15031e-02,2.73725e+01
2.18636e-02,2.57569e+01
2.22302e-02,2.42345e+01
2.26030e-02,2.28001e+01
2.29820e-02,2.14487e+01
2.33673e-02,2.01758e+01
2.37591e-02,1.89768e+01
2.41575e-02,1.78476e+01
2.45625e-02,1.67842e+01
2.49744e-02,1.57830e+01
2.53931e-02,1.48403e+01
2.58189e-02,1.39528e+01
2.62518e-02,1.31173e+01
2.66920e-02,1.23310e+01
2.71395e-02,1.15909e+01
2.75946e-02,1.08944e+01
2.80573e-02,1.02390e+01
2.85277e-02,9.62234e+00
2.90060e-02,9.04214e+00
2.94924e-02,8.49631e+00
2.99869e-02,7.98285e+00
3.04897e-02,7.49989e+00
3.10009e-02,7.04563e+00
3.15207e-02,6.61841e+00
3.20492e-02,6.21666e+00
3.25866e-02,5.83887e+00
3.31330e-02,5.48364e+00
3.36885e-02,5.14965e+00
3.42534e-02,4.83565e+00
3.48277e-02,4.54047e+00
3.54117e-02,4.26299e+00
3.60054e-02,4.00217e+00
3.66092e-02,3.75702e+00
3.72230e-02,3.52661e+00
3.78471e-02,3.31008e+00
3.84817e-02,3.10659e+00
3.91269e-02,2.91538e+00
3.97830e-02,2.73571e+00
4.04500e-02,2.56689e+00
4.11283e-02,2.40828e+00
4.18179e-02,2.25926e+00
4.25190e-02,2.11927e+00
4.32320e-02,1.98777e+00
4.39568e-02,1.86424e+00
4.46939e-02,1.74820e+00
4.54433e-02,1.63921e+00
4.62052e-02,1.53685e+00
4.69800e-02,1.44071e+00
4.77677e-02,1.35042e+00
4.85686e-02,1.26563e+00
4.93830e-02,1.18601e+00
5.02110e-02,1.11124e+00
5.10529e-02,1.04103e+00
5.19089e-02,9.75105e-01
5.27793e-02,9.13207e-01
5.36642e-02,8.55092e-01
5.45640e-02,8.00529e-01
5.54789e-02,7.49304e-01
5.64091e-02,7.01214e-01
5.73550e-02,6.56069e-01
5.83166e-02,6.13689e-01
5.92945e-02,5.73906e-01
6.02887e-02,5.36563e-01
6.12995e-02,5.01510e-01
6.23273e-02,4.68609e-01
6.33724e-02,4.37728e-01
6.44350e-02,4.08743e-01
6.55154e-02,3.81539e-01
6.66139e-02,3.56008e-01
6.77308e-02,3.32046e-01
6.88665e-02,3.09558e-01
7.00212e-02,2.88455e-01
7.11952e-02,2.68650e-01
7.23890e-02,2.50065e-01
7.36027e-02,2.32625e-01
7.48368e-02,2.16259e-01
7.60916e-02,2.00902e-01
7.73675e-02,1.86492e-01
7.86647e-02,1.72971e-01
7.99837e-02,1.60284e-01
8.13248e-02,1.48380e-01
8.26884e-02,1.37211e-01
8.40749e-02,1.26731e-01
8.54846e-02,1.16899e-01
8.69179e-02,1.07674e-01
8.83753e-02,9.90193e-02
8.98571e-02,9.08993e-02
9.13637e-02,8.32814e-02
9.28956e-02,7.61346e-02
9.44532e-02,6.94297e-02
9.60370e-02,6.31397e-02
9.76472e-02,5.72389e-02
9.92845e-02,5.17033e-02
1.00949e-01,4.65103e-02
1.02642e-01,4.16389e-02
1.04363e-01,3.70692e-02
1.06113e-01,3.27824e-02
1.07892e-01,2.87613e-02
1.09701e-01,2.49893e-02
1.11540e-01,2.14510e-02
1.13411e-01,1.81321e-02
1.15312e-01,1.50189e-02
1.17246e-01,1.20987e-02
1.19212e-01,9.35957e-03
1.21210e-01,6.79035e-03
1.23243e-01,4.38048e-03
1.25309e-01,2.12012e-03
1.27410e-01,0.00000e+00
