m1=6480.902, m2=9.238, gsp=2.149, rhosp=81.794
fGW[Hz],dPh[rad]
6.16433e-03,6.11033e+02
6.31171e-03,5.78948e+02
6.46261e-03,5.48528e+02
6.61712e-03,5.19687e+02
6.77533e-03,4.92344e+02
6.93731e-03,4.66421e+02
7.10317e-03,4.41845e+02
7.27300e-03,4.18547e+02
7.44688e-03,3.96460e+02
7.62492e-03,3.75522e+02
7.80722e-03,3.55673e+02
7.99388e-03,3.36858e+02
8.18500e-03,3.19023e+02
8.38069e-03,3.02118e+02
8.58106e-03,2.86094e+02
8.78621e-03,2.70905e+02
8.99628e-03,2.56509e+02
9.21136e-03,2.42865e+02
9.43159e-03,2.29933e+02
9.65708e-03,2.17678e+02
9.88797e-03,2.06063e+02
1.01244e-02,1.95056e+02
1.03664e-02,1.84625e+02
1.06143e-02,1.74741e+02
1.08680e-02,1.65374e+02
1.11279e-02,1.56499e+02
1.13939e-02,1.48090e+02
1.16663e-02,1.40123e+02
1.19453e-02,1.32574e+02
1.22308e-02,1.25423e+02
1.25233e-02,1.18648e+02
1.28227e-02,1.12230e+02
1.31292e-02,1.06150e+02
1.34431e-02,1.00391e+02
1.37645e-02,9.49364e+01
1.40936e-02,8.97701e+01
1.44306e-02,8.48771e+01
1.47756e-02,8.02433e+01
1.51288e-02,7.58551e+01
1.54906e-02,7.16999e+01
1.58609e-02,6.77653e+01
1.62401e-02,6.40400e+01
1.66284e-02,6.05131e+01
1.70259e-02,5.71741e+01
1.74330e-02,5.40134e+01
1.78498e-02,5.10215e+01
1.82766e-02,4.81896e+01
1.87135e-02,4.55094e+01
1.91609e-02,4.29730e+01
1.96190e-02,4.05728e+01
2.00881e-02,3.83018e+01
2.05684e-02,3.61530e+01
2.10601e-02,3.41201e+01
2.15636e-02,3.21971e+01
2.20792e-02,3.03781e+01
2.26070e-02,2.86577e+01
2.31475e-02,2.70308e+01
2.37010e-02,2.54923e+01
2.42676e-02,2.40376e+01
2.48478e-02,2.26623e+01
2.54419e-02,2.13622e+01
2.60501e-02,2.01333e+01
2.66729e-02,1.89719e+01
2.73107e-02,1.78744e+01
2.79636e-02,1.68374e+01
2.86322e-02,1.58576e+01
2.93167e-02,1.49321e+01
3.00176e-02,1.40580e+01
3.07353e-02,1.32324e+01
3.14701e-02,1.24529e+01
3.22225e-02,1.17170e+01
3.29929e-02,1.10223e+01
3.37817e-02,1.03666e+01
3.45894e-02,9.74783e+00
3.54163e-02,9.16400e+00
3.62631e-02,8.61324e+00
3.71301e-02,8.09375e+00
3.80178e-02,7.60384e+00
3.89267e-02,7.14192e+00
3.98574e-02,6.70647e+00
4.08103e-02,6.29604e+00
4.17860e-02,5.90927e+00
4.27850e-02,5.54488e+00
4.38080e-02,5.20163e+00
4.48553e-02,4.87837e+00
4.59277e-02,4.57400e+00
4.70258e-02,4.28747e+00
4.81501e-02,4.01781e+00
4.93013e-02,3.76408e+00
5.04800e-02,3.52538e+00
5.16869e-02,3.30089e+00
5.29226e-02,3.08982e+00
5.41879e-02,2.89140e+00
5.54835e-02,2.70493e+00
5.68100e-02,2.52974e+00
5.81682e-02,2.36518e+00
5.95589e-02,2.21065e+00
6.09828e-02,2.06559e+00
6.24408e-02,1.92944e+00
6.39337e-02,1.80171e+00
6.54622e-02,1.68190e+00
6.70273e-02,1.56955e+00
6.86298e-02,1.46424e+00
7.02706e-02,1.36555e+00
7.19507e-02,1.27310e+00
7.36709e-02,1.18651e+00
7.54323e-02,1.10545e+00
7.72357e-02,1.02958e+00
7.90823e-02,9.58602e-01
8.09730e-02,8.92213e-01
8.29089e-02,8.30141e-01
8.48911e-02,7.72125e-01
8.69207e-02,7.17918e-01
8.89989e-02,6.67289e-01
9.11267e-02,6.20018e-01
9.33053e-02,5.75898e-01
9.55361e-02,5.34733e-01
9.78202e-02,4.96340e-01
1.00159e-01,4.60545e-01
1.02554e-01,4.27184e-01
1.05005e-01,3.96103e-01
1.07516e-01,3.67158e-01
1.10086e-01,3.40211e-01
1.12718e-01,3.15133e-01
1.15413e-01,2.91804e-01
1.18173e-01,2.70111e-01
1.20998e-01,2.49945e-01
1.23891e-01,2.31206e-01
1.26853e-01,2.13800e-01
1.29886e-01,1.97638e-01
1.32991e-01,1.82637e-01
1.36171e-01,1.68718e-01
1.39426e-01,1.55808e-01
1.42760e-01,1.43838e-01
1.46173e-01,1.32745e-01
1.49667e-01,1.22467e-01
1.53246e-01,1.12948e-01
1.56910e-01,1.04135e-01
1.60661e-01,9.59786e-02
1.64502e-01,8.84328e-02
1.68435e-01,8.14542e-02
1.72462e-01,7.50023e-02
1.76585e-01,6.90394e-02
1.80807e-01,6.35304e-02
1.85130e-01,5.84423e-02
1.89556e-01,5.37447e-02
1.94088e-01,4.94088e-02
1.98728e-01,4.54081e-02
2.03480e-01,4.17180e-02
2.08345e-01,3.83152e-02
2.13326e-01,3.51785e-02
2.18426e-01,3.22879e-02
2.23648e-01,2.96248e-02
2.28995e-01,2.71721e-02
2.34470e-01,2.49137e-02
2.40076e-01,2.28349e-02
2.45816e-01,2.09219e-02
2.51693e-01,1.91620e-02
2.57710e-01,1.75433e-02
2.63872e-01,1.60549e-02
2.70180e-01,1.46866e-02
2.76640e-01,1.34291e-02
2.83254e-01,1.22736e-02
2.90026e-01,1.12122e-02
2.96960e-01,1.02373e-02
3.04060e-01,9.34219e-03
3.11329e-01,8.52046e-03
3.18773e-01,7.76627e-03
3.26394e-01,7.07420e-03
3.34197e-01,6.43926e-03
3.42187e-01,5.85686e-03
3.50369e-01,5.32275e-03
3.58745e-01,4.83301e-03
3.67322e-01,4.38404e-03
3.76104e-01,3.97252e-03
3.85096e-01,3.59539e-03
3.94303e-01,3.24983e-03
4.03730e-01,2.93324e-03
4.13383e-01,2.64326e-03
4.23266e-01,2.37767e-03
4.33386e-01,2.13446e-03
4.43747e-01,1.91179e-03
4.54356e-01,1.70793e-03
4.65219e-01,1.52134e-03
4.76342e-01,1.35056e-03
4.87730e-01,1.19428e-03
4.99391e-01,1.05129e-03
5.11331e-01,9.20460e-04
5.23556e-01,8.00782e-04
5.36073e-01,6.91314e-04
5.48890e-01,5.91195e-04
5.62013e-01,4.99637e-04
5.75449e-01,4.15916e-04
5.89207e-01,3.39368e-04
6.03294e-01,2.69385e-04
6.17718e-01,2.05411e-04
6.32487e-01,1.46934e-04
6.47608e-01,9.34858e-05
6.63091e-01,4.46388e-05
6.78945e-01,0.00000e+00
