m1=283711.158, m2=16.939, gsp=2.372, rhosp=1501.417
fGW[Hz],dPh[rad]
1.90882e-03,4.07608e+04
1.92902e-03,3.92471e+04
1.94942e-03,3.77887e+04
1.97005e-03,3.63835e+04
1.99089e-03,3.50297e+04
2.01195e-03,3.37254e+04
2.03324e-03,3.24689e+04
2.05475e-03,3.12584e+04
2.07649e-03,3.00923e+04
2.09846e-03,2.89690e+04
2.12066e-03,2.78870e+04
2.14309e-03,2.68447e+04
2.16577e-03,2.58409e+04
2.18868e-03,2.48739e+04
2.21183e-03,2.39426e+04
2.23523e-03,2.30457e+04
2.25888e-03,2.21819e+04
2.28278e-03,2.13500e+04
2.30693e-03,2.05488e+04
2.33134e-03,1.97773e+04
2.35600e-03,1.90343e+04
2.38093e-03,1.83189e+04
2.40612e-03,1.76300e+04
2.43157e-03,1.69667e+04
2.45730e-03,1.63279e+04
2.48329e-03,1.57130e+04
2.50957e-03,1.51208e+04
2.53612e-03,1.45507e+04
2.56295e-03,1.40019e+04
2.59006e-03,1.34734e+04
2.61746e-03,1.29647e+04
2.64516e-03,1.24749e+04
2.67314e-03,1.20034e+04
2.70142e-03,1.15496e+04
2.73000e-03,1.11126e+04
2.75888e-03,1.06921e+04
2.78807e-03,1.02872e+04
2.81757e-03,9.89750e+03
2.84738e-03,9.52238e+03
2.87750e-03,9.16133e+03
2.90794e-03,8.81380e+03
2.93871e-03,8.47932e+03
2.96980e-03,8.15738e+03
3.00122e-03,7.84753e+03
3.03297e-03,7.54932e+03
3.06506e-03,7.26232e+03
3.09748e-03,6.98611e+03
3.13025e-03,6.72029e+03
3.16337e-03,6.46448e+03
3.19684e-03,6.21829e+03
3.23066e-03,5.98139e+03
3.26484e-03,5.75341e+03
3.29938e-03,5.53402e+03
3.33428e-03,5.32292e+03
3.36956e-03,5.11978e+03
3.40521e-03,4.92431e+03
3.44123e-03,4.73622e+03
3.47764e-03,4.55524e+03
3.51443e-03,4.38110e+03
3.55161e-03,4.21355e+03
3.58919e-03,4.05233e+03
3.62716e-03,3.89722e+03
3.66553e-03,3.74798e+03
3.70431e-03,3.60439e+03
3.74350e-03,3.46624e+03
3.78311e-03,3.33333e+03
3.82313e-03,3.20546e+03
3.86358e-03,3.08244e+03
3.90445e-03,2.96408e+03
3.94576e-03,2.85022e+03
3.98750e-03,2.74068e+03
4.02969e-03,2.63530e+03
4.07232e-03,2.53393e+03
4.11541e-03,2.43640e+03
4.15894e-03,2.34259e+03
4.20294e-03,2.25234e+03
4.24741e-03,2.16553e+03
4.29235e-03,2.08201e+03
4.33776e-03,2.00168e+03
4.38365e-03,1.92441e+03
4.43003e-03,1.85008e+03
4.47689e-03,1.77858e+03
4.52426e-03,1.70980e+03
4.57212e-03,1.64365e+03
4.62049e-03,1.58002e+03
4.66938e-03,1.51881e+03
4.71878e-03,1.45994e+03
4.76870e-03,1.40331e+03
4.81915e-03,1.34885e+03
4.87013e-03,1.29647e+03
4.92166e-03,1.24608e+03
4.97373e-03,1.19762e+03
5.02635e-03,1.15101e+03
5.07952e-03,1.10619e+03
5.13326e-03,1.06307e+03
5.18757e-03,1.02160e+03
5.24245e-03,9.81723e+02
5.29791e-03,9.43367e+02
5.35396e-03,9.06478e+02
5.41061e-03,8.71001e+02
5.46785e-03,8.36881e+02
5.52570e-03,8.04067e+02
5.58416e-03,7.72509e+02
5.64323e-03,7.42159e+02
5.70294e-03,7.12972e+02
5.76327e-03,6.84902e+02
5.82424e-03,6.57908e+02
5.88586e-03,6.31948e+02
5.94813e-03,6.06983e+02
6.01106e-03,5.82975e+02
6.07465e-03,5.59888e+02
6.13892e-03,5.37686e+02
6.20387e-03,5.16335e+02
6.26950e-03,4.95803e+02
6.33583e-03,4.76059e+02
6.40286e-03,4.57072e+02
6.47060e-03,4.38814e+02
6.53906e-03,4.21256e+02
6.60824e-03,4.04373e+02
6.67815e-03,3.88138e+02
6.74880e-03,3.72526e+02
6.82020e-03,3.57514e+02
6.89236e-03,3.43078e+02
6.96527e-03,3.29197e+02
7.03896e-03,3.15849e+02
7.11343e-03,3.03014e+02
7.18869e-03,2.90672e+02
7.26474e-03,2.78805e+02
7.34160e-03,2.67393e+02
7.41927e-03,2.56421e+02
7.49776e-03,2.45870e+02
7.57709e-03,2.35725e+02
7.65725e-03,2.25970e+02
7.73826e-03,2.16591e+02
7.82013e-03,2.07572e+02
7.90286e-03,1.98900e+02
7.98647e-03,1.90561e+02
8.07096e-03,1.82544e+02
8.15635e-03,1.74835e+02
8.24264e-03,1.67423e+02
8.32985e-03,1.60296e+02
8.41797e-03,1.53443e+02
8.50703e-03,1.46855e+02
8.59703e-03,1.40520e+02
8.68798e-03,1.34428e+02
8.77990e-03,1.28572e+02
8.87279e-03,1.22941e+02
8.96666e-03,1.17527e+02
9.06152e-03,1.12321e+02
9.15739e-03,1.07316e+02
9.25427e-03,1.02504e+02
9.35217e-03,9.78772e+01
9.45112e-03,9.34286e+01
9.55110e-03,8.91516e+01
9.65215e-03,8.50393e+01
9.75427e-03,8.10856e+01
9.85746e-03,7.72842e+01
9.96175e-03,7.36294e+01
1.00671e-02,7.01155e+01
1.01736e-02,6.67371e+01
1.02813e-02,6.34889e+01
1.03901e-02,6.03660e+01
1.05000e-02,5.73635e+01
1.06111e-02,5.44768e+01
1.07233e-02,5.17015e+01
1.08368e-02,4.90332e+01
1.09514e-02,4.64678e+01
1.10673e-02,4.40013e+01
1.11844e-02,4.16301e+01
1.13027e-02,3.93503e+01
1.14223e-02,3.71584e+01
1.15431e-02,3.50512e+01
1.16652e-02,3.30252e+01
1.17886e-02,3.10775e+01
1.19134e-02,2.92049e+01
1.20394e-02,2.74045e+01
1.21668e-02,2.56737e+01
1.22955e-02,2.40097e+01
1.24256e-02,2.24099e+01
1.25570e-02,2.08718e+01
1.26899e-02,1.93931e+01
1.28241e-02,1.79716e+01
1.29598e-02,1.66049e+01
1.30969e-02,1.52909e+01
1.32355e-02,1.40277e+01
1.33755e-02,1.28133e+01
1.35170e-02,1.16458e+01
1.36600e-02,1.05234e+01
1.38045e-02,9.44427e+00
1.39506e-02,8.40685e+00
1.40982e-02,7.40951e+00
1.42473e-02,6.45068e+00
1.43980e-02,5.52889e+00
1.45504e-02,4.64271e+00
1.47043e-02,3.79076e+00
1.48599e-02,2.97172e+00
1.50171e-02,2.18432e+00
1.51760e-02,1.42735e+00
1.53365e-02,6.99615e-01
1.54988e-02,0.00000e+00
