m1=615442.095, m2=3.481, gsp=2.372, rhosp=26.781
fGW[Hz],dPh[rad]
2.84685e-03,4.18743e+03
2.86004e-03,4.11314e+03
2.87329e-03,4.04013e+03
2.88661e-03,3.96837e+03
2.89999e-03,3.89784e+03
2.91343e-03,3.82852e+03
2.92693e-03,3.76039e+03
2.94050e-03,3.69343e+03
2.95412e-03,3.62762e+03
2.96782e-03,3.56294e+03
2.98157e-03,3.49937e+03
2.99539e-03,3.43690e+03
3.00927e-03,3.37549e+03
3.02322e-03,3.31514e+03
3.03723e-03,3.25583e+03
3.05130e-03,3.19754e+03
3.06544e-03,3.14024e+03
3.07965e-03,3.08393e+03
3.09392e-03,3.02859e+03
3.10826e-03,2.97420e+03
3.12267e-03,2.92074e+03
3.13714e-03,2.86820e+03
3.15168e-03,2.81656e+03
3.16629e-03,2.76581e+03
3.18096e-03,2.71593e+03
3.19570e-03,2.66691e+03
3.21051e-03,2.61873e+03
3.22539e-03,2.57138e+03
3.24034e-03,2.52484e+03
3.25536e-03,2.47909e+03
3.27044e-03,2.43414e+03
3.28560e-03,2.38996e+03
3.30083e-03,2.34653e+03
3.31613e-03,2.30385e+03
3.33150e-03,2.26191e+03
3.34693e-03,2.22068e+03
3.36245e-03,2.18017e+03
3.37803e-03,2.14035e+03
3.39369e-03,2.10121e+03
3.40941e-03,2.06275e+03
3.42521e-03,2.02494e+03
3.44109e-03,1.98779e+03
3.45704e-03,1.95127e+03
3.47306e-03,1.91538e+03
3.48915e-03,1.88011e+03
3.50532e-03,1.84544e+03
3.52157e-03,1.81137e+03
3.53789e-03,1.77789e+03
3.55429e-03,1.74498e+03
3.57076e-03,1.71263e+03
3.58731e-03,1.68084e+03
3.60393e-03,1.64960e+03
3.62064e-03,1.61889e+03
3.63742e-03,1.58871e+03
3.65427e-03,1.55905e+03
3.67121e-03,1.52990e+03
3.68822e-03,1.50125e+03
3.70532e-03,1.47309e+03
3.72249e-03,1.44541e+03
3.73974e-03,1.41822e+03
3.75707e-03,1.39148e+03
3.77448e-03,1.36521e+03
3.79198e-03,1.33939e+03
3.80955e-03,1.31401e+03
3.82721e-03,1.28907e+03
3.84494e-03,1.26456e+03
3.86276e-03,1.24047e+03
3.88067e-03,1.21679e+03
3.89865e-03,1.19352e+03
3.91672e-03,1.17064e+03
3.93487e-03,1.14817e+03
3.95311e-03,1.12607e+03
3.97143e-03,1.10436e+03
3.98983e-03,1.08302e+03
4.00832e-03,1.06205e+03
4.02690e-03,1.04144e+03
4.04556e-03,1.02118e+03
4.06431e-03,1.00127e+03
4.08315e-03,9.81699e+02
4.10207e-03,9.62467e+02
4.12108e-03,9.43566e+02
4.14018e-03,9.24989e+02
4.15937e-03,9.06731e+02
4.17865e-03,8.88788e+02
4.19801e-03,8.71152e+02
4.21747e-03,8.53819e+02
4.23702e-03,8.36785e+02
4.25665e-03,8.20043e+02
4.27638e-03,8.03589e+02
4.29620e-03,7.87417e+02
4.31611e-03,7.71523e+02
4.33611e-03,7.55903e+02
4.35621e-03,7.40551e+02
4.37640e-03,7.25462e+02
4.39668e-03,7.10633e+02
4.41706e-03,6.96059e+02
4.43753e-03,6.81735e+02
4.45809e-03,6.67658e+02
4.47875e-03,6.53822e+02
4.49951e-03,6.40224e+02
4.52036e-03,6.26860e+02
4.54131e-03,6.13725e+02
4.56236e-03,6.00816e+02
4.58350e-03,5.88129e+02
4.60475e-03,5.75660e+02
4.62609e-03,5.63405e+02
4.64753e-03,5.51361e+02
4.66907e-03,5.39524e+02
4.69070e-03,5.27890e+02
4.71244e-03,5.16457e+02
4.73428e-03,5.05219e+02
4.75622e-03,4.94175e+02
4.77827e-03,4.83321e+02
4.80041e-03,4.72653e+02
4.82266e-03,4.62168e+02
4.84501e-03,4.51864e+02
4.86747e-03,4.41737e+02
4.89002e-03,4.31784e+02
4.91269e-03,4.22002e+02
4.93545e-03,4.12388e+02
4.95833e-03,4.02939e+02
4.98131e-03,3.93653e+02
5.00439e-03,3.84526e+02
5.02759e-03,3.75556e+02
5.05089e-03,3.66740e+02
5.07429e-03,3.58076e+02
5.09781e-03,3.49561e+02
5.12144e-03,3.41192e+02
5.14517e-03,3.32967e+02
5.16902e-03,3.24883e+02
5.19297e-03,3.16938e+02
5.21704e-03,3.09130e+02
5.24122e-03,3.01456e+02
5.26551e-03,2.93914e+02
5.28991e-03,2.86501e+02
5.31443e-03,2.79216e+02
5.33906e-03,2.72056e+02
5.36380e-03,2.65019e+02
5.38866e-03,2.58103e+02
5.41364e-03,2.51306e+02
5.43872e-03,2.44626e+02
5.46393e-03,2.38061e+02
5.48925e-03,2.31608e+02
5.51469e-03,2.25267e+02
5.54025e-03,2.19034e+02
5.56593e-03,2.12909e+02
5.59172e-03,2.06889e+02
5.61764e-03,2.00972e+02
5.64367e-03,1.95157e+02
5.66983e-03,1.89442e+02
5.69611e-03,1.83825e+02
5.72250e-03,1.78305e+02
5.74903e-03,1.72879e+02
5.77567e-03,1.67547e+02
5.80244e-03,1.62307e+02
5.82933e-03,1.57156e+02
5.85634e-03,1.52095e+02
5.88349e-03,1.47120e+02
5.91075e-03,1.42230e+02
5.93815e-03,1.37425e+02
5.96567e-03,1.32702e+02
5.99331e-03,1.28061e+02
6.02109e-03,1.23499e+02
6.04900e-03,1.19016e+02
6.07703e-03,1.14610e+02
6.10519e-03,1.10279e+02
6.13349e-03,1.06023e+02
6.16191e-03,1.01840e+02
6.19047e-03,9.77294e+01
6.21916e-03,9.36891e+01
6.24798e-03,8.97182e+01
6.27694e-03,8.58156e+01
6.30603e-03,8.19801e+01
6.33526e-03,7.82105e+01
6.36462e-03,7.45058e+01
6.39411e-03,7.08647e+01
6.42375e-03,6.72862e+01
6.45352e-03,6.37692e+01
6.48343e-03,6.03127e+01
6.51348e-03,5.69156e+01
6.54366e-03,5.35769e+01
6.57399e-03,5.02956e+01
6.60446e-03,4.70707e+01
6.63506e-03,4.39013e+01
6.66581e-03,4.07863e+01
6.69671e-03,3.77249e+01
6.72774e-03,3.47161e+01
6.75892e-03,3.17590e+01
6.79025e-03,2.88528e+01
6.82172e-03,2.59966e+01
6.85333e-03,2.31894e+01
6.88509e-03,2.04305e+01
6.91700e-03,1.77190e+01
6.94906e-03,1.50542e+01
6.98127e-03,1.24351e+01
7.01362e-03,9.86110e+00
7.04612e-03,7.33133e+00
7.07878e-03,4.84506e+00
7.11159e-03,2.40152e+00
7.14455e-03,0.00000e+00
