m1=93137.884, m2=94.606, gsp=2.083, rhosp=6661.944
fGW[Hz],dPh[rad]
1.32317e-03,4.20240e+02
1.34715e-03,4.01784e+02
1.37157e-03,3.84107e+02
1.39644e-03,3.67176e+02
1.42175e-03,3.50963e+02
1.44752e-03,3.35436e+02
1.47376e-03,3.20567e+02
1.50048e-03,3.06331e+02
1.52768e-03,2.92700e+02
1.55537e-03,2.79649e+02
1.58357e-03,2.67155e+02
1.61228e-03,2.55195e+02
1.64150e-03,2.43746e+02
1.67126e-03,2.32788e+02
1.70155e-03,2.22300e+02
1.73240e-03,2.12263e+02
1.76380e-03,2.02658e+02
1.79578e-03,1.93467e+02
1.82833e-03,1.84674e+02
1.86147e-03,1.76260e+02
1.89522e-03,1.68211e+02
1.92957e-03,1.60512e+02
1.96455e-03,1.53148e+02
2.00016e-03,1.46104e+02
2.03642e-03,1.39368e+02
2.07334e-03,1.32927e+02
2.11092e-03,1.26768e+02
2.14919e-03,1.20879e+02
2.18815e-03,1.15250e+02
2.22781e-03,1.09869e+02
2.26820e-03,1.04725e+02
2.30932e-03,9.98095e+01
2.35118e-03,9.51120e+01
2.39380e-03,9.06235e+01
2.43719e-03,8.63350e+01
2.48137e-03,8.22382e+01
2.52636e-03,7.83248e+01
2.57215e-03,7.45871e+01
2.61878e-03,7.10176e+01
2.66625e-03,6.76092e+01
2.71458e-03,6.43549e+01
2.76379e-03,6.12481e+01
2.81389e-03,5.82826e+01
2.86490e-03,5.54522e+01
2.91684e-03,5.27512e+01
2.96971e-03,5.01739e+01
3.02355e-03,4.77150e+01
3.07836e-03,4.53694e+01
3.13416e-03,4.31322e+01
3.19097e-03,4.09987e+01
3.24882e-03,3.89643e+01
3.30771e-03,3.70247e+01
3.36767e-03,3.51758e+01
3.42872e-03,3.34135e+01
3.49087e-03,3.17342e+01
3.55416e-03,3.01340e+01
3.61858e-03,2.86096e+01
3.68418e-03,2.71575e+01
3.75097e-03,2.57746e+01
3.81896e-03,2.44578e+01
3.88819e-03,2.32041e+01
3.95867e-03,2.20106e+01
4.03043e-03,2.08748e+01
4.10350e-03,1.97939e+01
4.17788e-03,1.87656e+01
4.25362e-03,1.77873e+01
4.33073e-03,1.68569e+01
4.40923e-03,1.59722e+01
4.48916e-03,1.51311e+01
4.57054e-03,1.43315e+01
4.65339e-03,1.35716e+01
4.73775e-03,1.28495e+01
4.82363e-03,1.21635e+01
4.91107e-03,1.15119e+01
5.00010e-03,1.08931e+01
5.09074e-03,1.03056e+01
5.18302e-03,9.74781e+00
5.27698e-03,9.21843e+00
5.37263e-03,8.71609e+00
5.47003e-03,8.23950e+00
5.56919e-03,7.78744e+00
5.67014e-03,7.35873e+00
5.77293e-03,6.95225e+00
5.87758e-03,6.56692e+00
5.98412e-03,6.20172e+00
6.09260e-03,5.85567e+00
6.20305e-03,5.52784e+00
6.31549e-03,5.21732e+00
6.42998e-03,4.92328e+00
6.54654e-03,4.64489e+00
6.66521e-03,4.38138e+00
6.78603e-03,4.13200e+00
6.90905e-03,3.89606e+00
7.03429e-03,3.67286e+00
7.16181e-03,3.46177e+00
7.29163e-03,3.26218e+00
7.42381e-03,3.07350e+00
7.55839e-03,2.89517e+00
7.69540e-03,2.72666e+00
7.83490e-03,2.56746e+00
7.97693e-03,2.41710e+00
8.12153e-03,2.27510e+00
8.26876e-03,2.14104e+00
8.41865e-03,2.01450e+00
8.57126e-03,1.89508e+00
8.72664e-03,1.78241e+00
8.88483e-03,1.67612e+00
9.04589e-03,1.57588e+00
9.20987e-03,1.48136e+00
9.37682e-03,1.39225e+00
9.54680e-03,1.30827e+00
9.71986e-03,1.22913e+00
9.89606e-03,1.15457e+00
1.00755e-02,1.08433e+00
1.02581e-02,1.01819e+00
1.04441e-02,9.55911e-01
1.06334e-02,8.97284e-01
1.08261e-02,8.42104e-01
1.10224e-02,7.90180e-01
1.12222e-02,7.41329e-01
1.14256e-02,6.95377e-01
1.16327e-02,6.52161e-01
1.18436e-02,6.11526e-01
1.20583e-02,5.73324e-01
1.22769e-02,5.37417e-01
1.24995e-02,5.03673e-01
1.27260e-02,4.71967e-01
1.29567e-02,4.42182e-01
1.31916e-02,4.14206e-01
1.34307e-02,3.87934e-01
1.36742e-02,3.63266e-01
1.39221e-02,3.40108e-01
1.41745e-02,3.18372e-01
1.44314e-02,2.97973e-01
1.46930e-02,2.78833e-01
1.49594e-02,2.60876e-01
1.52305e-02,2.44033e-01
1.55066e-02,2.28235e-01
1.57877e-02,2.13422e-01
1.60739e-02,1.99533e-01
1.63653e-02,1.86513e-01
1.66620e-02,1.74309e-01
1.69640e-02,1.62872e-01
1.72715e-02,1.52155e-01
1.75846e-02,1.42114e-01
1.79034e-02,1.32708e-01
1.82279e-02,1.23897e-01
1.85584e-02,1.15646e-01
1.88948e-02,1.07919e-01
1.92373e-02,1.00684e-01
1.95860e-02,9.39113e-02
1.99411e-02,8.75712e-02
2.03026e-02,8.16371e-02
2.06706e-02,7.60837e-02
2.10453e-02,7.08871e-02
2.14268e-02,6.60249e-02
2.18152e-02,6.14761e-02
2.22107e-02,5.72209e-02
2.26133e-02,5.32409e-02
2.30232e-02,4.95186e-02
2.34406e-02,4.60377e-02
2.38655e-02,4.27828e-02
2.42981e-02,3.97395e-02
2.47386e-02,3.68944e-02
2.51871e-02,3.42348e-02
2.56436e-02,3.17488e-02
2.61085e-02,2.94254e-02
2.65818e-02,2.72539e-02
2.70636e-02,2.52248e-02
2.75542e-02,2.33288e-02
2.80537e-02,2.15573e-02
2.85623e-02,1.99022e-02
2.90800e-02,1.83561e-02
2.96072e-02,1.69119e-02
3.01439e-02,1.55629e-02
3.06903e-02,1.43030e-02
3.12467e-02,1.31263e-02
3.18131e-02,1.20275e-02
3.23898e-02,1.10014e-02
3.29769e-02,1.00433e-02
3.35747e-02,9.14879e-03
3.41834e-02,8.31365e-03
3.48030e-02,7.53399e-03
3.54339e-02,6.80617e-03
3.60763e-02,6.12679e-03
3.67302e-02,5.49265e-03
3.73961e-02,4.90078e-03
3.80740e-02,4.34838e-03
3.87642e-02,3.83285e-03
3.94669e-02,3.35175e-03
4.01823e-02,2.90281e-03
4.09107e-02,2.48390e-03
4.16523e-02,2.09302e-03
4.24074e-02,1.72831e-03
4.31761e-02,1.38804e-03
4.39588e-02,1.07058e-03
4.47557e-02,7.74423e-04
4.55670e-02,4.98140e-04
4.63930e-02,2.40412e-04
4.72340e-02,0.00000e+00
