m1=480242.639, m2=11.599, gsp=2.099, rhosp=89.703
fGW[Hz],dPh[rad]
1.92879e-03,9.70628e+01
1.94395e-03,9.41437e+01
1.95922e-03,9.13118e+01
1.97461e-03,8.85645e+01
1.99013e-03,8.58993e+01
2.00577e-03,8.33138e+01
2.02153e-03,8.08056e+01
2.03741e-03,7.83725e+01
2.05342e-03,7.60121e+01
2.06955e-03,7.37223e+01
2.08582e-03,7.15011e+01
2.10220e-03,6.93463e+01
2.11872e-03,6.72560e+01
2.13537e-03,6.52284e+01
2.15215e-03,6.32614e+01
2.16906e-03,6.13533e+01
2.18610e-03,5.95024e+01
2.20328e-03,5.77069e+01
2.22059e-03,5.59652e+01
2.23804e-03,5.42757e+01
2.25563e-03,5.26368e+01
2.27335e-03,5.10471e+01
2.29121e-03,4.95050e+01
2.30921e-03,4.80092e+01
2.32736e-03,4.65582e+01
2.34565e-03,4.51507e+01
2.36408e-03,4.37854e+01
2.38265e-03,4.24611e+01
2.40137e-03,4.11766e+01
2.42024e-03,3.99306e+01
2.43926e-03,3.87219e+01
2.45843e-03,3.75496e+01
2.47774e-03,3.64124e+01
2.49721e-03,3.53094e+01
2.51683e-03,3.42395e+01
2.53661e-03,3.32018e+01
2.55654e-03,3.21952e+01
2.57663e-03,3.12188e+01
2.59687e-03,3.02718e+01
2.61728e-03,2.93532e+01
2.63784e-03,2.84623e+01
2.65857e-03,2.75981e+01
2.67946e-03,2.67599e+01
2.70051e-03,2.59468e+01
2.72173e-03,2.51582e+01
2.74312e-03,2.43934e+01
2.76467e-03,2.36515e+01
2.78639e-03,2.29319e+01
2.80829e-03,2.22340e+01
2.83035e-03,2.15571e+01
2.85259e-03,2.09005e+01
2.87501e-03,2.02637e+01
2.89760e-03,1.96460e+01
2.92036e-03,1.90470e+01
2.94331e-03,1.84659e+01
2.96644e-03,1.79024e+01
2.98975e-03,1.73558e+01
3.01324e-03,1.68256e+01
3.03691e-03,1.63114e+01
3.06078e-03,1.58127e+01
3.08483e-03,1.53291e+01
3.10907e-03,1.48599e+01
3.13349e-03,1.44050e+01
3.15812e-03,1.39637e+01
3.18293e-03,1.35357e+01
3.20794e-03,1.31206e+01
3.23315e-03,1.27180e+01
3.25855e-03,1.23275e+01
3.28415e-03,1.19488e+01
3.30996e-03,1.15815e+01
3.33597e-03,1.12253e+01
3.36218e-03,1.08798e+01
3.38860e-03,1.05447e+01
3.41522e-03,1.02198e+01
3.44206e-03,9.90458e+00
3.46910e-03,9.59890e+00
3.49636e-03,9.30244e+00
3.52383e-03,9.01492e+00
3.55152e-03,8.73607e+00
3.57943e-03,8.46563e+00
3.60755e-03,8.20334e+00
3.63590e-03,7.94896e+00
3.66447e-03,7.70226e+00
3.69326e-03,7.46300e+00
3.72228e-03,7.23095e+00
3.75153e-03,7.00591e+00
3.78101e-03,6.78766e+00
3.81071e-03,6.57599e+00
3.84066e-03,6.37070e+00
3.87083e-03,6.17162e+00
3.90125e-03,5.97854e+00
3.93190e-03,5.79128e+00
3.96280e-03,5.60968e+00
3.99393e-03,5.43356e+00
4.02532e-03,5.26276e+00
4.05695e-03,5.09711e+00
4.08882e-03,4.93646e+00
4.12095e-03,4.78067e+00
4.15333e-03,4.62957e+00
4.18596e-03,4.48304e+00
4.21886e-03,4.34094e+00
4.25200e-03,4.20312e+00
4.28541e-03,4.06947e+00
4.31909e-03,3.93985e+00
4.35302e-03,3.81415e+00
4.38723e-03,3.69224e+00
4.42170e-03,3.57402e+00
4.45644e-03,3.45936e+00
4.49146e-03,3.34817e+00
4.52675e-03,3.24034e+00
4.56232e-03,3.13577e+00
4.59817e-03,3.03435e+00
4.63430e-03,2.93601e+00
4.67071e-03,2.84063e+00
4.70741e-03,2.74813e+00
4.74440e-03,2.65843e+00
4.78168e-03,2.57144e+00
4.81925e-03,2.48708e+00
4.85711e-03,2.40526e+00
4.89528e-03,2.32592e+00
4.93374e-03,2.24898e+00
4.97251e-03,2.17437e+00
5.01158e-03,2.10201e+00
5.05096e-03,2.03183e+00
5.09065e-03,1.96378e+00
5.13065e-03,1.89778e+00
5.17096e-03,1.83378e+00
5.21159e-03,1.77172e+00
5.25254e-03,1.71153e+00
5.29381e-03,1.65316e+00
5.33541e-03,1.59656e+00
5.37733e-03,1.54166e+00
5.41958e-03,1.48843e+00
5.46216e-03,1.43681e+00
5.50508e-03,1.38675e+00
5.54834e-03,1.33820e+00
5.59193e-03,1.29112e+00
5.63587e-03,1.24546e+00
5.68016e-03,1.20119e+00
5.72479e-03,1.15825e+00
5.76977e-03,1.11661e+00
5.81510e-03,1.07624e+00
5.86080e-03,1.03708e+00
5.90685e-03,9.99107e-01
5.95326e-03,9.62283e-01
6.00004e-03,9.26574e-01
6.04718e-03,8.91944e-01
6.09470e-03,8.58362e-01
6.14259e-03,8.25797e-01
6.19085e-03,7.94216e-01
6.23949e-03,7.63591e-01
6.28852e-03,7.33892e-01
6.33793e-03,7.05092e-01
6.38773e-03,6.77164e-01
6.43792e-03,6.50081e-01
6.48851e-03,6.23817e-01
6.53949e-03,5.98347e-01
6.59088e-03,5.73649e-01
6.64266e-03,5.49698e-01
6.69486e-03,5.26472e-01
6.74746e-03,5.03948e-01
6.80048e-03,4.82107e-01
6.85391e-03,4.60926e-01
6.90777e-03,4.40387e-01
6.96204e-03,4.20469e-01
7.01675e-03,4.01154e-01
7.07188e-03,3.82423e-01
7.12745e-03,3.64260e-01
7.18345e-03,3.46646e-01
7.23989e-03,3.29565e-01
7.29678e-03,3.13002e-01
7.35412e-03,2.96939e-01
7.41190e-03,2.81364e-01
7.47014e-03,2.66259e-01
7.52883e-03,2.51612e-01
7.58799e-03,2.37408e-01
7.64761e-03,2.23635e-01
7.70770e-03,2.10278e-01
7.76827e-03,1.97325e-01
7.82930e-03,1.84765e-01
7.89082e-03,1.72585e-01
7.95282e-03,1.60774e-01
8.01531e-03,1.49320e-01
8.07829e-03,1.38214e-01
8.14177e-03,1.27443e-01
8.20574e-03,1.16999e-01
8.27022e-03,1.06871e-01
8.33520e-03,9.70494e-02
8.40069e-03,8.75254e-02
8.46670e-03,7.82898e-02
8.53323e-03,6.93339e-02
8.60028e-03,6.06491e-02
8.66785e-03,5.22274e-02
8.73596e-03,4.40607e-02
8.80460e-03,3.61413e-02
8.87378e-03,2.84618e-02
8.94351e-03,2.10148e-02
9.01378e-03,1.37934e-02
9.08460e-03,6.79064e-03
9.15599e-03,0.00000e+00
