m1=21449.141, m2=14.050, gsp=2.288, rhosp=13.397
fGW[Hz],dPh[rad]
3.90496e-03,7.19615e+03
3.98347e-03,6.86915e+03
4.06356e-03,6.55642e+03
4.14525e-03,6.25735e+03
4.22859e-03,5.97136e+03
4.31360e-03,5.69790e+03
4.40032e-03,5.43642e+03
4.48879e-03,5.18643e+03
4.57903e-03,4.94744e+03
4.67109e-03,4.71896e+03
4.76500e-03,4.50057e+03
4.86080e-03,4.29182e+03
4.95852e-03,4.09230e+03
5.05821e-03,3.90162e+03
5.15990e-03,3.71940e+03
5.26364e-03,3.54528e+03
5.36946e-03,3.37891e+03
5.47741e-03,3.21996e+03
5.58753e-03,3.06812e+03
5.69986e-03,2.92306e+03
5.81446e-03,2.78452e+03
5.93135e-03,2.65219e+03
6.05060e-03,2.52582e+03
6.17224e-03,2.40515e+03
6.29633e-03,2.28993e+03
6.42291e-03,2.17993e+03
6.55204e-03,2.07493e+03
6.68377e-03,1.97469e+03
6.81814e-03,1.87903e+03
6.95521e-03,1.78773e+03
7.09504e-03,1.70061e+03
7.23769e-03,1.61749e+03
7.38320e-03,1.53820e+03
7.53163e-03,1.46256e+03
7.68305e-03,1.39042e+03
7.83751e-03,1.32162e+03
7.99508e-03,1.25601e+03
8.15581e-03,1.19347e+03
8.31978e-03,1.13384e+03
8.48705e-03,1.07701e+03
8.65767e-03,1.02285e+03
8.83173e-03,9.71237e+02
9.00929e-03,9.22063e+02
9.19041e-03,8.75220e+02
9.37518e-03,8.30603e+02
9.56366e-03,7.88113e+02
9.75593e-03,7.47654e+02
9.95207e-03,7.09136e+02
1.01521e-02,6.72472e+02
1.03563e-02,6.37579e+02
1.05645e-02,6.04375e+02
1.07768e-02,5.72785e+02
1.09935e-02,5.42737e+02
1.12145e-02,5.14158e+02
1.14400e-02,4.86984e+02
1.16700e-02,4.61148e+02
1.19046e-02,4.36591e+02
1.21439e-02,4.13253e+02
1.23881e-02,3.91078e+02
1.26371e-02,3.70013e+02
1.28912e-02,3.50005e+02
1.31504e-02,3.31006e+02
1.34147e-02,3.12968e+02
1.36844e-02,2.95846e+02
1.39596e-02,2.79598e+02
1.42402e-02,2.64182e+02
1.45265e-02,2.49559e+02
1.48185e-02,2.35690e+02
1.51165e-02,2.22541e+02
1.54204e-02,2.10076e+02
1.57304e-02,1.98263e+02
1.60466e-02,1.87070e+02
1.63692e-02,1.76467e+02
1.66983e-02,1.66425e+02
1.70340e-02,1.56917e+02
1.73765e-02,1.47918e+02
1.77258e-02,1.39400e+02
1.80822e-02,1.31342e+02
1.84457e-02,1.23720e+02
1.88166e-02,1.16512e+02
1.91949e-02,1.09697e+02
1.95808e-02,1.03256e+02
1.99744e-02,9.71700e+01
2.03760e-02,9.14203e+01
2.07857e-02,8.59902e+01
2.12035e-02,8.08630e+01
2.16298e-02,7.60233e+01
2.20647e-02,7.14560e+01
2.25083e-02,6.71470e+01
2.29608e-02,6.30828e+01
2.34224e-02,5.92504e+01
2.38933e-02,5.56376e+01
2.43736e-02,5.22328e+01
2.48637e-02,4.90247e+01
2.53635e-02,4.60029e+01
2.58734e-02,4.31573e+01
2.63936e-02,4.04783e+01
2.69242e-02,3.79569e+01
2.74655e-02,3.55843e+01
2.80177e-02,3.33525e+01
2.85810e-02,3.12535e+01
2.91556e-02,2.92801e+01
2.97417e-02,2.74252e+01
3.03397e-02,2.56821e+01
3.09496e-02,2.40445e+01
3.15719e-02,2.25065e+01
3.22066e-02,2.10623e+01
3.28541e-02,1.97065e+01
3.35146e-02,1.84342e+01
3.41884e-02,1.72403e+01
3.48757e-02,1.61205e+01
3.55769e-02,1.50702e+01
3.62921e-02,1.40856e+01
3.70218e-02,1.31626e+01
3.77661e-02,1.22977e+01
3.85253e-02,1.14873e+01
3.92999e-02,1.07282e+01
4.00899e-02,1.00174e+01
4.08959e-02,9.35188e+00
4.17181e-02,8.72891e+00
4.25568e-02,8.14592e+00
4.34124e-02,7.60046e+00
4.42852e-02,7.09022e+00
4.51755e-02,6.61303e+00
4.60837e-02,6.16684e+00
4.70102e-02,5.74972e+00
4.79553e-02,5.35987e+00
4.89194e-02,4.99557e+00
4.99029e-02,4.65521e+00
5.09062e-02,4.33729e+00
5.19296e-02,4.04037e+00
5.29737e-02,3.76313e+00
5.40387e-02,3.50431e+00
5.51251e-02,3.26273e+00
5.62333e-02,3.03727e+00
5.73639e-02,2.82691e+00
5.85171e-02,2.63066e+00
5.96936e-02,2.44760e+00
6.08937e-02,2.27688e+00
6.21179e-02,2.11770e+00
6.33667e-02,1.96929e+00
6.46407e-02,1.83095e+00
6.59402e-02,1.70201e+00
6.72659e-02,1.58186e+00
6.86183e-02,1.46990e+00
6.99978e-02,1.36560e+00
7.14051e-02,1.26845e+00
7.28406e-02,1.17797e+00
7.43050e-02,1.09370e+00
7.57989e-02,1.01524e+00
7.73228e-02,9.42197e-01
7.88773e-02,8.74198e-01
8.04631e-02,8.10906e-01
8.20807e-02,7.52002e-01
8.37309e-02,6.97188e-01
8.54143e-02,6.46186e-01
8.71315e-02,5.98735e-01
8.88832e-02,5.54592e-01
9.06701e-02,5.13533e-01
9.24930e-02,4.75344e-01
9.43525e-02,4.39829e-01
9.62494e-02,4.06804e-01
9.81844e-02,3.76096e-01
1.00158e-01,3.47546e-01
1.02172e-01,3.21005e-01
1.04226e-01,2.96333e-01
1.06321e-01,2.73401e-01
1.08459e-01,2.52087e-01
1.10640e-01,2.32280e-01
1.12864e-01,2.13873e-01
1.15133e-01,1.96769e-01
1.17448e-01,1.80877e-01
1.19809e-01,1.66113e-01
1.22217e-01,1.52396e-01
1.24675e-01,1.39654e-01
1.27181e-01,1.27818e-01
1.29738e-01,1.16825e-01
1.32346e-01,1.06614e-01
1.35007e-01,9.71318e-02
1.37721e-01,8.83256e-02
1.40490e-01,8.01479e-02
1.43314e-01,7.25545e-02
1.46196e-01,6.55038e-02
1.49135e-01,5.89575e-02
1.52133e-01,5.28798e-02
1.55192e-01,4.72373e-02
1.58312e-01,4.19992e-02
1.61494e-01,3.71367e-02
1.64741e-01,3.26231e-02
1.68053e-01,2.84334e-02
1.71432e-01,2.45447e-02
1.74878e-01,2.09354e-02
1.78394e-01,1.75856e-02
1.81981e-01,1.44768e-02
1.85639e-01,1.15917e-02
1.89371e-01,8.91433e-03
1.93179e-01,6.42980e-03
1.97062e-01,4.12431e-03
2.01024e-01,1.98501e-03
2.05066e-01,0.00000e+00
