m1=117789.006, m2=3.818, gsp=2.395, rhosp=11.947
fGW[Hz],dPh[rad]
4.15753e-03,4.57908e+04
4.20364e-03,4.39989e+04
4.25026e-03,4.22763e+04
4.29740e-03,4.06202e+04
4.34506e-03,3.90282e+04
4.39325e-03,3.74977e+04
4.44197e-03,3.60265e+04
4.49124e-03,3.46123e+04
4.54105e-03,3.32529e+04
4.59141e-03,3.19463e+04
4.64233e-03,3.06904e+04
4.69382e-03,2.94833e+04
4.74588e-03,2.83231e+04
4.79851e-03,2.72080e+04
4.85173e-03,2.61364e+04
4.90554e-03,2.51065e+04
4.95995e-03,2.41167e+04
5.01495e-03,2.31656e+04
5.07057e-03,2.22515e+04
5.12681e-03,2.13731e+04
5.18367e-03,2.05291e+04
5.24116e-03,1.97180e+04
5.29929e-03,1.89387e+04
5.35806e-03,1.81899e+04
5.41748e-03,1.74703e+04
5.47757e-03,1.67790e+04
5.53832e-03,1.61148e+04
5.59974e-03,1.54766e+04
5.66184e-03,1.48634e+04
5.72464e-03,1.42743e+04
5.78813e-03,1.37084e+04
5.85232e-03,1.31646e+04
5.91723e-03,1.26423e+04
5.98285e-03,1.21405e+04
6.04921e-03,1.16584e+04
6.11630e-03,1.11953e+04
6.18413e-03,1.07505e+04
6.25272e-03,1.03232e+04
6.32206e-03,9.91270e+03
6.39218e-03,9.51841e+03
6.46307e-03,9.13967e+03
6.53475e-03,8.77588e+03
6.60723e-03,8.42644e+03
6.68050e-03,8.09081e+03
6.75460e-03,7.76844e+03
6.82951e-03,7.45882e+03
6.90525e-03,7.16143e+03
6.98183e-03,6.87581e+03
7.05927e-03,6.60149e+03
7.13756e-03,6.33802e+03
7.21672e-03,6.08499e+03
7.29676e-03,5.84198e+03
7.37768e-03,5.60860e+03
7.45951e-03,5.38448e+03
7.54224e-03,5.16923e+03
7.62589e-03,4.96253e+03
7.71046e-03,4.76402e+03
7.79598e-03,4.57340e+03
7.88244e-03,4.39034e+03
7.96986e-03,4.21455e+03
8.05825e-03,4.04574e+03
8.14762e-03,3.88364e+03
8.23798e-03,3.72798e+03
8.32935e-03,3.57851e+03
8.42173e-03,3.43499e+03
8.51513e-03,3.29717e+03
8.60957e-03,3.16484e+03
8.70505e-03,3.03778e+03
8.80160e-03,2.91577e+03
8.89921e-03,2.79862e+03
8.99791e-03,2.68614e+03
9.09770e-03,2.57814e+03
9.19860e-03,2.47444e+03
9.30062e-03,2.37487e+03
9.40377e-03,2.27928e+03
9.50806e-03,2.18749e+03
9.61351e-03,2.09937e+03
9.72013e-03,2.01476e+03
9.82794e-03,1.93353e+03
9.93693e-03,1.85554e+03
1.00471e-02,1.78066e+03
1.01586e-02,1.70878e+03
1.02712e-02,1.63976e+03
1.03851e-02,1.57350e+03
1.05003e-02,1.50989e+03
1.06168e-02,1.44882e+03
1.07345e-02,1.39019e+03
1.08536e-02,1.33390e+03
1.09740e-02,1.27986e+03
1.10957e-02,1.22799e+03
1.12187e-02,1.17819e+03
1.13431e-02,1.13038e+03
1.14689e-02,1.08448e+03
1.15961e-02,1.04042e+03
1.17248e-02,9.98128e+02
1.18548e-02,9.57525e+02
1.19863e-02,9.18547e+02
1.21192e-02,8.81130e+02
1.22536e-02,8.45211e+02
1.23895e-02,8.10731e+02
1.25269e-02,7.77632e+02
1.26658e-02,7.45859e+02
1.28063e-02,7.15359e+02
1.29484e-02,6.86081e+02
1.30920e-02,6.57977e+02
1.32372e-02,6.30999e+02
1.33840e-02,6.05103e+02
1.35324e-02,5.80245e+02
1.36825e-02,5.56384e+02
1.38342e-02,5.33480e+02
1.39877e-02,5.11495e+02
1.41428e-02,4.90391e+02
1.42996e-02,4.70134e+02
1.44582e-02,4.50690e+02
1.46186e-02,4.32026e+02
1.47807e-02,4.14111e+02
1.49446e-02,3.96916e+02
1.51104e-02,3.80410e+02
1.52780e-02,3.64567e+02
1.54474e-02,3.49361e+02
1.56187e-02,3.34764e+02
1.57920e-02,3.20754e+02
1.59671e-02,3.07307e+02
1.61442e-02,2.94400e+02
1.63232e-02,2.82011e+02
1.65043e-02,2.70120e+02
1.66873e-02,2.58707e+02
1.68724e-02,2.47752e+02
1.70595e-02,2.37238e+02
1.72487e-02,2.27146e+02
1.74400e-02,2.17459e+02
1.76334e-02,2.08162e+02
1.78290e-02,1.99239e+02
1.80267e-02,1.90674e+02
1.82267e-02,1.82454e+02
1.84288e-02,1.74565e+02
1.86332e-02,1.66992e+02
1.88399e-02,1.59724e+02
1.90488e-02,1.52748e+02
1.92601e-02,1.46053e+02
1.94737e-02,1.39627e+02
1.96896e-02,1.33460e+02
1.99080e-02,1.27541e+02
2.01288e-02,1.21860e+02
2.03520e-02,1.16407e+02
2.05778e-02,1.11174e+02
2.08060e-02,1.06151e+02
2.10367e-02,1.01331e+02
2.12700e-02,9.67045e+01
2.15059e-02,9.22642e+01
2.17445e-02,8.80026e+01
2.19856e-02,8.39125e+01
2.22295e-02,7.99871e+01
2.24760e-02,7.62197e+01
2.27253e-02,7.26040e+01
2.29773e-02,6.91338e+01
2.32321e-02,6.58033e+01
2.34898e-02,6.26070e+01
2.37503e-02,5.95393e+01
2.40137e-02,5.65952e+01
2.42800e-02,5.37696e+01
2.45493e-02,5.10578e+01
2.48216e-02,4.84552e+01
2.50969e-02,4.59575e+01
2.53752e-02,4.35603e+01
2.56566e-02,4.12597e+01
2.59412e-02,3.90518e+01
2.62289e-02,3.69328e+01
2.65198e-02,3.48992e+01
2.68139e-02,3.29475e+01
2.71113e-02,3.10744e+01
2.74120e-02,2.92768e+01
2.77160e-02,2.75516e+01
2.80234e-02,2.58959e+01
2.83342e-02,2.43070e+01
2.86484e-02,2.27820e+01
2.89662e-02,2.13186e+01
2.92874e-02,1.99140e+01
2.96122e-02,1.85661e+01
2.99406e-02,1.72726e+01
3.02727e-02,1.60311e+01
3.06084e-02,1.48397e+01
3.09479e-02,1.36963e+01
3.12911e-02,1.25990e+01
3.16382e-02,1.15459e+01
3.19891e-02,1.05353e+01
3.23439e-02,9.56538e+00
3.27026e-02,8.63458e+00
3.30653e-02,7.74131e+00
3.34320e-02,6.88405e+00
3.38028e-02,6.06135e+00
3.41776e-02,5.27181e+00
3.45567e-02,4.51411e+00
3.49400e-02,3.78696e+00
3.53275e-02,3.08912e+00
3.57193e-02,2.41942e+00
3.61154e-02,1.77673e+00
3.65160e-02,1.15995e+00
3.69209e-02,5.68041e-01
3.73304e-02,0.00000e+00
