m1=7145.404, m2=9.869, gsp=2.257, rhosp=249.812
fGW[Hz],dPh[rad]
5.86851e-03,5.99871e+03
6.00735e-03,5.69561e+03
6.14948e-03,5.40762e+03
6.29497e-03,5.13397e+03
6.44390e-03,4.87397e+03
6.59636e-03,4.62694e+03
6.75242e-03,4.39224e+03
6.91218e-03,4.16925e+03
7.07571e-03,3.95739e+03
7.24312e-03,3.75612e+03
7.41448e-03,3.56491e+03
7.58990e-03,3.38327e+03
7.76947e-03,3.21071e+03
7.95329e-03,3.04678e+03
8.14146e-03,2.89107e+03
8.33408e-03,2.74316e+03
8.53125e-03,2.60266e+03
8.73309e-03,2.46922e+03
8.93971e-03,2.34247e+03
9.15121e-03,2.22208e+03
9.36772e-03,2.10775e+03
9.58935e-03,1.99917e+03
9.81623e-03,1.89605e+03
1.00485e-02,1.79812e+03
1.02862e-02,1.70513e+03
1.05296e-02,1.61682e+03
1.07787e-02,1.53298e+03
1.10337e-02,1.45336e+03
1.12947e-02,1.37777e+03
1.15620e-02,1.30601e+03
1.18355e-02,1.23788e+03
1.21155e-02,1.17320e+03
1.24022e-02,1.11180e+03
1.26956e-02,1.05352e+03
1.29960e-02,9.98204e+02
1.33034e-02,9.45699e+02
1.36182e-02,8.95868e+02
1.39404e-02,8.48578e+02
1.42702e-02,8.03700e+02
1.46078e-02,7.61115e+02
1.49534e-02,7.20709e+02
1.53072e-02,6.82372e+02
1.56693e-02,6.46000e+02
1.60401e-02,6.11496e+02
1.64196e-02,5.78765e+02
1.68080e-02,5.47720e+02
1.72057e-02,5.18275e+02
1.76128e-02,4.90349e+02
1.80295e-02,4.63868e+02
1.84560e-02,4.38758e+02
1.88927e-02,4.14949e+02
1.93396e-02,3.92378e+02
1.97972e-02,3.70981e+02
2.02656e-02,3.50699e+02
2.07450e-02,3.31476e+02
2.12358e-02,3.13258e+02
2.17383e-02,2.95995e+02
2.22526e-02,2.79638e+02
2.27790e-02,2.64142e+02
2.33180e-02,2.49462e+02
2.38697e-02,2.35558e+02
2.44344e-02,2.22390e+02
2.50125e-02,2.09921e+02
2.56043e-02,1.98114e+02
2.62100e-02,1.86937e+02
2.68301e-02,1.76356e+02
2.74649e-02,1.66343e+02
2.81147e-02,1.56866e+02
2.87799e-02,1.47900e+02
2.94608e-02,1.39418e+02
3.01578e-02,1.31394e+02
3.08713e-02,1.23806e+02
3.16017e-02,1.16630e+02
3.23493e-02,1.09847e+02
3.31147e-02,1.03434e+02
3.38981e-02,9.73733e+01
3.47001e-02,9.16464e+01
3.55211e-02,8.62358e+01
3.63615e-02,8.11250e+01
3.72218e-02,7.62984e+01
3.81024e-02,7.17410e+01
3.90039e-02,6.74388e+01
3.99266e-02,6.33782e+01
4.08713e-02,5.95466e+01
4.18382e-02,5.59318e+01
4.28281e-02,5.25223e+01
4.38414e-02,4.93072e+01
4.48786e-02,4.62761e+01
4.59404e-02,4.34191e+01
4.70273e-02,4.07270e+01
4.81399e-02,3.81908e+01
4.92789e-02,3.58022e+01
5.04447e-02,3.35531e+01
5.16382e-02,3.14359e+01
5.28599e-02,2.94434e+01
5.41105e-02,2.75689e+01
5.53907e-02,2.58058e+01
5.67012e-02,2.41480e+01
5.80427e-02,2.25896e+01
5.94159e-02,2.11251e+01
6.08217e-02,1.97493e+01
6.22606e-02,1.84572e+01
6.37337e-02,1.72441e+01
6.52415e-02,1.61055e+01
6.67851e-02,1.50372e+01
6.83652e-02,1.40351e+01
6.99826e-02,1.30955e+01
7.16383e-02,1.22147e+01
7.33332e-02,1.13894e+01
7.50682e-02,1.06164e+01
7.68443e-02,9.89243e+00
7.86623e-02,9.21479e+00
8.05234e-02,8.58068e+00
8.24285e-02,7.98752e+00
8.43787e-02,7.43286e+00
8.63750e-02,6.91439e+00
8.84185e-02,6.42991e+00
9.05104e-02,5.97737e+00
9.26518e-02,5.55481e+00
9.48438e-02,5.16038e+00
9.70877e-02,4.79236e+00
9.93847e-02,4.44910e+00
1.01736e-01,4.12904e+00
1.04143e-01,3.83074e+00
1.06607e-01,3.55281e+00
1.09129e-01,3.29395e+00
1.11711e-01,3.05296e+00
1.14354e-01,2.82867e+00
1.17060e-01,2.62000e+00
1.19829e-01,2.42594e+00
1.22664e-01,2.24554e+00
1.25566e-01,2.07788e+00
1.28537e-01,1.92213e+00
1.31578e-01,1.77748e+00
1.34691e-01,1.64321e+00
1.37878e-01,1.51860e+00
1.41140e-01,1.40300e+00
1.44479e-01,1.29580e+00
1.47897e-01,1.19642e+00
1.51396e-01,1.10432e+00
1.54978e-01,1.01900e+00
1.58645e-01,9.39981e-01
1.62398e-01,8.66825e-01
1.66240e-01,7.99117e-01
1.70173e-01,7.36472e-01
1.74200e-01,6.78530e-01
1.78321e-01,6.24954e-01
1.82540e-01,5.75430e-01
1.86859e-01,5.29666e-01
1.91279e-01,4.87387e-01
1.95805e-01,4.48341e-01
2.00437e-01,4.12290e-01
2.05180e-01,3.79013e-01
2.10034e-01,3.48306e-01
2.15003e-01,3.19978e-01
2.20090e-01,2.93851e-01
2.25297e-01,2.69760e-01
2.30627e-01,2.47552e-01
2.36084e-01,2.27086e-01
2.41669e-01,2.08228e-01
2.47387e-01,1.90857e-01
2.53240e-01,1.74859e-01
2.59231e-01,1.60129e-01
2.65364e-01,1.46570e-01
2.71643e-01,1.34090e-01
2.78069e-01,1.22607e-01
2.84648e-01,1.12043e-01
2.91383e-01,1.02326e-01
2.98277e-01,9.33896e-02
3.05333e-01,8.51735e-02
3.12557e-01,7.76207e-02
3.19952e-01,7.06787e-02
3.27522e-01,6.42993e-02
3.35271e-01,5.84379e-02
3.43203e-01,5.30532e-02
3.51323e-01,4.81074e-02
3.59635e-01,4.35652e-02
3.68143e-01,3.93945e-02
3.76853e-01,3.55653e-02
3.85769e-01,3.20502e-02
3.94896e-01,2.88239e-02
4.04239e-01,2.58630e-02
4.13803e-01,2.31460e-02
4.23593e-01,2.06532e-02
4.33615e-01,1.83663e-02
4.43874e-01,1.62686e-02
4.54375e-01,1.43446e-02
4.65125e-01,1.25801e-02
4.76130e-01,1.09621e-02
4.87394e-01,9.47858e-03
4.98926e-01,8.11847e-03
5.10730e-01,6.87164e-03
5.22813e-01,5.72875e-03
5.35182e-01,4.68124e-03
5.47844e-01,3.72122e-03
5.60806e-01,2.84146e-03
5.74074e-01,2.03531e-03
5.87656e-01,1.29668e-03
6.01559e-01,6.19958e-04
6.15791e-01,0.00000e+00
