m1=11401.142, m2=7.662, gsp=2.294, rhosp=495.319
fGW[Hz],dPh[rad]
5.74088e-03,2.39948e+04
5.86356e-03,2.28643e+04
5.98886e-03,2.17853e+04
6.11683e-03,2.07556e+04
6.24755e-03,1.97729e+04
6.38105e-03,1.88351e+04
6.51741e-03,1.79403e+04
6.65668e-03,1.70865e+04
6.79893e-03,1.62719e+04
6.94422e-03,1.54947e+04
7.09262e-03,1.47532e+04
7.24418e-03,1.40459e+04
7.39898e-03,1.33711e+04
7.55709e-03,1.27275e+04
7.71859e-03,1.21137e+04
7.88353e-03,1.15282e+04
8.05199e-03,1.09699e+04
8.22406e-03,1.04374e+04
8.39980e-03,9.92973e+03
8.57930e-03,9.44566e+03
8.76263e-03,8.98414e+03
8.94988e-03,8.54416e+03
9.14114e-03,8.12475e+03
9.33648e-03,7.72497e+03
9.53599e-03,7.34394e+03
9.73977e-03,6.98080e+03
9.94790e-03,6.63475e+03
1.01605e-02,6.30502e+03
1.03776e-02,5.99085e+03
1.05994e-02,5.69155e+03
1.08259e-02,5.40644e+03
1.10572e-02,5.13487e+03
1.12935e-02,4.87622e+03
1.15348e-02,4.62991e+03
1.17813e-02,4.39537e+03
1.20331e-02,4.17207e+03
1.22902e-02,3.95948e+03
1.25529e-02,3.75712e+03
1.28211e-02,3.56452e+03
1.30951e-02,3.38123e+03
1.33749e-02,3.20682e+03
1.36607e-02,3.04088e+03
1.39526e-02,2.88302e+03
1.42508e-02,2.73287e+03
1.45553e-02,2.59007e+03
1.48664e-02,2.45428e+03
1.51841e-02,2.32517e+03
1.55085e-02,2.20243e+03
1.58399e-02,2.08578e+03
1.61784e-02,1.97491e+03
1.65241e-02,1.86956e+03
1.68773e-02,1.76948e+03
1.72379e-02,1.67441e+03
1.76063e-02,1.58412e+03
1.79825e-02,1.49838e+03
1.83668e-02,1.41698e+03
1.87593e-02,1.33972e+03
1.91601e-02,1.26639e+03
1.95696e-02,1.19680e+03
1.99878e-02,1.13079e+03
2.04149e-02,1.06817e+03
2.08511e-02,1.00879e+03
2.12967e-02,9.52493e+02
2.17518e-02,8.99123e+02
2.22166e-02,8.48541e+02
2.26914e-02,8.00613e+02
2.31763e-02,7.55209e+02
2.36716e-02,7.12205e+02
2.41774e-02,6.71484e+02
2.46941e-02,6.32933e+02
2.52218e-02,5.96446e+02
2.57607e-02,5.61919e+02
2.63112e-02,5.29256e+02
2.68735e-02,4.98364e+02
2.74477e-02,4.69153e+02
2.80343e-02,4.41539e+02
2.86333e-02,4.15441e+02
2.92452e-02,3.90783e+02
2.98702e-02,3.67491e+02
3.05085e-02,3.45495e+02
3.11604e-02,3.24728e+02
3.18263e-02,3.05128e+02
3.25064e-02,2.86634e+02
3.32010e-02,2.69188e+02
3.39105e-02,2.52735e+02
3.46352e-02,2.37223e+02
3.53753e-02,2.22603e+02
3.61313e-02,2.08827e+02
3.69034e-02,1.95850e+02
3.76920e-02,1.83629e+02
3.84974e-02,1.72124e+02
3.93201e-02,1.61296e+02
4.01603e-02,1.51108e+02
4.10185e-02,1.41525e+02
4.18951e-02,1.32513e+02
4.27903e-02,1.24042e+02
4.37047e-02,1.16082e+02
4.46387e-02,1.08602e+02
4.55926e-02,1.01578e+02
4.65668e-02,9.49826e+01
4.75619e-02,8.87919e+01
4.85783e-02,8.29827e+01
4.96164e-02,7.75333e+01
5.06767e-02,7.24229e+01
5.17596e-02,6.76317e+01
5.28657e-02,6.31413e+01
5.39954e-02,5.89340e+01
5.51492e-02,5.49931e+01
5.63277e-02,5.13028e+01
5.75314e-02,4.78483e+01
5.87608e-02,4.46153e+01
6.00165e-02,4.15906e+01
6.12990e-02,3.87615e+01
6.26089e-02,3.61162e+01
6.39468e-02,3.36435e+01
6.53133e-02,3.13327e+01
6.67090e-02,2.91738e+01
6.81346e-02,2.71574e+01
6.95906e-02,2.52746e+01
7.10777e-02,2.35170e+01
7.25965e-02,2.18768e+01
7.41479e-02,2.03465e+01
7.57324e-02,1.89191e+01
7.73507e-02,1.75880e+01
7.90036e-02,1.63471e+01
8.06919e-02,1.51906e+01
8.24162e-02,1.41129e+01
8.41774e-02,1.31090e+01
8.59762e-02,1.21739e+01
8.78135e-02,1.13033e+01
8.96900e-02,1.04928e+01
9.16066e-02,9.73849e+00
9.35642e-02,9.03660e+00
9.55636e-02,8.38364e+00
9.76057e-02,7.77633e+00
9.96915e-02,7.21160e+00
1.01822e-01,6.68657e+00
1.03998e-01,6.19856e+00
1.06220e-01,5.74503e+00
1.08490e-01,5.32365e+00
1.10808e-01,4.93220e+00
1.13176e-01,4.56863e+00
1.15595e-01,4.23102e+00
1.18065e-01,3.91756e+00
1.20588e-01,3.62658e+00
1.23165e-01,3.35652e+00
1.25797e-01,3.10592e+00
1.28485e-01,2.87340e+00
1.31230e-01,2.65770e+00
1.34035e-01,2.45764e+00
1.36899e-01,2.27211e+00
1.39824e-01,2.10008e+00
1.42812e-01,1.94058e+00
1.45864e-01,1.79274e+00
1.48981e-01,1.65571e+00
1.52165e-01,1.52873e+00
1.55417e-01,1.41106e+00
1.58738e-01,1.30205e+00
1.62130e-01,1.20106e+00
1.65594e-01,1.10752e+00
1.69133e-01,1.02089e+00
1.72747e-01,9.40670e-01
1.76439e-01,8.66389e-01
1.80209e-01,7.97618e-01
1.84060e-01,7.33955e-01
1.87993e-01,6.75025e-01
1.92011e-01,6.20483e-01
1.96114e-01,5.70007e-01
2.00305e-01,5.23298e-01
2.04585e-01,4.80079e-01
2.08957e-01,4.40092e-01
2.13422e-01,4.03100e-01
2.17983e-01,3.68880e-01
2.22641e-01,3.37227e-01
2.27399e-01,3.07952e-01
2.32258e-01,2.80878e-01
2.37221e-01,2.55840e-01
2.42290e-01,2.32688e-01
2.47468e-01,2.11281e-01
2.52756e-01,1.91489e-01
2.58157e-01,1.73191e-01
2.63674e-01,1.56276e-01
2.69309e-01,1.40639e-01
2.75064e-01,1.26186e-01
2.80942e-01,1.12827e-01
2.86945e-01,1.00480e-01
2.93077e-01,8.90690e-02
2.99340e-01,7.85239e-02
3.05736e-01,6.87794e-02
3.12270e-01,5.97751e-02
3.18943e-01,5.14552e-02
3.25758e-01,4.37679e-02
3.32720e-01,3.66656e-02
3.39830e-01,3.01039e-02
3.47092e-01,2.40420e-02
3.54509e-01,1.84421e-02
3.62084e-01,1.32691e-02
3.69822e-01,8.49065e-03
3.77725e-01,4.07685e-03
3.85796e-01,0.00000e+00
