m1=992063.543, m2=60.841, gsp=2.237, rhosp=10.645
fGW[Hz],dPh[rad]
8.64180e-04,4.22576e+02
8.71309e-04,4.09712e+02
8.78497e-04,3.97234e+02
8.85744e-04,3.85132e+02
8.93051e-04,3.73395e+02
9.00418e-04,3.62012e+02
9.07846e-04,3.50972e+02
9.15336e-04,3.40265e+02
9.22887e-04,3.29881e+02
9.30500e-04,3.19810e+02
9.38176e-04,3.10044e+02
9.45915e-04,3.00572e+02
9.53719e-04,2.91387e+02
9.61586e-04,2.82480e+02
9.69519e-04,2.73841e+02
9.77517e-04,2.65465e+02
9.85581e-04,2.57341e+02
9.93711e-04,2.49464e+02
1.00191e-03,2.41825e+02
1.01017e-03,2.34417e+02
1.01851e-03,2.27234e+02
1.02691e-03,2.20269e+02
1.03538e-03,2.13515e+02
1.04392e-03,2.06966e+02
1.05253e-03,2.00615e+02
1.06122e-03,1.94457e+02
1.06997e-03,1.88487e+02
1.07880e-03,1.82697e+02
1.08770e-03,1.77083e+02
1.09667e-03,1.71640e+02
1.10572e-03,1.66363e+02
1.11484e-03,1.61246e+02
1.12404e-03,1.56284e+02
1.13331e-03,1.51474e+02
1.14266e-03,1.46809e+02
1.15208e-03,1.42287e+02
1.16159e-03,1.37903e+02
1.17117e-03,1.33652e+02
1.18083e-03,1.29530e+02
1.19057e-03,1.25534e+02
1.20039e-03,1.21660e+02
1.21030e-03,1.17904e+02
1.22028e-03,1.14263e+02
1.23035e-03,1.10732e+02
1.24050e-03,1.07309e+02
1.25073e-03,1.03991e+02
1.26105e-03,1.00774e+02
1.27145e-03,9.76554e+01
1.28194e-03,9.46318e+01
1.29252e-03,9.17007e+01
1.30318e-03,8.88590e+01
1.31393e-03,8.61042e+01
1.32477e-03,8.34337e+01
1.33570e-03,8.08447e+01
1.34672e-03,7.83349e+01
1.35783e-03,7.59019e+01
1.36903e-03,7.35433e+01
1.38032e-03,7.12569e+01
1.39171e-03,6.90405e+01
1.40319e-03,6.68919e+01
1.41476e-03,6.48090e+01
1.42643e-03,6.27900e+01
1.43820e-03,6.08328e+01
1.45007e-03,5.89355e+01
1.46203e-03,5.70964e+01
1.47409e-03,5.53136e+01
1.48625e-03,5.35855e+01
1.49851e-03,5.19104e+01
1.51087e-03,5.02866e+01
1.52334e-03,4.87126e+01
1.53590e-03,4.71869e+01
1.54857e-03,4.57080e+01
1.56135e-03,4.42745e+01
1.57423e-03,4.28850e+01
1.58721e-03,4.15381e+01
1.60031e-03,4.02326e+01
1.61351e-03,3.89671e+01
1.62682e-03,3.77405e+01
1.64024e-03,3.65516e+01
1.65377e-03,3.53992e+01
1.66741e-03,3.42822e+01
1.68117e-03,3.31995e+01
1.69504e-03,3.21501e+01
1.70902e-03,3.11330e+01
1.72312e-03,3.01471e+01
1.73734e-03,2.91916e+01
1.75167e-03,2.82654e+01
1.76612e-03,2.73677e+01
1.78069e-03,2.64976e+01
1.79538e-03,2.56543e+01
1.81019e-03,2.48369e+01
1.82512e-03,2.40446e+01
1.84018e-03,2.32768e+01
1.85536e-03,2.25326e+01
1.87066e-03,2.18113e+01
1.88609e-03,2.11122e+01
1.90165e-03,2.04346e+01
1.91734e-03,1.97779e+01
1.93316e-03,1.91414e+01
1.94911e-03,1.85245e+01
1.96518e-03,1.79267e+01
1.98140e-03,1.73472e+01
1.99774e-03,1.67856e+01
2.01422e-03,1.62413e+01
2.03084e-03,1.57138e+01
2.04759e-03,1.52025e+01
2.06448e-03,1.47070e+01
2.08151e-03,1.42268e+01
2.09869e-03,1.37613e+01
2.11600e-03,1.33103e+01
2.13345e-03,1.28731e+01
2.15105e-03,1.24494e+01
2.16880e-03,1.20388e+01
2.18669e-03,1.16409e+01
2.20473e-03,1.12552e+01
2.22292e-03,1.08814e+01
2.24125e-03,1.05192e+01
2.25974e-03,1.01681e+01
2.27839e-03,9.82792e+00
2.29718e-03,9.49820e+00
2.31613e-03,9.17866e+00
2.33524e-03,8.86898e+00
2.35450e-03,8.56886e+00
2.37393e-03,8.27801e+00
2.39351e-03,7.99614e+00
2.41325e-03,7.72297e+00
2.43316e-03,7.45824e+00
2.45324e-03,7.20169e+00
2.47347e-03,6.95306e+00
2.49388e-03,6.71211e+00
2.51445e-03,6.47860e+00
2.53519e-03,6.25231e+00
2.55611e-03,6.03301e+00
2.57719e-03,5.82049e+00
2.59845e-03,5.61454e+00
2.61989e-03,5.41495e+00
2.64150e-03,5.22153e+00
2.66329e-03,5.03409e+00
2.68526e-03,4.85244e+00
2.70742e-03,4.67641e+00
2.72975e-03,4.50582e+00
2.75227e-03,4.34050e+00
2.77497e-03,4.18030e+00
2.79787e-03,4.02505e+00
2.82095e-03,3.87460e+00
2.84422e-03,3.72880e+00
2.86768e-03,3.58751e+00
2.89134e-03,3.45060e+00
2.91519e-03,3.31792e+00
2.93924e-03,3.18934e+00
2.96349e-03,3.06474e+00
2.98793e-03,2.94399e+00
3.01258e-03,2.82698e+00
3.03743e-03,2.71360e+00
3.06249e-03,2.60372e+00
3.08776e-03,2.49724e+00
3.11323e-03,2.39405e+00
3.13891e-03,2.29406e+00
3.16480e-03,2.19716e+00
3.19091e-03,2.10327e+00
3.21724e-03,2.01228e+00
3.24378e-03,1.92410e+00
3.27053e-03,1.83866e+00
3.29752e-03,1.75586e+00
3.32472e-03,1.67562e+00
3.35214e-03,1.59787e+00
3.37980e-03,1.52253e+00
3.40768e-03,1.44952e+00
3.43579e-03,1.37877e+00
3.46413e-03,1.31021e+00
3.49271e-03,1.24377e+00
3.52152e-03,1.17939e+00
3.55058e-03,1.11701e+00
3.57987e-03,1.05655e+00
3.60940e-03,9.97973e-01
3.63917e-03,9.41208e-01
3.66919e-03,8.86200e-01
3.69946e-03,8.32897e-01
3.72998e-03,7.81245e-01
3.76075e-03,7.31194e-01
3.79178e-03,6.82693e-01
3.82306e-03,6.35694e-01
3.85459e-03,5.90152e-01
3.88639e-03,5.46021e-01
3.91845e-03,5.03258e-01
3.95078e-03,4.61820e-01
3.98337e-03,4.21665e-01
4.01623e-03,3.82756e-01
4.04936e-03,3.45052e-01
4.08277e-03,3.08516e-01
4.11645e-03,2.73113e-01
4.15041e-03,2.38807e-01
4.18464e-03,2.05565e-01
4.21916e-03,1.73353e-01
4.25397e-03,1.42139e-01
4.28906e-03,1.11894e-01
4.32445e-03,8.25852e-02
4.36012e-03,5.41855e-02
4.39609e-03,2.66661e-02
4.43235e-03,0.00000e+00
