m1=433028.807, m2=98.731, gsp=2.422, rhosp=828.092
fGW[Hz],dPh[rad]
8.86695e-04,5.79664e+04
8.97626e-04,5.57434e+04
9.08692e-04,5.36013e+04
9.19894e-04,5.15372e+04
9.31234e-04,4.95485e+04
9.42714e-04,4.76327e+04
9.54336e-04,4.57873e+04
9.66101e-04,4.40098e+04
9.78011e-04,4.22979e+04
9.90068e-04,4.06494e+04
1.00227e-03,3.90621e+04
1.01463e-03,3.75338e+04
1.02714e-03,3.60625e+04
1.03980e-03,3.46462e+04
1.05262e-03,3.32830e+04
1.06559e-03,3.19710e+04
1.07873e-03,3.07083e+04
1.09203e-03,2.94934e+04
1.10549e-03,2.83244e+04
1.11912e-03,2.71997e+04
1.13292e-03,2.61178e+04
1.14688e-03,2.50771e+04
1.16102e-03,2.40761e+04
1.17534e-03,2.31135e+04
1.18982e-03,2.21877e+04
1.20449e-03,2.12976e+04
1.21934e-03,2.04417e+04
1.23437e-03,1.96189e+04
1.24959e-03,1.88279e+04
1.26500e-03,1.80676e+04
1.28059e-03,1.73369e+04
1.29638e-03,1.66346e+04
1.31236e-03,1.59597e+04
1.32854e-03,1.53111e+04
1.34492e-03,1.46880e+04
1.36150e-03,1.40894e+04
1.37828e-03,1.35143e+04
1.39527e-03,1.29618e+04
1.41247e-03,1.24312e+04
1.42988e-03,1.19216e+04
1.44751e-03,1.14322e+04
1.46536e-03,1.09622e+04
1.48342e-03,1.05109e+04
1.50171e-03,1.00776e+04
1.52022e-03,9.66156e+03
1.53896e-03,9.26219e+03
1.55794e-03,8.87883e+03
1.57714e-03,8.51085e+03
1.59658e-03,8.15767e+03
1.61627e-03,7.81872e+03
1.63619e-03,7.49344e+03
1.65636e-03,7.18130e+03
1.67678e-03,6.88180e+03
1.69745e-03,6.59444e+03
1.71838e-03,6.31875e+03
1.73956e-03,6.05426e+03
1.76101e-03,5.80056e+03
1.78272e-03,5.55720e+03
1.80470e-03,5.32378e+03
1.82694e-03,5.09991e+03
1.84947e-03,4.88522e+03
1.87227e-03,4.67934e+03
1.89535e-03,4.48191e+03
1.91871e-03,4.29261e+03
1.94237e-03,4.11111e+03
1.96631e-03,3.93710e+03
1.99055e-03,3.77027e+03
2.01509e-03,3.61035e+03
2.03993e-03,3.45705e+03
2.06508e-03,3.31012e+03
2.09054e-03,3.16928e+03
2.11631e-03,3.03430e+03
2.14240e-03,2.90494e+03
2.16881e-03,2.78097e+03
2.19555e-03,2.66217e+03
2.22262e-03,2.54834e+03
2.25002e-03,2.43926e+03
2.27775e-03,2.33476e+03
2.30583e-03,2.23463e+03
2.33426e-03,2.13871e+03
2.36304e-03,2.04682e+03
2.39217e-03,1.95879e+03
2.42166e-03,1.87447e+03
2.45151e-03,1.79370e+03
2.48173e-03,1.71633e+03
2.51233e-03,1.64224e+03
2.54330e-03,1.57128e+03
2.57465e-03,1.50331e+03
2.60639e-03,1.43823e+03
2.63852e-03,1.37591e+03
2.67105e-03,1.31623e+03
2.70398e-03,1.25908e+03
2.73731e-03,1.20436e+03
2.77106e-03,1.15197e+03
2.80522e-03,1.10181e+03
2.83980e-03,1.05379e+03
2.87481e-03,1.00782e+03
2.91025e-03,9.63805e+02
2.94613e-03,9.21673e+02
2.98245e-03,8.81342e+02
3.01922e-03,8.42736e+02
3.05644e-03,8.05783e+02
3.09412e-03,7.70414e+02
3.13226e-03,7.36560e+02
3.17087e-03,7.04160e+02
3.20997e-03,6.73150e+02
3.24954e-03,6.43473e+02
3.28960e-03,6.15071e+02
3.33015e-03,5.87892e+02
3.37120e-03,5.61883e+02
3.41276e-03,5.36994e+02
3.45484e-03,5.13178e+02
3.49743e-03,4.90389e+02
3.54054e-03,4.68584e+02
3.58419e-03,4.47721e+02
3.62838e-03,4.27759e+02
3.67311e-03,4.08660e+02
3.71839e-03,3.90388e+02
3.76423e-03,3.72906e+02
3.81063e-03,3.56182e+02
3.85761e-03,3.40182e+02
3.90517e-03,3.24876e+02
3.95331e-03,3.10233e+02
4.00204e-03,2.96227e+02
4.05138e-03,2.82828e+02
4.10133e-03,2.70011e+02
4.15189e-03,2.57752e+02
4.20307e-03,2.46026e+02
4.25489e-03,2.34809e+02
4.30734e-03,2.24081e+02
4.36044e-03,2.13820e+02
4.41420e-03,2.04006e+02
4.46861e-03,1.94620e+02
4.52370e-03,1.85643e+02
4.57947e-03,1.77058e+02
4.63592e-03,1.68847e+02
4.69308e-03,1.60995e+02
4.75093e-03,1.53485e+02
4.80950e-03,1.46304e+02
4.86879e-03,1.39436e+02
4.92881e-03,1.32869e+02
4.98958e-03,1.26589e+02
5.05109e-03,1.20583e+02
5.11336e-03,1.14841e+02
5.17639e-03,1.09350e+02
5.24021e-03,1.04099e+02
5.30481e-03,9.90784e+01
5.37020e-03,9.42778e+01
5.43641e-03,8.96877e+01
5.50343e-03,8.52988e+01
5.57127e-03,8.11025e+01
5.63995e-03,7.70903e+01
5.70948e-03,7.32542e+01
5.77987e-03,6.95865e+01
5.85112e-03,6.60799e+01
5.92325e-03,6.27273e+01
5.99628e-03,5.95220e+01
6.07020e-03,5.64576e+01
6.14503e-03,5.35280e+01
6.22079e-03,5.07271e+01
6.29747e-03,4.80495e+01
6.37511e-03,4.54896e+01
6.45370e-03,4.30425e+01
6.53326e-03,4.07030e+01
6.61380e-03,3.84665e+01
6.69534e-03,3.63286e+01
6.77788e-03,3.42848e+01
6.86143e-03,3.23310e+01
6.94602e-03,3.04633e+01
7.03165e-03,2.86780e+01
7.11834e-03,2.69714e+01
7.20609e-03,2.53400e+01
7.29493e-03,2.37805e+01
7.38486e-03,2.22899e+01
7.47590e-03,2.08650e+01
7.56806e-03,1.95030e+01
7.66136e-03,1.82011e+01
7.75580e-03,1.69567e+01
7.85142e-03,1.57672e+01
7.94821e-03,1.46303e+01
8.04619e-03,1.35436e+01
8.14539e-03,1.25048e+01
8.24580e-03,1.15120e+01
8.34745e-03,1.05631e+01
8.45036e-03,9.65603e+00
8.55454e-03,8.78911e+00
8.66000e-03,7.96051e+00
8.76676e-03,7.16854e+00
8.87483e-03,6.41160e+00
8.98424e-03,5.68814e+00
9.09500e-03,4.99668e+00
9.20712e-03,4.33581e+00
9.32062e-03,3.70418e+00
9.43553e-03,3.10050e+00
9.55185e-03,2.52354e+00
9.66960e-03,1.97212e+00
9.78881e-03,1.44511e+00
9.90948e-03,9.41432e-01
1.00316e-02,4.60057e-01
1.01553e-02,0.00000e+00
