m1=1900.309, m2=41.316, gsp=2.296, rhosp=60.563
fGW[Hz],dPh[rad]
4.78883e-03,6.16016e+02
4.94016e-03,5.76385e+02
5.09627e-03,5.39303e+02
5.25731e-03,5.04606e+02
5.42344e-03,4.72140e+02
5.59483e-03,4.41762e+02
5.77162e-03,4.13337e+02
5.95401e-03,3.86741e+02
6.14216e-03,3.61855e+02
6.33625e-03,3.38570e+02
6.53648e-03,3.16782e+02
6.74303e-03,2.96396e+02
6.95612e-03,2.77321e+02
7.17593e-03,2.59473e+02
7.40269e-03,2.42772e+02
7.63662e-03,2.27146e+02
7.87794e-03,2.12525e+02
8.12688e-03,1.98844e+02
8.38369e-03,1.86044e+02
8.64862e-03,1.74067e+02
8.92192e-03,1.62860e+02
9.20385e-03,1.52374e+02
9.49470e-03,1.42563e+02
9.79473e-03,1.33382e+02
1.01043e-02,1.24793e+02
1.04235e-02,1.16756e+02
1.07529e-02,1.09236e+02
1.10927e-02,1.02200e+02
1.14433e-02,9.56160e+01
1.18049e-02,8.94561e+01
1.21779e-02,8.36925e+01
1.25627e-02,7.82998e+01
1.29597e-02,7.32541e+01
1.33693e-02,6.85330e+01
1.37917e-02,6.41158e+01
1.42275e-02,5.99828e+01
1.46771e-02,5.61158e+01
1.51409e-02,5.24976e+01
1.56194e-02,4.91124e+01
1.61130e-02,4.59450e+01
1.66222e-02,4.29815e+01
1.71474e-02,4.02087e+01
1.76893e-02,3.76145e+01
1.82483e-02,3.51872e+01
1.88249e-02,3.29162e+01
1.94198e-02,3.07914e+01
2.00335e-02,2.88035e+01
2.06665e-02,2.69435e+01
2.13196e-02,2.52034e+01
2.19933e-02,2.35753e+01
2.26883e-02,2.20520e+01
2.34052e-02,2.06269e+01
2.41449e-02,1.92936e+01
2.49078e-02,1.80461e+01
2.56949e-02,1.68791e+01
2.65069e-02,1.57872e+01
2.73445e-02,1.47657e+01
2.82086e-02,1.38100e+01
2.91000e-02,1.29160e+01
3.00196e-02,1.20795e+01
3.09682e-02,1.12970e+01
3.19468e-02,1.05650e+01
3.29563e-02,9.88011e+00
3.39978e-02,9.23943e+00
3.50721e-02,8.64008e+00
3.61804e-02,8.07939e+00
3.73237e-02,7.55488e+00
3.85031e-02,7.06422e+00
3.97199e-02,6.60523e+00
4.09750e-02,6.17587e+00
4.22698e-02,5.77423e+00
4.36056e-02,5.39853e+00
4.49835e-02,5.04710e+00
4.64050e-02,4.71838e+00
4.78714e-02,4.41090e+00
4.93842e-02,4.12329e+00
5.09447e-02,3.85428e+00
5.25546e-02,3.60267e+00
5.42153e-02,3.36733e+00
5.59285e-02,3.14722e+00
5.76959e-02,2.94136e+00
5.95191e-02,2.74883e+00
6.13999e-02,2.56876e+00
6.33402e-02,2.40036e+00
6.53418e-02,2.24288e+00
6.74066e-02,2.09561e+00
6.95366e-02,1.95788e+00
7.17340e-02,1.82910e+00
7.40008e-02,1.70867e+00
7.63393e-02,1.59607e+00
7.87516e-02,1.49078e+00
8.12402e-02,1.39233e+00
8.38074e-02,1.30029e+00
8.64557e-02,1.21424e+00
8.91878e-02,1.13378e+00
9.20061e-02,1.05857e+00
9.49135e-02,9.88263e-01
9.79128e-02,9.22539e-01
1.01007e-01,8.61105e-01
1.04199e-01,8.03682e-01
1.07491e-01,7.50012e-01
1.10888e-01,6.99852e-01
1.14392e-01,6.52975e-01
1.18007e-01,6.09168e-01
1.21736e-01,5.68234e-01
1.25583e-01,5.29985e-01
1.29552e-01,4.94248e-01
1.33645e-01,4.60860e-01
1.37869e-01,4.29669e-01
1.42225e-01,4.00532e-01
1.46720e-01,3.73317e-01
1.51356e-01,3.47899e-01
1.56139e-01,3.24160e-01
1.61073e-01,3.01992e-01
1.66163e-01,2.81293e-01
1.71414e-01,2.61967e-01
1.76830e-01,2.43925e-01
1.82418e-01,2.27084e-01
1.88183e-01,2.11364e-01
1.94129e-01,1.96694e-01
2.00264e-01,1.83004e-01
2.06592e-01,1.70231e-01
2.13121e-01,1.58314e-01
2.19855e-01,1.47199e-01
2.26803e-01,1.36831e-01
2.33970e-01,1.27163e-01
2.41363e-01,1.18149e-01
2.48991e-01,1.09745e-01
2.56859e-01,1.01912e-01
2.64976e-01,9.46120e-02
2.73349e-01,8.78098e-02
2.81987e-01,8.14728e-02
2.90898e-01,7.55702e-02
3.00090e-01,7.00735e-02
3.09573e-01,6.49556e-02
3.19356e-01,6.01916e-02
3.29447e-01,5.57579e-02
3.39858e-01,5.16326e-02
3.50597e-01,4.77952e-02
3.61676e-01,4.42264e-02
3.73106e-01,4.09083e-02
3.84896e-01,3.78242e-02
3.97059e-01,3.49583e-02
4.09606e-01,3.22959e-02
4.22549e-01,2.98234e-02
4.35902e-01,2.75279e-02
4.49677e-01,2.53974e-02
4.63887e-01,2.34207e-02
4.78545e-01,2.15874e-02
4.93668e-01,1.98876e-02
5.09268e-01,1.83122e-02
5.25361e-01,1.68526e-02
5.41962e-01,1.55009e-02
5.59088e-01,1.42496e-02
5.76756e-01,1.30916e-02
5.94981e-01,1.20206e-02
6.13783e-01,1.10304e-02
6.33179e-01,1.01153e-02
6.53187e-01,9.27002e-03
6.73828e-01,8.48960e-03
6.95121e-01,7.76941e-03
7.17087e-01,7.10515e-03
7.39747e-01,6.49277e-03
7.63124e-01,5.92852e-03
7.87239e-01,5.40891e-03
8.12115e-01,4.93065e-03
8.37779e-01,4.49070e-03
8.64253e-01,4.08622e-03
8.91563e-01,3.71457e-03
9.19737e-01,3.37328e-03
9.48801e-01,3.06007e-03
9.78783e-01,2.77278e-03
1.00971e+00,2.50944e-03
1.04162e+00,2.26821e-03
1.07454e+00,2.04735e-03
1.10849e+00,1.84529e-03
1.14352e+00,1.66054e-03
1.17966e+00,1.49172e-03
1.21693e+00,1.33756e-03
1.25539e+00,1.19687e-03
1.29506e+00,1.06857e-03
1.33598e+00,9.51642e-04
1.37820e+00,8.45142e-04
1.42175e+00,7.48205e-04
1.46668e+00,6.60029e-04
1.51303e+00,5.79876e-04
1.56084e+00,5.07061e-04
1.61016e+00,4.40956e-04
1.66104e+00,3.80980e-04
1.71353e+00,3.26599e-04
1.76768e+00,2.77322e-04
1.82354e+00,2.32697e-04
1.88116e+00,1.92310e-04
1.94061e+00,1.55781e-04
2.00193e+00,1.22759e-04
2.06520e+00,9.29272e-05
2.13046e+00,6.59913e-05
2.19778e+00,4.16843e-05
2.26723e+00,1.97616e-05
2.33887e+00,0.00000e+00
