m1=148359.502, m2=13.457, gsp=2.279, rhosp=9366.882
fGW[Hz],dPh[rad]
2.44695e-03,2.56417e+04
2.47782e-03,2.45558e+04
2.50907e-03,2.35142e+04
2.54072e-03,2.25153e+04
2.57276e-03,2.15572e+04
2.60521e-03,2.06386e+04
2.63807e-03,1.97578e+04
2.67134e-03,1.89133e+04
2.70504e-03,1.81037e+04
2.73915e-03,1.73277e+04
2.77370e-03,1.65839e+04
2.80869e-03,1.58709e+04
2.84411e-03,1.51877e+04
2.87998e-03,1.45330e+04
2.91631e-03,1.39057e+04
2.95309e-03,1.33046e+04
2.99034e-03,1.27288e+04
3.02806e-03,1.21771e+04
3.06625e-03,1.16487e+04
3.10492e-03,1.11426e+04
3.14408e-03,1.06579e+04
3.18374e-03,1.01936e+04
3.22390e-03,9.74907e+03
3.26456e-03,9.32340e+03
3.30573e-03,8.91583e+03
3.34743e-03,8.52562e+03
3.38965e-03,8.15206e+03
3.43240e-03,7.79446e+03
3.47569e-03,7.45216e+03
3.51953e-03,7.12454e+03
3.56392e-03,6.81097e+03
3.60887e-03,6.51089e+03
3.65439e-03,6.22372e+03
3.70048e-03,5.94893e+03
3.74716e-03,5.68600e+03
3.79442e-03,5.43444e+03
3.84228e-03,5.19377e+03
3.89074e-03,4.96354e+03
3.93981e-03,4.74329e+03
3.98950e-03,4.53262e+03
4.03982e-03,4.33111e+03
4.09078e-03,4.13838e+03
4.14237e-03,3.95406e+03
4.19462e-03,3.77779e+03
4.24753e-03,3.60923e+03
4.30110e-03,3.44805e+03
4.35535e-03,3.29393e+03
4.41028e-03,3.14658e+03
4.46591e-03,3.00570e+03
4.52223e-03,2.87102e+03
4.57927e-03,2.74226e+03
4.63703e-03,2.61918e+03
4.69552e-03,2.50154e+03
4.75474e-03,2.38908e+03
4.81471e-03,2.28160e+03
4.87544e-03,2.17888e+03
4.93693e-03,2.08071e+03
4.99920e-03,1.98689e+03
5.06225e-03,1.89724e+03
5.12610e-03,1.81157e+03
5.19076e-03,1.72971e+03
5.25623e-03,1.65149e+03
5.32252e-03,1.57676e+03
5.38965e-03,1.50536e+03
5.45763e-03,1.43715e+03
5.52647e-03,1.37198e+03
5.59617e-03,1.30973e+03
5.66676e-03,1.25026e+03
5.73823e-03,1.19345e+03
5.81060e-03,1.13920e+03
5.88389e-03,1.08737e+03
5.95810e-03,1.03787e+03
6.03325e-03,9.90594e+02
6.10935e-03,9.45442e+02
6.18641e-03,9.02322e+02
6.26443e-03,8.61143e+02
6.34345e-03,8.21818e+02
6.42345e-03,7.84266e+02
6.50447e-03,7.48409e+02
6.58651e-03,7.14169e+02
6.66959e-03,6.81476e+02
6.75371e-03,6.50261e+02
6.83889e-03,6.20457e+02
6.92515e-03,5.92002e+02
7.01249e-03,5.64835e+02
7.10094e-03,5.38899e+02
7.19050e-03,5.14139e+02
7.28120e-03,4.90502e+02
7.37303e-03,4.67938e+02
7.46603e-03,4.46398e+02
7.56019e-03,4.25837e+02
7.65555e-03,4.06210e+02
7.75211e-03,3.87476e+02
7.84988e-03,3.69595e+02
7.94889e-03,3.52527e+02
8.04915e-03,3.36237e+02
8.15067e-03,3.20690e+02
8.25348e-03,3.05851e+02
8.35757e-03,2.91689e+02
8.46299e-03,2.78173e+02
8.56973e-03,2.65275e+02
8.67782e-03,2.52965e+02
8.78727e-03,2.41218e+02
8.89810e-03,2.30009e+02
9.01033e-03,2.19311e+02
9.12398e-03,2.09103e+02
9.23906e-03,1.99363e+02
9.35559e-03,1.90068e+02
9.47359e-03,1.81199e+02
9.59307e-03,1.72737e+02
9.71407e-03,1.64662e+02
9.83659e-03,1.56958e+02
9.96066e-03,1.49607e+02
1.00863e-02,1.42593e+02
1.02135e-02,1.35901e+02
1.03423e-02,1.29517e+02
1.04728e-02,1.23426e+02
1.06049e-02,1.17615e+02
1.07386e-02,1.12071e+02
1.08741e-02,1.06781e+02
1.10112e-02,1.01735e+02
1.11501e-02,9.69216e+01
1.12907e-02,9.23293e+01
1.14331e-02,8.79484e+01
1.15773e-02,8.37693e+01
1.17234e-02,7.97826e+01
1.18712e-02,7.59795e+01
1.20210e-02,7.23518e+01
1.21726e-02,6.88912e+01
1.23261e-02,6.55902e+01
1.24816e-02,6.24414e+01
1.26390e-02,5.94379e+01
1.27984e-02,5.65730e+01
1.29598e-02,5.38403e+01
1.31233e-02,5.12337e+01
1.32888e-02,4.87475e+01
1.34564e-02,4.63761e+01
1.36262e-02,4.41142e+01
1.37980e-02,4.19568e+01
1.39721e-02,3.98992e+01
1.41483e-02,3.79366e+01
1.43267e-02,3.60647e+01
1.45074e-02,3.42795e+01
1.46904e-02,3.25767e+01
1.48757e-02,3.09528e+01
1.50633e-02,2.94040e+01
1.52533e-02,2.79268e+01
1.54457e-02,2.65180e+01
1.56405e-02,2.51744e+01
1.58378e-02,2.38931e+01
1.60375e-02,2.26710e+01
1.62398e-02,2.15056e+01
1.64446e-02,2.03941e+01
1.66521e-02,1.93341e+01
1.68621e-02,1.83233e+01
1.70748e-02,1.73593e+01
1.72901e-02,1.64399e+01
1.75082e-02,1.55632e+01
1.77290e-02,1.47271e+01
1.79526e-02,1.39298e+01
1.81791e-02,1.31695e+01
1.84084e-02,1.24444e+01
1.86405e-02,1.17530e+01
1.88757e-02,1.10937e+01
1.91137e-02,1.04649e+01
1.93548e-02,9.86531e+00
1.95989e-02,9.29355e+00
1.98461e-02,8.74833e+00
2.00964e-02,8.22842e+00
2.03499e-02,7.73265e+00
2.06066e-02,7.25989e+00
2.08665e-02,6.80909e+00
2.11297e-02,6.37922e+00
2.13962e-02,5.96932e+00
2.16660e-02,5.57846e+00
2.19393e-02,5.20575e+00
2.22160e-02,4.85037e+00
2.24962e-02,4.51149e+00
2.27800e-02,4.18836e+00
2.30673e-02,3.88025e+00
2.33582e-02,3.58646e+00
2.36529e-02,3.30632e+00
2.39512e-02,3.03921e+00
2.42533e-02,2.78451e+00
2.45592e-02,2.54166e+00
2.48689e-02,2.31009e+00
2.51826e-02,2.08930e+00
2.55002e-02,1.87877e+00
2.58219e-02,1.67804e+00
2.61475e-02,1.48664e+00
2.64773e-02,1.30414e+00
2.68113e-02,1.13013e+00
2.71495e-02,9.64218e-01
2.74919e-02,8.06025e-01
2.78386e-02,6.55191e-01
2.81898e-02,5.11376e-01
2.85453e-02,3.74254e-01
2.89053e-02,2.43512e-01
2.92699e-02,1.18855e-01
2.96391e-02,0.00000e+00
