m1=140389.569, m2=21.523, gsp=2.432, rhosp=27.905
fGW[Hz],dPh[rad]
2.08041e-03,9.54509e+04
2.10895e-03,9.14532e+04
2.13789e-03,8.76136e+04
2.16722e-03,8.39264e+04
2.19695e-03,8.03859e+04
2.22710e-03,7.69868e+04
2.25765e-03,7.37238e+04
2.28863e-03,7.05918e+04
2.32003e-03,6.75859e+04
2.35186e-03,6.47015e+04
2.38413e-03,6.19339e+04
2.41684e-03,5.92788e+04
2.45000e-03,5.67318e+04
2.48361e-03,5.42890e+04
2.51769e-03,5.19462e+04
2.55223e-03,4.96996e+04
2.58725e-03,4.75457e+04
2.62275e-03,4.54807e+04
2.65873e-03,4.35013e+04
2.69521e-03,4.16041e+04
2.73219e-03,3.97860e+04
2.76968e-03,3.80437e+04
2.80768e-03,3.63745e+04
2.84620e-03,3.47753e+04
2.88525e-03,3.32434e+04
2.92484e-03,3.17762e+04
2.96497e-03,3.03710e+04
3.00565e-03,2.90255e+04
3.04689e-03,2.77372e+04
3.08869e-03,2.65037e+04
3.13107e-03,2.53230e+04
3.17403e-03,2.41929e+04
3.21758e-03,2.31112e+04
3.26172e-03,2.20761e+04
3.30647e-03,2.10857e+04
3.35184e-03,2.01381e+04
3.39783e-03,1.92315e+04
3.44445e-03,1.83643e+04
3.49171e-03,1.75349e+04
3.53961e-03,1.67416e+04
3.58818e-03,1.59830e+04
3.63741e-03,1.52577e+04
3.68731e-03,1.45641e+04
3.73791e-03,1.39011e+04
3.78919e-03,1.32673e+04
3.84118e-03,1.26615e+04
3.89388e-03,1.20825e+04
3.94731e-03,1.15292e+04
4.00147e-03,1.10005e+04
4.05637e-03,1.04953e+04
4.11202e-03,1.00127e+04
4.16844e-03,9.55156e+03
4.22563e-03,9.11111e+03
4.28361e-03,8.69041e+03
4.34238e-03,8.28860e+03
4.40196e-03,7.90488e+03
4.46236e-03,7.53846e+03
4.52358e-03,7.18858e+03
4.58565e-03,6.85453e+03
4.64856e-03,6.53561e+03
4.71234e-03,6.23116e+03
4.77700e-03,5.94056e+03
4.84254e-03,5.66318e+03
4.90898e-03,5.39845e+03
4.97633e-03,5.14580e+03
5.04461e-03,4.90471e+03
5.11382e-03,4.67467e+03
5.18399e-03,4.45517e+03
5.25511e-03,4.24575e+03
5.32721e-03,4.04597e+03
5.40030e-03,3.85539e+03
5.47440e-03,3.67360e+03
5.54951e-03,3.50020e+03
5.62565e-03,3.33482e+03
5.70284e-03,3.17710e+03
5.78108e-03,3.02669e+03
5.86040e-03,2.88326e+03
5.94080e-03,2.74649e+03
6.02231e-03,2.61609e+03
6.10494e-03,2.49177e+03
6.18870e-03,2.37324e+03
6.27362e-03,2.26025e+03
6.35969e-03,2.15253e+03
6.44695e-03,2.04986e+03
6.53540e-03,1.95200e+03
6.62507e-03,1.85873e+03
6.71597e-03,1.76983e+03
6.80811e-03,1.68511e+03
6.90152e-03,1.60438e+03
6.99621e-03,1.52745e+03
7.09220e-03,1.45414e+03
7.18951e-03,1.38429e+03
7.28815e-03,1.31774e+03
7.38815e-03,1.25433e+03
7.48952e-03,1.19393e+03
7.59227e-03,1.13638e+03
7.69644e-03,1.08156e+03
7.80204e-03,1.02934e+03
7.90909e-03,9.79594e+02
8.01760e-03,9.32214e+02
8.12761e-03,8.87086e+02
8.23912e-03,8.44104e+02
8.35216e-03,8.03169e+02
8.46676e-03,7.64185e+02
8.58292e-03,7.27059e+02
8.70068e-03,6.91704e+02
8.82006e-03,6.58037e+02
8.94107e-03,6.25979e+02
9.06375e-03,5.95454e+02
9.18810e-03,5.66389e+02
9.31417e-03,5.38715e+02
9.44196e-03,5.12368e+02
9.57151e-03,4.87283e+02
9.70283e-03,4.63401e+02
9.83596e-03,4.40665e+02
9.97091e-03,4.19022e+02
1.01077e-02,3.98418e+02
1.02464e-02,3.78804e+02
1.03870e-02,3.60134e+02
1.05295e-02,3.42363e+02
1.06740e-02,3.25447e+02
1.08204e-02,3.09346e+02
1.09689e-02,2.94022e+02
1.11194e-02,2.79436e+02
1.12719e-02,2.65554e+02
1.14266e-02,2.52342e+02
1.15834e-02,2.39768e+02
1.17423e-02,2.27802e+02
1.19034e-02,2.16414e+02
1.20667e-02,2.05577e+02
1.22323e-02,1.95264e+02
1.24001e-02,1.85451e+02
1.25702e-02,1.76112e+02
1.27427e-02,1.67226e+02
1.29175e-02,1.58770e+02
1.30948e-02,1.50725e+02
1.32744e-02,1.43069e+02
1.34566e-02,1.35785e+02
1.36412e-02,1.28855e+02
1.38283e-02,1.22260e+02
1.40181e-02,1.15987e+02
1.42104e-02,1.10017e+02
1.44054e-02,1.04338e+02
1.46030e-02,9.89355e+01
1.48034e-02,9.37953e+01
1.50065e-02,8.89051e+01
1.52124e-02,8.42529e+01
1.54211e-02,7.98272e+01
1.56327e-02,7.56169e+01
1.58472e-02,7.16116e+01
1.60646e-02,6.78015e+01
1.62850e-02,6.41770e+01
1.65084e-02,6.07292e+01
1.67349e-02,5.74494e+01
1.69646e-02,5.43297e+01
1.71973e-02,5.13621e+01
1.74333e-02,4.85392e+01
1.76725e-02,4.58542e+01
1.79149e-02,4.33002e+01
1.81607e-02,4.08709e+01
1.84099e-02,3.85603e+01
1.86625e-02,3.63625e+01
1.89185e-02,3.42721e+01
1.91781e-02,3.22838e+01
1.94412e-02,3.03927e+01
1.97080e-02,2.85941e+01
1.99784e-02,2.68834e+01
2.02525e-02,2.52564e+01
2.05304e-02,2.37090e+01
2.08120e-02,2.22372e+01
2.10976e-02,2.08375e+01
2.13871e-02,1.95063e+01
2.16805e-02,1.82403e+01
2.19780e-02,1.70362e+01
2.22795e-02,1.58911e+01
2.25852e-02,1.48021e+01
2.28951e-02,1.37664e+01
2.32092e-02,1.27815e+01
2.35276e-02,1.18448e+01
2.38504e-02,1.09541e+01
2.41777e-02,1.01069e+01
2.45094e-02,9.30134e+00
2.48457e-02,8.53524e+00
2.51866e-02,7.80671e+00
2.55321e-02,7.11390e+00
2.58824e-02,6.45506e+00
2.62375e-02,5.82855e+00
2.65975e-02,5.23277e+00
2.69625e-02,4.66622e+00
2.73324e-02,4.12747e+00
2.77074e-02,3.61516e+00
2.80876e-02,3.12799e+00
2.84729e-02,2.66474e+00
2.88636e-02,2.22423e+00
2.92596e-02,1.80534e+00
2.96610e-02,1.40703e+00
3.00680e-02,1.02827e+00
3.04805e-02,6.68112e-01
3.08987e-02,3.25645e-01
3.13227e-02,0.00000e+00
