m1=90951.822, m2=12.400, gsp=2.216, rhosp=3126.009
fGW[Hz],dPh[rad]
2.85158e-03,9.75825e+03
2.89243e-03,9.32239e+03
2.93386e-03,8.90494e+03
2.97589e-03,8.50516e+03
3.01852e-03,8.12236e+03
3.06176e-03,7.75588e+03
3.10563e-03,7.40505e+03
3.15012e-03,7.06927e+03
3.19524e-03,6.74792e+03
3.24102e-03,6.44044e+03
3.28744e-03,6.14625e+03
3.33454e-03,5.86483e+03
3.38231e-03,5.59565e+03
3.43076e-03,5.33822e+03
3.47991e-03,5.09205e+03
3.52976e-03,4.85670e+03
3.58033e-03,4.63170e+03
3.63162e-03,4.41664e+03
3.68364e-03,4.21110e+03
3.73641e-03,4.01469e+03
3.78994e-03,3.82702e+03
3.84423e-03,3.64773e+03
3.89930e-03,3.47647e+03
3.95516e-03,3.31290e+03
4.01182e-03,3.15670e+03
4.06929e-03,3.00754e+03
4.12759e-03,2.86514e+03
4.18672e-03,2.72920e+03
4.24669e-03,2.59945e+03
4.30753e-03,2.47562e+03
4.36924e-03,2.35745e+03
4.43183e-03,2.24470e+03
4.49532e-03,2.13713e+03
4.55971e-03,2.03452e+03
4.62504e-03,1.93666e+03
4.69129e-03,1.84332e+03
4.75850e-03,1.75432e+03
4.82666e-03,1.66947e+03
4.89581e-03,1.58857e+03
4.96594e-03,1.51145e+03
5.03708e-03,1.43795e+03
5.10924e-03,1.36791e+03
5.18244e-03,1.30116e+03
5.25668e-03,1.23756e+03
5.33198e-03,1.17697e+03
5.40836e-03,1.11925e+03
5.48584e-03,1.06427e+03
5.56443e-03,1.01191e+03
5.64414e-03,9.62051e+02
5.72500e-03,9.14573e+02
5.80701e-03,8.69368e+02
5.89020e-03,8.26334e+02
5.97458e-03,7.85369e+02
6.06017e-03,7.46378e+02
6.14699e-03,7.09269e+02
6.23504e-03,6.73956e+02
6.32436e-03,6.40354e+02
6.41496e-03,6.08383e+02
6.50686e-03,5.77967e+02
6.60008e-03,5.49034e+02
6.69463e-03,5.21512e+02
6.79053e-03,4.95337e+02
6.88781e-03,4.70443e+02
6.98648e-03,4.46771e+02
7.08656e-03,4.24263e+02
7.18808e-03,4.02862e+02
7.29106e-03,3.82516e+02
7.39550e-03,3.63176e+02
7.50145e-03,3.44791e+02
7.60891e-03,3.27318e+02
7.71791e-03,3.10711e+02
7.82848e-03,2.94929e+02
7.94062e-03,2.79933e+02
8.05438e-03,2.65683e+02
8.16976e-03,2.52145e+02
8.28680e-03,2.39283e+02
8.40551e-03,2.27065e+02
8.52592e-03,2.15458e+02
8.64806e-03,2.04434e+02
8.77195e-03,1.93964e+02
8.89761e-03,1.84020e+02
9.02507e-03,1.74577e+02
9.15436e-03,1.65609e+02
9.28550e-03,1.57095e+02
9.41852e-03,1.49011e+02
9.55345e-03,1.41335e+02
9.69031e-03,1.34049e+02
9.82913e-03,1.27131e+02
9.96993e-03,1.20565e+02
1.01128e-02,1.14333e+02
1.02576e-02,1.08418e+02
1.04046e-02,1.02803e+02
1.05536e-02,9.74753e+01
1.07048e-02,9.24191e+01
1.08582e-02,8.76210e+01
1.10137e-02,8.30683e+01
1.11715e-02,7.87484e+01
1.13315e-02,7.46498e+01
1.14939e-02,7.07612e+01
1.16585e-02,6.70721e+01
1.18255e-02,6.35725e+01
1.19949e-02,6.02526e+01
1.21668e-02,5.71035e+01
1.23411e-02,5.41165e+01
1.25179e-02,5.12834e+01
1.26972e-02,4.85963e+01
1.28791e-02,4.60478e+01
1.30636e-02,4.36309e+01
1.32507e-02,4.13389e+01
1.34405e-02,3.91654e+01
1.36331e-02,3.71043e+01
1.38284e-02,3.51499e+01
1.40265e-02,3.32968e+01
1.42274e-02,3.15398e+01
1.44312e-02,2.98739e+01
1.46380e-02,2.82945e+01
1.48477e-02,2.67971e+01
1.50604e-02,2.53776e+01
1.52761e-02,2.40318e+01
1.54950e-02,2.27561e+01
1.57169e-02,2.15468e+01
1.59421e-02,2.04005e+01
1.61705e-02,1.93140e+01
1.64021e-02,1.82841e+01
1.66371e-02,1.73079e+01
1.68754e-02,1.63827e+01
1.71172e-02,1.55058e+01
1.73624e-02,1.46747e+01
1.76111e-02,1.38871e+01
1.78634e-02,1.31407e+01
1.81193e-02,1.24333e+01
1.83789e-02,1.17629e+01
1.86421e-02,1.11277e+01
1.89092e-02,1.05257e+01
1.91801e-02,9.95531e+00
1.94549e-02,9.41482e+00
1.97336e-02,8.90267e+00
2.00162e-02,8.41740e+00
2.03030e-02,7.95761e+00
2.05938e-02,7.52196e+00
2.08889e-02,7.10920e+00
2.11881e-02,6.71813e+00
2.14916e-02,6.34762e+00
2.17995e-02,5.99660e+00
2.21118e-02,5.66404e+00
2.24286e-02,5.34899e+00
2.27499e-02,5.05052e+00
2.30758e-02,4.76776e+00
2.34063e-02,4.49990e+00
2.37417e-02,4.24616e+00
2.40818e-02,4.00579e+00
2.44268e-02,3.77809e+00
2.47767e-02,3.56240e+00
2.51316e-02,3.35808e+00
2.54916e-02,3.16455e+00
2.58568e-02,2.98123e+00
2.62272e-02,2.80759e+00
2.66030e-02,2.64312e+00
2.69841e-02,2.48734e+00
2.73706e-02,2.33978e+00
2.77627e-02,2.20002e+00
2.81604e-02,2.06765e+00
2.85638e-02,1.94228e+00
2.89730e-02,1.82354e+00
2.93881e-02,1.71107e+00
2.98091e-02,1.60456e+00
3.02361e-02,1.50368e+00
3.06693e-02,1.40814e+00
3.11086e-02,1.31766e+00
3.15543e-02,1.23197e+00
3.20063e-02,1.15081e+00
3.24648e-02,1.07396e+00
3.29299e-02,1.00117e+00
3.34016e-02,9.32240e-01
3.38801e-02,8.66962e-01
3.43655e-02,8.05145e-01
3.48578e-02,7.46604e-01
3.53571e-02,6.91166e-01
3.58636e-02,6.38668e-01
3.63774e-02,5.88954e-01
3.68985e-02,5.41876e-01
3.74271e-02,4.97296e-01
3.79633e-02,4.55081e-01
3.85071e-02,4.15105e-01
3.90588e-02,3.77252e-01
3.96183e-02,3.41407e-01
4.01859e-02,3.07465e-01
4.07615e-02,2.75324e-01
4.13455e-02,2.44891e-01
4.19378e-02,2.16073e-01
4.25385e-02,1.88785e-01
4.31479e-02,1.62947e-01
4.37660e-02,1.38482e-01
4.43930e-02,1.15316e-01
4.50290e-02,9.33809e-02
4.56740e-02,7.26113e-02
4.63283e-02,5.29455e-02
4.69920e-02,3.43248e-02
4.76652e-02,1.66938e-02
4.83480e-02,0.00000e+00
