m1=80606.884, m2=4.005, gsp=2.172, rhosp=2634.033
fGW[Hz],dPh[rad]
4.49004e-03,4.93737e+03
4.54674e-03,4.71799e+03
4.60416e-03,4.50811e+03
4.66230e-03,4.30733e+03
4.72118e-03,4.11526e+03
4.78080e-03,3.93155e+03
4.84117e-03,3.75584e+03
4.90231e-03,3.58780e+03
4.96421e-03,3.42710e+03
5.02690e-03,3.27343e+03
5.09038e-03,3.12649e+03
5.15466e-03,2.98600e+03
5.21976e-03,2.85169e+03
5.28567e-03,2.72329e+03
5.35242e-03,2.60054e+03
5.42001e-03,2.48321e+03
5.48846e-03,2.37107e+03
5.55777e-03,2.26389e+03
5.62795e-03,2.16145e+03
5.69902e-03,2.06356e+03
5.77099e-03,1.97002e+03
5.84387e-03,1.88064e+03
5.91766e-03,1.79523e+03
5.99239e-03,1.71364e+03
6.06807e-03,1.63568e+03
6.14469e-03,1.56121e+03
6.22229e-03,1.49007e+03
6.30087e-03,1.42211e+03
6.38043e-03,1.35721e+03
6.46101e-03,1.29521e+03
6.54260e-03,1.23600e+03
6.62522e-03,1.17946e+03
6.70888e-03,1.12546e+03
6.79360e-03,1.07389e+03
6.87940e-03,1.02465e+03
6.96627e-03,9.77634e+02
7.05424e-03,9.32743e+02
7.14332e-03,8.89884e+02
7.23353e-03,8.48965e+02
7.32487e-03,8.09902e+02
7.41737e-03,7.72611e+02
7.51104e-03,7.37014e+02
7.60589e-03,7.03034e+02
7.70194e-03,6.70601e+02
7.79920e-03,6.39644e+02
7.89769e-03,6.10098e+02
7.99742e-03,5.81900e+02
8.09842e-03,5.54989e+02
8.20069e-03,5.29307e+02
8.30425e-03,5.04799e+02
8.40911e-03,4.81413e+02
8.51530e-03,4.59097e+02
8.62284e-03,4.37804e+02
8.73173e-03,4.17487e+02
8.84199e-03,3.98102e+02
8.95365e-03,3.79608e+02
9.06672e-03,3.61963e+02
9.18121e-03,3.45130e+02
9.29716e-03,3.29071e+02
9.41456e-03,3.13752e+02
9.53345e-03,2.99139e+02
9.65384e-03,2.85199e+02
9.77575e-03,2.71902e+02
9.89920e-03,2.59219e+02
1.00242e-02,2.47122e+02
1.01508e-02,2.35583e+02
1.02790e-02,2.24578e+02
1.04088e-02,2.14083e+02
1.05402e-02,2.04073e+02
1.06733e-02,1.94527e+02
1.08081e-02,1.85423e+02
1.09446e-02,1.76741e+02
1.10828e-02,1.68462e+02
1.12228e-02,1.60567e+02
1.13645e-02,1.53039e+02
1.15080e-02,1.45861e+02
1.16533e-02,1.39016e+02
1.18005e-02,1.32489e+02
1.19495e-02,1.26266e+02
1.21004e-02,1.20333e+02
1.22532e-02,1.14676e+02
1.24079e-02,1.09282e+02
1.25646e-02,1.04140e+02
1.27233e-02,9.92379e+01
1.28840e-02,9.45641e+01
1.30467e-02,9.01084e+01
1.32114e-02,8.58607e+01
1.33783e-02,8.18114e+01
1.35472e-02,7.79512e+01
1.37183e-02,7.42713e+01
1.38915e-02,7.07636e+01
1.40669e-02,6.74198e+01
1.42446e-02,6.42325e+01
1.44245e-02,6.11943e+01
1.46066e-02,5.82984e+01
1.47911e-02,5.55380e+01
1.49779e-02,5.29070e+01
1.51670e-02,5.03993e+01
1.53585e-02,4.80091e+01
1.55525e-02,4.57309e+01
1.57489e-02,4.35596e+01
1.59478e-02,4.14902e+01
1.61492e-02,3.95179e+01
1.63531e-02,3.76382e+01
1.65596e-02,3.58467e+01
1.67687e-02,3.41394e+01
1.69805e-02,3.25123e+01
1.71949e-02,3.09616e+01
1.74120e-02,2.94839e+01
1.76319e-02,2.80756e+01
1.78546e-02,2.67335e+01
1.80801e-02,2.54546e+01
1.83084e-02,2.42358e+01
1.85396e-02,2.30744e+01
1.87737e-02,2.19677e+01
1.90108e-02,2.09131e+01
1.92508e-02,1.99081e+01
1.94939e-02,1.89505e+01
1.97401e-02,1.80379e+01
1.99894e-02,1.71684e+01
2.02418e-02,1.63399e+01
2.04974e-02,1.55504e+01
2.07563e-02,1.47982e+01
2.10184e-02,1.40814e+01
2.12838e-02,1.33984e+01
2.15526e-02,1.27476e+01
2.18248e-02,1.21276e+01
2.21004e-02,1.15368e+01
2.23795e-02,1.09739e+01
2.26621e-02,1.04376e+01
2.29483e-02,9.92656e+00
2.32380e-02,9.43969e+00
2.35315e-02,8.97581e+00
2.38287e-02,8.53384e+00
2.41296e-02,8.11275e+00
2.44343e-02,7.71156e+00
2.47428e-02,7.32933e+00
2.50553e-02,6.96516e+00
2.53717e-02,6.61821e+00
2.56921e-02,6.28767e+00
2.60165e-02,5.97275e+00
2.63451e-02,5.67273e+00
2.66778e-02,5.38689e+00
2.70147e-02,5.11458e+00
2.73558e-02,4.85515e+00
2.77013e-02,4.60800e+00
2.80511e-02,4.37253e+00
2.84053e-02,4.14822e+00
2.87640e-02,3.93452e+00
2.91273e-02,3.73093e+00
2.94951e-02,3.53699e+00
2.98675e-02,3.35223e+00
3.02447e-02,3.17621e+00
3.06267e-02,3.00853e+00
3.10134e-02,2.84879e+00
3.14051e-02,2.69662e+00
3.18016e-02,2.55166e+00
3.22032e-02,2.41356e+00
3.26099e-02,2.28201e+00
3.30217e-02,2.15669e+00
3.34387e-02,2.03731e+00
3.38610e-02,1.92359e+00
3.42886e-02,1.81525e+00
3.47216e-02,1.71206e+00
3.51600e-02,1.61375e+00
3.56041e-02,1.52010e+00
3.60537e-02,1.43090e+00
3.65090e-02,1.34592e+00
3.69700e-02,1.26497e+00
3.74369e-02,1.18787e+00
3.79096e-02,1.11441e+00
3.83883e-02,1.04445e+00
3.88731e-02,9.77798e-01
3.93640e-02,9.14311e-01
3.98611e-02,8.53835e-01
4.03645e-02,7.96229e-01
4.08742e-02,7.41355e-01
4.13904e-02,6.89085e-01
4.19131e-02,6.39295e-01
4.24423e-02,5.91868e-01
4.29783e-02,5.46692e-01
4.35210e-02,5.03660e-01
4.40706e-02,4.62670e-01
4.46272e-02,4.23625e-01
4.51907e-02,3.86434e-01
4.57614e-02,3.51008e-01
4.63393e-02,3.17264e-01
4.69245e-02,2.85122e-01
4.75170e-02,2.54506e-01
4.81171e-02,2.25344e-01
4.87247e-02,1.97566e-01
4.93400e-02,1.71107e-01
4.99631e-02,1.45905e-01
5.05940e-02,1.21899e-01
5.12329e-02,9.90337e-02
5.18799e-02,7.72541e-02
5.25351e-02,5.65088e-02
5.31985e-02,3.67488e-02
5.38703e-02,1.79274e-02
5.45506e-02,0.00000e+00
