m1=5086.833, m2=90.224, gsp=2.120, rhosp=4563.441
fGW[Hz],dPh[rad]
2.79195e-03,8.03240e+01
2.87371e-03,7.52602e+01
2.95787e-03,7.05155e+01
3.04449e-03,6.60696e+01
3.13365e-03,6.19039e+01
3.22542e-03,5.80006e+01
3.31988e-03,5.43432e+01
3.41711e-03,5.09163e+01
3.51718e-03,4.77053e+01
3.62018e-03,4.46967e+01
3.72620e-03,4.18776e+01
3.83532e-03,3.92361e+01
3.94764e-03,3.67611e+01
4.06325e-03,3.44420e+01
4.18224e-03,3.22691e+01
4.30472e-03,3.02332e+01
4.43078e-03,2.83255e+01
4.56054e-03,2.65381e+01
4.69410e-03,2.48633e+01
4.83157e-03,2.32940e+01
4.97306e-03,2.18237e+01
5.11870e-03,2.04461e+01
5.26860e-03,1.91552e+01
5.42289e-03,1.79458e+01
5.58170e-03,1.68126e+01
5.74517e-03,1.57508e+01
5.91342e-03,1.47560e+01
6.08659e-03,1.38239e+01
6.26484e-03,1.29506e+01
6.44831e-03,1.21323e+01
6.63715e-03,1.13656e+01
6.83152e-03,1.06473e+01
7.03158e-03,9.97427e+00
7.23751e-03,9.34369e+00
7.44946e-03,8.75288e+00
7.66762e-03,8.19934e+00
7.89217e-03,7.68072e+00
8.12329e-03,7.19481e+00
8.36119e-03,6.73956e+00
8.60605e-03,6.31303e+00
8.85808e-03,5.91341e+00
9.11749e-03,5.53902e+00
9.38450e-03,5.18825e+00
9.65933e-03,4.85962e+00
9.94221e-03,4.55173e+00
1.02334e-02,4.26328e+00
1.05331e-02,3.99305e+00
1.08415e-02,3.73987e+00
1.11590e-02,3.50268e+00
1.14858e-02,3.28048e+00
1.18222e-02,3.07231e+00
1.21684e-02,2.87728e+00
1.25248e-02,2.69458e+00
1.28915e-02,2.52343e+00
1.32691e-02,2.36309e+00
1.36577e-02,2.21289e+00
1.40576e-02,2.07218e+00
1.44693e-02,1.94037e+00
1.48931e-02,1.81690e+00
1.53292e-02,1.70123e+00
1.57781e-02,1.59288e+00
1.62402e-02,1.49139e+00
1.67158e-02,1.39632e+00
1.72053e-02,1.30727e+00
1.77092e-02,1.22386e+00
1.82278e-02,1.14573e+00
1.87616e-02,1.07254e+00
1.93111e-02,1.00400e+00
1.98766e-02,9.39799e-01
2.04587e-02,8.79669e-01
2.10578e-02,8.23351e-01
2.16745e-02,7.70606e-01
2.23093e-02,7.21207e-01
2.29626e-02,6.74943e-01
2.36351e-02,6.31617e-01
2.43272e-02,5.91042e-01
2.50396e-02,5.53046e-01
2.57729e-02,5.17464e-01
2.65277e-02,4.84144e-01
2.73046e-02,4.52944e-01
2.81042e-02,4.23730e-01
2.89272e-02,3.96375e-01
2.97744e-02,3.70762e-01
3.06463e-02,3.46782e-01
3.15438e-02,3.24330e-01
3.24676e-02,3.03311e-01
3.34184e-02,2.83632e-01
3.43971e-02,2.65211e-01
3.54044e-02,2.47966e-01
3.64413e-02,2.31824e-01
3.75085e-02,2.16714e-01
3.86069e-02,2.02572e-01
3.97375e-02,1.89335e-01
4.09013e-02,1.76947e-01
4.20991e-02,1.65353e-01
4.33320e-02,1.54504e-01
4.46009e-02,1.44352e-01
4.59071e-02,1.34852e-01
4.72515e-02,1.25964e-01
4.86353e-02,1.17648e-01
5.00596e-02,1.09868e-01
5.15256e-02,1.02590e-01
5.30345e-02,9.57826e-02
5.45877e-02,8.94151e-02
5.61863e-02,8.34597e-02
5.78317e-02,7.78902e-02
5.95254e-02,7.26821e-02
6.12686e-02,6.78122e-02
6.30628e-02,6.32590e-02
6.49097e-02,5.90022e-02
6.68106e-02,5.50231e-02
6.87671e-02,5.13037e-02
7.07810e-02,4.78275e-02
7.28539e-02,4.45790e-02
7.49874e-02,4.15435e-02
7.71834e-02,3.87074e-02
7.94438e-02,3.60579e-02
8.17703e-02,3.35830e-02
8.41650e-02,3.12716e-02
8.66298e-02,2.91131e-02
8.91668e-02,2.70976e-02
9.17781e-02,2.52160e-02
9.44658e-02,2.34596e-02
9.72323e-02,2.18203e-02
1.00080e-01,2.02906e-02
1.03011e-01,1.88633e-02
1.06027e-01,1.75319e-02
1.09132e-01,1.62901e-02
1.12328e-01,1.51321e-02
1.15618e-01,1.40524e-02
1.19004e-01,1.30460e-02
1.22489e-01,1.21080e-02
1.26076e-01,1.12341e-02
1.29768e-01,1.04199e-02
1.33569e-01,9.66155e-03
1.37480e-01,8.95544e-03
1.41506e-01,8.29809e-03
1.45650e-01,7.68629e-03
1.49916e-01,7.11703e-03
1.54306e-01,6.58749e-03
1.58825e-01,6.09503e-03
1.63476e-01,5.63718e-03
1.68264e-01,5.21164e-03
1.73191e-01,4.81625e-03
1.78263e-01,4.44897e-03
1.83484e-01,4.10792e-03
1.88857e-01,3.79133e-03
1.94388e-01,3.49755e-03
2.00081e-01,3.22502e-03
2.05940e-01,2.97230e-03
2.11971e-01,2.73802e-03
2.18179e-01,2.52094e-03
2.24568e-01,2.31986e-03
2.31145e-01,2.13367e-03
2.37914e-01,1.96135e-03
2.44881e-01,1.80192e-03
2.52053e-01,1.65449e-03
2.59434e-01,1.51820e-03
2.67032e-01,1.39228e-03
2.74852e-01,1.27598e-03
2.82901e-01,1.16863e-03
2.91186e-01,1.06957e-03
2.99714e-01,9.78212e-04
3.08491e-01,8.93998e-04
3.17525e-01,8.16407e-04
3.26824e-01,7.44953e-04
3.36395e-01,6.79185e-04
3.46247e-01,6.18681e-04
3.56386e-01,5.63049e-04
3.66823e-01,5.11923e-04
3.77566e-01,4.64964e-04
3.88623e-01,4.21854e-04
4.00004e-01,3.82300e-04
4.11718e-01,3.46029e-04
4.23776e-01,3.12785e-04
4.36186e-01,2.82334e-04
4.48960e-01,2.54455e-04
4.62108e-01,2.28947e-04
4.75641e-01,2.05619e-04
4.89570e-01,1.84299e-04
5.03907e-01,1.64823e-04
5.18665e-01,1.47043e-04
5.33854e-01,1.30819e-04
5.49488e-01,1.16023e-04
5.65580e-01,1.02538e-04
5.82143e-01,9.02533e-05
5.99191e-01,7.90689e-05
6.16739e-01,6.88914e-05
6.34800e-01,5.96352e-05
6.53391e-01,5.12213e-05
6.72525e-01,4.35770e-05
6.92221e-01,3.66356e-05
7.12493e-01,3.03356e-05
7.33358e-01,2.46206e-05
7.54835e-01,1.94389e-05
7.76940e-01,1.47429e-05
7.99693e-01,1.04893e-05
8.23113e-01,6.63800e-06
8.47218e-01,3.15270e-06
8.72029e-01,0.00000e+00
