m1=95275.775, m2=10.946, gsp=2.234, rhosp=419.581
fGW[Hz],dPh[rad]
2.95359e-03,7.82042e+03
2.99468e-03,7.47244e+03
3.03633e-03,7.13918e+03
3.07857e-03,6.82006e+03
3.12139e-03,6.51451e+03
3.16481e-03,6.22200e+03
3.20883e-03,5.94201e+03
3.25346e-03,5.67403e+03
3.29872e-03,5.41757e+03
3.34460e-03,5.17218e+03
3.39112e-03,4.93740e+03
3.43829e-03,4.71281e+03
3.48612e-03,4.49799e+03
3.53461e-03,4.29253e+03
3.58377e-03,4.09605e+03
3.63362e-03,3.90819e+03
3.68416e-03,3.72859e+03
3.73541e-03,3.55690e+03
3.78737e-03,3.39279e+03
3.84005e-03,3.23595e+03
3.89346e-03,3.08607e+03
3.94762e-03,2.94287e+03
4.00253e-03,2.80605e+03
4.05820e-03,2.67536e+03
4.11465e-03,2.55052e+03
4.17188e-03,2.43129e+03
4.22991e-03,2.31744e+03
4.28875e-03,2.20872e+03
4.34840e-03,2.10492e+03
4.40889e-03,2.00584e+03
4.47022e-03,1.91125e+03
4.53239e-03,1.82098e+03
4.59544e-03,1.73483e+03
4.65936e-03,1.65262e+03
4.72417e-03,1.57418e+03
4.78988e-03,1.49934e+03
4.85651e-03,1.42795e+03
4.92406e-03,1.35986e+03
4.99255e-03,1.29491e+03
5.06200e-03,1.23298e+03
5.13241e-03,1.17391e+03
5.20380e-03,1.11760e+03
5.27618e-03,1.06391e+03
5.34957e-03,1.01273e+03
5.42398e-03,9.63940e+02
5.49943e-03,9.17439e+02
5.57592e-03,8.73121e+02
5.65348e-03,8.30888e+02
5.73212e-03,7.90645e+02
5.81185e-03,7.52301e+02
5.89269e-03,7.15771e+02
5.97466e-03,6.80970e+02
6.05776e-03,6.47821e+02
6.14202e-03,6.16248e+02
6.22746e-03,5.86177e+02
6.31408e-03,5.57540e+02
6.40190e-03,5.30270e+02
6.49095e-03,5.04304e+02
6.58124e-03,4.79582e+02
6.67278e-03,4.56046e+02
6.76560e-03,4.33641e+02
6.85971e-03,4.12313e+02
6.95512e-03,3.92013e+02
7.05186e-03,3.72692e+02
7.14995e-03,3.54305e+02
7.24941e-03,3.36807e+02
7.35024e-03,3.20156e+02
7.45248e-03,3.04314e+02
7.55614e-03,2.89240e+02
7.66125e-03,2.74900e+02
7.76781e-03,2.61258e+02
7.87586e-03,2.48281e+02
7.98541e-03,2.35937e+02
8.09649e-03,2.24196e+02
8.20911e-03,2.13029e+02
8.32329e-03,2.02410e+02
8.43907e-03,1.92311e+02
8.55645e-03,1.82708e+02
8.67547e-03,1.73576e+02
8.79614e-03,1.64894e+02
8.91849e-03,1.56639e+02
9.04254e-03,1.48791e+02
9.16832e-03,1.41330e+02
9.29585e-03,1.34238e+02
9.42515e-03,1.27496e+02
9.55625e-03,1.21088e+02
9.68918e-03,1.14997e+02
9.82395e-03,1.09208e+02
9.96060e-03,1.03706e+02
1.00991e-02,9.84779e+01
1.02396e-02,9.35092e+01
1.03821e-02,8.87876e+01
1.05265e-02,8.43011e+01
1.06729e-02,8.00380e+01
1.08213e-02,7.59875e+01
1.09719e-02,7.21392e+01
1.11245e-02,6.84829e+01
1.12792e-02,6.50094e+01
1.14361e-02,6.17096e+01
1.15952e-02,5.85750e+01
1.17565e-02,5.55973e+01
1.19200e-02,5.27689e+01
1.20858e-02,5.00823e+01
1.22539e-02,4.75305e+01
1.24243e-02,4.51068e+01
1.25972e-02,4.28049e+01
1.27724e-02,4.06188e+01
1.29500e-02,3.85426e+01
1.31302e-02,3.65709e+01
1.33128e-02,3.46985e+01
1.34980e-02,3.29205e+01
1.36857e-02,3.12322e+01
1.38761e-02,2.96290e+01
1.40691e-02,2.81068e+01
1.42648e-02,2.66614e+01
1.44632e-02,2.52890e+01
1.46644e-02,2.39861e+01
1.48684e-02,2.27490e+01
1.50752e-02,2.15746e+01
1.52849e-02,2.04596e+01
1.54975e-02,1.94011e+01
1.57131e-02,1.83962e+01
1.59316e-02,1.74423e+01
1.61532e-02,1.65367e+01
1.63779e-02,1.56771e+01
1.66057e-02,1.48612e+01
1.68367e-02,1.40866e+01
1.70709e-02,1.33515e+01
1.73084e-02,1.26536e+01
1.75491e-02,1.19913e+01
1.77932e-02,1.13627e+01
1.80407e-02,1.07660e+01
1.82916e-02,1.01997e+01
1.85461e-02,9.66225e+00
1.88040e-02,9.15217e+00
1.90656e-02,8.66808e+00
1.93308e-02,8.20866e+00
1.95997e-02,7.77266e+00
1.98723e-02,7.35890e+00
2.01487e-02,6.96625e+00
2.04290e-02,6.59363e+00
2.07131e-02,6.24004e+00
2.10013e-02,5.90450e+00
2.12934e-02,5.58609e+00
2.15896e-02,5.28396e+00
2.18899e-02,4.99726e+00
2.21943e-02,4.72522e+00
2.25031e-02,4.46709e+00
2.28161e-02,4.22216e+00
2.31334e-02,3.98977e+00
2.34552e-02,3.76926e+00
2.37815e-02,3.56003e+00
2.41123e-02,3.36152e+00
2.44477e-02,3.17318e+00
2.47877e-02,2.99447e+00
2.51325e-02,2.82493e+00
2.54821e-02,2.66407e+00
2.58365e-02,2.51145e+00
2.61959e-02,2.36666e+00
2.65603e-02,2.22929e+00
2.69297e-02,2.09896e+00
2.73043e-02,1.97532e+00
2.76841e-02,1.85802e+00
2.80692e-02,1.74674e+00
2.84596e-02,1.64117e+00
2.88555e-02,1.54101e+00
2.92568e-02,1.44600e+00
2.96638e-02,1.35587e+00
3.00764e-02,1.27036e+00
3.04948e-02,1.18925e+00
3.09189e-02,1.11230e+00
3.13490e-02,1.03931e+00
3.17851e-02,9.70066e-01
3.22272e-02,9.04381e-01
3.26755e-02,8.42072e-01
3.31300e-02,7.82966e-01
3.35908e-02,7.26898e-01
3.40580e-02,6.73713e-01
3.45318e-02,6.23263e-01
3.50121e-02,5.75408e-01
3.54991e-02,5.30014e-01
3.59929e-02,4.86956e-01
3.64935e-02,4.46113e-01
3.70011e-02,4.07371e-01
3.75158e-02,3.70623e-01
3.80376e-02,3.35766e-01
3.85667e-02,3.02704e-01
3.91032e-02,2.71343e-01
3.96471e-02,2.41597e-01
4.01986e-02,2.13383e-01
4.07577e-02,1.86621e-01
4.13246e-02,1.61238e-01
4.18994e-02,1.37161e-01
4.24822e-02,1.14325e-01
4.30732e-02,9.26656e-02
4.36723e-02,7.21217e-02
4.42798e-02,5.26363e-02
4.48957e-02,3.41548e-02
4.55202e-02,1.66257e-02
4.61533e-02,0.00000e+00
