m1=6275.790, m2=5.837, gsp=2.276, rhosp=15.466
fGW[Hz],dPh[rad]
7.38105e-03,6.84626e+03
7.55189e-03,6.50587e+03
7.72669e-03,6.18207e+03
7.90553e-03,5.87406e+03
8.08851e-03,5.58109e+03
8.27572e-03,5.30243e+03
8.46727e-03,5.03738e+03
8.66325e-03,4.78529e+03
8.86377e-03,4.54554e+03
9.06893e-03,4.31752e+03
9.27884e-03,4.10067e+03
9.49361e-03,3.89445e+03
9.71335e-03,3.69834e+03
9.93817e-03,3.51187e+03
1.01682e-02,3.33455e+03
1.04036e-02,3.16595e+03
1.06444e-02,3.00564e+03
1.08907e-02,2.85323e+03
1.11428e-02,2.70832e+03
1.14007e-02,2.57057e+03
1.16646e-02,2.43961e+03
1.19346e-02,2.31513e+03
1.22108e-02,2.19680e+03
1.24934e-02,2.08433e+03
1.27826e-02,1.97744e+03
1.30785e-02,1.87584e+03
1.33812e-02,1.77930e+03
1.36909e-02,1.68755e+03
1.40078e-02,1.60037e+03
1.43320e-02,1.51753e+03
1.46638e-02,1.43882e+03
1.50032e-02,1.36405e+03
1.53504e-02,1.29302e+03
1.57057e-02,1.22554e+03
1.60692e-02,1.16145e+03
1.64412e-02,1.10057e+03
1.68217e-02,1.04276e+03
1.72111e-02,9.87855e+02
1.76094e-02,9.35722e+02
1.80170e-02,8.86223e+02
1.84341e-02,8.39228e+02
1.88607e-02,7.94615e+02
1.92973e-02,7.52267e+02
1.97439e-02,7.12072e+02
2.02009e-02,6.73925e+02
2.06685e-02,6.37725e+02
2.11469e-02,6.03376e+02
2.16363e-02,5.70787e+02
2.21371e-02,5.39871e+02
2.26495e-02,5.10546e+02
2.31738e-02,4.82732e+02
2.37101e-02,4.56355e+02
2.42589e-02,4.31344e+02
2.48204e-02,4.07630e+02
2.53949e-02,3.85151e+02
2.59827e-02,3.63843e+02
2.65841e-02,3.43649e+02
2.71994e-02,3.24513e+02
2.78290e-02,3.06382e+02
2.84731e-02,2.89206e+02
2.91321e-02,2.72938e+02
2.98064e-02,2.57531e+02
3.04963e-02,2.42942e+02
3.12022e-02,2.29131e+02
3.19244e-02,2.16057e+02
3.26633e-02,2.03684e+02
3.34193e-02,1.91976e+02
3.41928e-02,1.80899e+02
3.49843e-02,1.70422e+02
3.57940e-02,1.60513e+02
3.66225e-02,1.51144e+02
3.74701e-02,1.42287e+02
3.83374e-02,1.33915e+02
3.92248e-02,1.26004e+02
4.01327e-02,1.18531e+02
4.10616e-02,1.11471e+02
4.20120e-02,1.04805e+02
4.29844e-02,9.85107e+01
4.39793e-02,9.25697e+01
4.49972e-02,8.69632e+01
4.60387e-02,8.16737e+01
4.71044e-02,7.66844e+01
4.81946e-02,7.19797e+01
4.93101e-02,6.75442e+01
5.04515e-02,6.33638e+01
5.16192e-02,5.94248e+01
5.28140e-02,5.57143e+01
5.40364e-02,5.22200e+01
5.52871e-02,4.89302e+01
5.65668e-02,4.58338e+01
5.78761e-02,4.29203e+01
5.92157e-02,4.01797e+01
6.05863e-02,3.76026e+01
6.19886e-02,3.51798e+01
6.34234e-02,3.29029e+01
6.48914e-02,3.07637e+01
6.63933e-02,2.87545e+01
6.79301e-02,2.68681e+01
6.95024e-02,2.50974e+01
7.11111e-02,2.34360e+01
7.27570e-02,2.18776e+01
7.44410e-02,2.04163e+01
7.61640e-02,1.90466e+01
7.79269e-02,1.77630e+01
7.97306e-02,1.65606e+01
8.15761e-02,1.54347e+01
8.34642e-02,1.43807e+01
8.53961e-02,1.33944e+01
8.73726e-02,1.24718e+01
8.93949e-02,1.16090e+01
9.14641e-02,1.08025e+01
9.35811e-02,1.00488e+01
9.57471e-02,9.34479e+00
9.79633e-02,8.68734e+00
1.00231e-01,8.07363e+00
1.02551e-01,7.50094e+00
1.04924e-01,6.96672e+00
1.07353e-01,6.46856e+00
1.09838e-01,6.00418e+00
1.12380e-01,5.57145e+00
1.14981e-01,5.16836e+00
1.17642e-01,4.79299e+00
1.20365e-01,4.44357e+00
1.23151e-01,4.11841e+00
1.26002e-01,3.81593e+00
1.28918e-01,3.53464e+00
1.31902e-01,3.27315e+00
1.34955e-01,3.03015e+00
1.38079e-01,2.80439e+00
1.41275e-01,2.59473e+00
1.44545e-01,2.40009e+00
1.47890e-01,2.21943e+00
1.51313e-01,2.05182e+00
1.54816e-01,1.89635e+00
1.58399e-01,1.75220e+00
1.62065e-01,1.61857e+00
1.65816e-01,1.49474e+00
1.69654e-01,1.38003e+00
1.73581e-01,1.27378e+00
1.77599e-01,1.17541e+00
1.81709e-01,1.08436e+00
1.85915e-01,1.00010e+00
1.90218e-01,9.22158e-01
1.94621e-01,8.50067e-01
1.99126e-01,7.83410e-01
2.03735e-01,7.21794e-01
2.08451e-01,6.64850e-01
2.13275e-01,6.12238e-01
2.18212e-01,5.63639e-01
2.23262e-01,5.18759e-01
2.28430e-01,4.77322e-01
2.33717e-01,4.39072e-01
2.39127e-01,4.03773e-01
2.44662e-01,3.71203e-01
2.50325e-01,3.41158e-01
2.56119e-01,3.13448e-01
2.62047e-01,2.87896e-01
2.68112e-01,2.64340e-01
2.74318e-01,2.42626e-01
2.80667e-01,2.22615e-01
2.87163e-01,2.04177e-01
2.93810e-01,1.87191e-01
3.00610e-01,1.71545e-01
3.07568e-01,1.57136e-01
3.14687e-01,1.43868e-01
3.21971e-01,1.31653e-01
3.29423e-01,1.20409e-01
3.37048e-01,1.10060e-01
3.44849e-01,1.00537e-01
3.52831e-01,9.17741e-02
3.60998e-01,8.37126e-02
3.69353e-01,7.62971e-02
3.77902e-01,6.94766e-02
3.86649e-01,6.32043e-02
3.95599e-01,5.74368e-02
4.04755e-01,5.21340e-02
4.14124e-01,4.72591e-02
4.23709e-01,4.27779e-02
4.33516e-01,3.86593e-02
4.43550e-01,3.48741e-02
4.53816e-01,3.13958e-02
4.64320e-01,2.81998e-02
4.75068e-01,2.52635e-02
4.86063e-01,2.25659e-02
4.97314e-01,2.00879e-02
5.08825e-01,1.78119e-02
5.20602e-01,1.57215e-02
5.32652e-01,1.38017e-02
5.44980e-01,1.20388e-02
5.57594e-01,1.04200e-02
5.70500e-01,8.93366e-03
5.83705e-01,7.56908e-03
5.97215e-01,6.31633e-03
6.11039e-01,5.16633e-03
6.25182e-01,4.11071e-03
6.39652e-01,3.14179e-03
6.54457e-01,2.25250e-03
6.69605e-01,1.43634e-03
6.85104e-01,6.87338e-04
7.00961e-01,0.00000e+00
