m1=4281.726, m2=3.826, gsp=2.393, rhosp=162.531
fGW[Hz],dPh[rad]
9.51514e-03,1.25849e+05
9.74166e-03,1.19659e+05
9.97357e-03,1.13768e+05
1.02110e-02,1.08161e+05
1.04541e-02,1.02825e+05
1.07030e-02,9.77466e+04
1.09578e-02,9.29137e+04
1.12186e-02,8.83146e+04
1.14857e-02,8.39380e+04
1.17591e-02,7.97733e+04
1.20391e-02,7.58104e+04
1.23257e-02,7.20396e+04
1.26191e-02,6.84518e+04
1.29195e-02,6.50381e+04
1.32271e-02,6.17902e+04
1.35419e-02,5.87003e+04
1.38643e-02,5.57606e+04
1.41944e-02,5.29641e+04
1.45323e-02,5.03039e+04
1.48782e-02,4.77733e+04
1.52324e-02,4.53663e+04
1.55951e-02,4.30769e+04
1.59663e-02,4.08994e+04
1.63464e-02,3.88284e+04
1.67355e-02,3.68589e+04
1.71340e-02,3.49860e+04
1.75418e-02,3.32050e+04
1.79594e-02,3.15116e+04
1.83870e-02,2.99014e+04
1.88247e-02,2.83705e+04
1.92729e-02,2.69152e+04
1.97317e-02,2.55316e+04
2.02014e-02,2.42164e+04
2.06823e-02,2.29664e+04
2.11747e-02,2.17782e+04
2.16788e-02,2.06490e+04
2.21949e-02,1.95760e+04
2.27232e-02,1.85563e+04
2.32642e-02,1.75874e+04
2.38180e-02,1.66669e+04
2.43850e-02,1.57924e+04
2.49655e-02,1.49617e+04
2.55599e-02,1.41727e+04
2.61683e-02,1.34233e+04
2.67913e-02,1.27116e+04
2.74291e-02,1.20358e+04
2.80821e-02,1.13942e+04
2.87506e-02,1.07850e+04
2.94350e-02,1.02067e+04
3.01358e-02,9.65782e+03
3.08532e-02,9.13688e+03
3.15877e-02,8.64253e+03
3.23396e-02,8.17346e+03
3.31095e-02,7.72845e+03
3.38977e-02,7.30630e+03
3.47047e-02,6.90590e+03
3.55309e-02,6.52618e+03
3.63767e-02,6.16611e+03
3.72427e-02,5.82474e+03
3.81293e-02,5.50113e+03
3.90370e-02,5.19441e+03
3.99663e-02,4.90375e+03
4.09178e-02,4.62834e+03
4.18919e-02,4.36743e+03
4.28892e-02,4.12030e+03
4.39102e-02,3.88626e+03
4.49555e-02,3.66465e+03
4.60257e-02,3.45486e+03
4.71214e-02,3.25629e+03
4.82432e-02,3.06838e+03
4.93917e-02,2.89059e+03
5.05675e-02,2.72241e+03
5.17713e-02,2.56335e+03
5.30038e-02,2.41295e+03
5.42656e-02,2.27077e+03
5.55574e-02,2.13639e+03
5.68800e-02,2.00941e+03
5.82341e-02,1.88946e+03
5.96204e-02,1.77617e+03
6.10398e-02,1.66919e+03
6.24929e-02,1.56821e+03
6.39806e-02,1.47290e+03
6.55037e-02,1.38297e+03
6.70631e-02,1.29815e+03
6.86596e-02,1.21817e+03
7.02941e-02,1.14276e+03
7.19676e-02,1.07169e+03
7.36808e-02,1.00472e+03
7.54349e-02,9.41646e+02
7.72307e-02,8.82251e+02
7.90692e-02,8.26338e+02
8.09516e-02,7.73719e+02
8.28787e-02,7.24216e+02
8.48517e-02,6.77659e+02
8.68717e-02,6.33887e+02
8.89398e-02,5.92746e+02
9.10571e-02,5.54092e+02
9.32248e-02,5.17786e+02
9.54441e-02,4.83697e+02
9.77162e-02,4.51701e+02
1.00042e-01,4.21679e+02
1.02424e-01,3.93520e+02
1.04862e-01,3.67117e+02
1.07359e-01,3.42370e+02
1.09915e-01,3.19183e+02
1.12531e-01,2.97465e+02
1.15210e-01,2.77132e+02
1.17953e-01,2.58101e+02
1.20761e-01,2.40296e+02
1.23636e-01,2.23644e+02
1.26579e-01,2.08076e+02
1.29592e-01,1.93527e+02
1.32677e-01,1.79936e+02
1.35836e-01,1.67243e+02
1.39070e-01,1.55395e+02
1.42380e-01,1.44338e+02
1.45770e-01,1.34025e+02
1.49240e-01,1.24408e+02
1.52793e-01,1.15444e+02
1.56430e-01,1.07091e+02
1.60154e-01,9.93115e+01
1.63967e-01,9.20680e+01
1.67870e-01,8.53263e+01
1.71867e-01,7.90537e+01
1.75958e-01,7.32199e+01
1.80147e-01,6.77959e+01
1.84435e-01,6.27549e+01
1.88826e-01,5.80715e+01
1.93321e-01,5.37217e+01
1.97924e-01,4.96832e+01
2.02635e-01,4.59351e+01
2.07459e-01,4.24576e+01
2.12398e-01,3.92322e+01
2.17454e-01,3.62417e+01
2.22631e-01,3.34699e+01
2.27931e-01,3.09015e+01
2.33357e-01,2.85224e+01
2.38913e-01,2.63194e+01
2.44600e-01,2.42800e+01
2.50423e-01,2.23926e+01
2.56385e-01,2.06465e+01
2.62488e-01,1.90314e+01
2.68737e-01,1.75381e+01
2.75134e-01,1.61577e+01
2.81684e-01,1.48820e+01
2.88390e-01,1.37034e+01
2.95256e-01,1.26148e+01
3.02284e-01,1.16096e+01
3.09481e-01,1.06815e+01
3.16848e-01,9.82504e+00
3.24391e-01,9.03471e+00
3.32114e-01,8.30561e+00
3.40020e-01,7.63317e+00
3.48114e-01,7.01310e+00
3.56402e-01,6.44146e+00
3.64886e-01,5.91458e+00
3.73573e-01,5.42905e+00
3.82466e-01,4.98172e+00
3.91571e-01,4.56965e+00
4.00893e-01,4.19016e+00
4.10436e-01,3.84071e+00
4.20207e-01,3.51900e+00
4.30211e-01,3.22287e+00
4.40452e-01,2.95034e+00
4.50938e-01,2.69956e+00
4.61673e-01,2.46884e+00
4.72663e-01,2.25661e+00
4.83916e-01,2.06141e+00
4.95436e-01,1.88190e+00
5.07230e-01,1.71685e+00
5.19305e-01,1.56511e+00
5.31668e-01,1.42563e+00
5.44325e-01,1.29743e+00
5.57283e-01,1.17961e+00
5.70550e-01,1.07135e+00
5.84132e-01,9.71891e-01
5.98038e-01,8.80517e-01
6.12275e-01,7.96585e-01
6.26851e-01,7.19495e-01
6.41774e-01,6.48698e-01
6.57052e-01,5.83687e-01
6.72694e-01,5.23994e-01
6.88708e-01,4.69190e-01
7.05103e-01,4.18878e-01
7.21889e-01,3.72694e-01
7.39074e-01,3.30304e-01
7.56669e-01,2.91399e-01
7.74682e-01,2.55694e-01
7.93124e-01,2.22930e-01
8.12005e-01,1.92867e-01
8.31336e-01,1.65282e-01
8.51127e-01,1.39975e-01
8.71389e-01,1.16758e-01
8.92133e-01,9.54609e-02
9.13371e-01,7.59250e-02
9.35115e-01,5.80061e-02
9.57376e-01,4.15714e-02
9.80167e-01,2.64987e-02
1.00350e+00,1.26759e-02
1.02739e+00,0.00000e+00
