m1=15024.510, m2=58.021, gsp=2.285, rhosp=2053.190
fGW[Hz],dPh[rad]
2.50885e-03,4.18911e+03
2.56960e-03,3.97725e+03
2.63182e-03,3.77602e+03
2.69554e-03,3.58490e+03
2.76081e-03,3.40338e+03
2.82766e-03,3.23098e+03
2.89613e-03,3.06724e+03
2.96625e-03,2.91173e+03
3.03808e-03,2.76404e+03
3.11164e-03,2.62377e+03
3.18698e-03,2.49056e+03
3.26415e-03,2.36404e+03
3.34319e-03,2.24389e+03
3.42414e-03,2.12979e+03
3.50705e-03,2.02143e+03
3.59197e-03,1.91853e+03
3.67895e-03,1.82080e+03
3.76803e-03,1.72800e+03
3.85926e-03,1.63988e+03
3.95271e-03,1.55619e+03
4.04842e-03,1.47673e+03
4.14645e-03,1.40127e+03
4.24685e-03,1.32962e+03
4.34968e-03,1.26158e+03
4.45500e-03,1.19698e+03
4.56287e-03,1.13564e+03
4.67336e-03,1.07740e+03
4.78652e-03,1.02210e+03
4.90242e-03,9.69600e+02
5.02112e-03,9.19753e+02
5.14270e-03,8.72427e+02
5.26722e-03,8.27497e+02
5.39476e-03,7.84841e+02
5.52539e-03,7.44347e+02
5.65918e-03,7.05905e+02
5.79621e-03,6.69412e+02
5.93656e-03,6.34771e+02
6.08030e-03,6.01888e+02
6.22753e-03,5.70675e+02
6.37832e-03,5.41048e+02
6.53276e-03,5.12927e+02
6.69095e-03,4.86237e+02
6.85296e-03,4.60905e+02
7.01889e-03,4.36864e+02
7.18885e-03,4.14048e+02
7.36292e-03,3.92396e+02
7.54120e-03,3.71849e+02
7.72380e-03,3.52351e+02
7.91082e-03,3.33850e+02
8.10237e-03,3.16296e+02
8.29856e-03,2.99640e+02
8.49950e-03,2.83837e+02
8.70530e-03,2.68845e+02
8.91609e-03,2.54622e+02
9.13198e-03,2.41130e+02
9.35310e-03,2.28332e+02
9.57957e-03,2.16192e+02
9.81153e-03,2.04678e+02
1.00491e-02,1.93757e+02
1.02924e-02,1.83401e+02
1.05416e-02,1.73579e+02
1.07969e-02,1.64266e+02
1.10583e-02,1.55435e+02
1.13261e-02,1.47062e+02
1.16003e-02,1.39124e+02
1.18812e-02,1.31599e+02
1.21689e-02,1.24465e+02
1.24636e-02,1.17704e+02
1.27654e-02,1.11295e+02
1.30745e-02,1.05221e+02
1.33910e-02,9.94655e+01
1.37153e-02,9.40116e+01
1.40474e-02,8.88442e+01
1.43875e-02,8.39486e+01
1.47359e-02,7.93109e+01
1.50927e-02,7.49181e+01
1.54581e-02,7.07575e+01
1.58324e-02,6.68174e+01
1.62158e-02,6.30863e+01
1.66085e-02,5.95537e+01
1.70106e-02,5.62093e+01
1.74225e-02,5.30434e+01
1.78444e-02,5.00470e+01
1.82764e-02,4.72112e+01
1.87190e-02,4.45278e+01
1.91722e-02,4.19889e+01
1.96365e-02,3.95871e+01
2.01119e-02,3.73153e+01
2.05989e-02,3.51667e+01
2.10977e-02,3.31351e+01
2.16085e-02,3.12141e+01
2.21318e-02,2.93983e+01
2.26676e-02,2.76820e+01
2.32165e-02,2.60600e+01
2.37787e-02,2.45275e+01
2.43544e-02,2.30798e+01
2.49442e-02,2.17124e+01
2.55481e-02,2.04210e+01
2.61668e-02,1.92018e+01
2.68003e-02,1.80508e+01
2.74493e-02,1.69646e+01
2.81139e-02,1.59395e+01
2.87947e-02,1.49725e+01
2.94919e-02,1.40604e+01
3.02060e-02,1.32002e+01
3.09374e-02,1.23893e+01
3.16865e-02,1.16249e+01
3.24538e-02,1.09046e+01
3.32396e-02,1.02259e+01
3.40444e-02,9.58670e+00
3.48688e-02,8.98477e+00
3.57131e-02,8.41810e+00
3.65778e-02,7.88476e+00
3.74635e-02,7.38293e+00
3.83706e-02,6.91087e+00
3.92997e-02,6.46694e+00
4.02513e-02,6.04959e+00
4.12260e-02,5.65734e+00
4.22242e-02,5.28879e+00
4.32466e-02,4.94261e+00
4.42937e-02,4.61754e+00
4.53663e-02,4.31239e+00
4.64647e-02,4.02603e+00
4.75898e-02,3.75740e+00
4.87421e-02,3.50546e+00
4.99224e-02,3.26928e+00
5.11312e-02,3.04793e+00
5.23693e-02,2.84055e+00
5.36373e-02,2.64634e+00
5.49361e-02,2.46451e+00
5.62663e-02,2.29434e+00
5.76287e-02,2.13514e+00
5.90241e-02,1.98626e+00
6.04533e-02,1.84707e+00
6.19171e-02,1.71699e+00
6.34163e-02,1.59548e+00
6.49518e-02,1.48200e+00
6.65246e-02,1.37608e+00
6.81354e-02,1.27723e+00
6.97852e-02,1.18504e+00
7.14749e-02,1.09907e+00
7.32056e-02,1.01894e+00
7.49782e-02,9.44288e-01
7.67937e-02,8.74759e-01
7.86531e-02,8.10029e-01
8.05576e-02,7.49789e-01
8.25082e-02,6.93749e-01
8.45060e-02,6.41637e-01
8.65522e-02,5.93196e-01
8.86480e-02,5.48184e-01
9.07945e-02,5.06375e-01
9.29929e-02,4.67555e-01
9.52446e-02,4.31525e-01
9.75509e-02,3.98097e-01
9.99129e-02,3.67093e-01
1.02332e-01,3.38350e-01
1.04810e-01,3.11711e-01
1.07348e-01,2.87033e-01
1.09947e-01,2.64178e-01
1.12609e-01,2.43020e-01
1.15336e-01,2.23439e-01
1.18129e-01,2.05325e-01
1.20989e-01,1.88573e-01
1.23919e-01,1.73087e-01
1.26919e-01,1.58774e-01
1.29992e-01,1.45552e-01
1.33140e-01,1.33340e-01
1.36364e-01,1.22065e-01
1.39666e-01,1.11658e-01
1.43047e-01,1.02056e-01
1.46511e-01,9.31995e-02
1.50059e-01,8.50323e-02
1.53692e-01,7.75033e-02
1.57414e-01,7.05646e-02
1.61225e-01,6.41717e-02
1.65129e-01,5.82834e-02
1.69127e-01,5.28612e-02
1.73223e-01,4.78696e-02
1.77417e-01,4.32756e-02
1.81713e-01,3.90486e-02
1.86113e-01,3.51602e-02
1.90619e-01,3.15842e-02
1.95235e-01,2.82963e-02
1.99962e-01,2.52738e-02
2.04804e-01,2.24961e-02
2.09763e-01,1.99438e-02
2.14842e-01,1.75992e-02
2.20044e-01,1.54458e-02
2.25373e-01,1.34685e-02
2.30830e-01,1.16531e-02
2.36419e-01,9.98668e-03
2.42143e-01,8.45738e-03
2.48007e-01,7.05413e-03
2.54012e-01,5.76677e-03
2.60162e-01,4.58593e-03
2.66462e-01,3.50297e-03
2.72914e-01,2.50994e-03
2.79522e-01,1.59951e-03
2.86290e-01,7.64930e-04
2.93222e-01,0.00000e+00
