m1=37790.322, m2=16.943, gsp=2.357, rhosp=5252.802
fGW[Hz],dPh[rad]
3.15953e-03,1.02148e+05
3.21731e-03,9.77140e+04
3.27615e-03,9.34611e+04
3.33607e-03,8.93822e+04
3.39708e-03,8.54705e+04
3.45920e-03,8.17195e+04
3.52246e-03,7.81230e+04
3.58688e-03,7.46748e+04
3.65248e-03,7.13693e+04
3.71928e-03,6.82009e+04
3.78729e-03,6.51641e+04
3.85656e-03,6.22539e+04
3.92709e-03,5.94653e+04
3.99890e-03,5.67934e+04
4.07204e-03,5.42337e+04
4.14651e-03,5.17818e+04
4.22234e-03,4.94333e+04
4.29955e-03,4.71843e+04
4.37818e-03,4.50307e+04
4.45825e-03,4.29688e+04
4.53979e-03,4.09949e+04
4.62281e-03,3.91056e+04
4.70735e-03,3.72973e+04
4.79344e-03,3.55669e+04
4.88110e-03,3.39113e+04
4.97037e-03,3.23274e+04
5.06127e-03,3.08123e+04
5.15383e-03,2.93633e+04
5.24808e-03,2.79778e+04
5.34406e-03,2.66530e+04
5.44179e-03,2.53865e+04
5.54131e-03,2.41760e+04
5.64265e-03,2.30192e+04
5.74584e-03,2.19138e+04
5.85092e-03,2.08578e+04
5.95792e-03,1.98491e+04
6.06688e-03,1.88857e+04
6.17783e-03,1.79658e+04
6.29081e-03,1.70875e+04
6.40586e-03,1.62491e+04
6.52301e-03,1.54490e+04
6.64230e-03,1.46855e+04
6.76377e-03,1.39571e+04
6.88747e-03,1.32623e+04
7.01343e-03,1.25997e+04
7.14169e-03,1.19679e+04
7.27230e-03,1.13655e+04
7.40529e-03,1.07914e+04
7.54072e-03,1.02443e+04
7.67863e-03,9.72300e+03
7.81905e-03,9.22642e+03
7.96205e-03,8.75348e+03
8.10766e-03,8.30313e+03
8.25593e-03,7.87439e+03
8.40691e-03,7.46631e+03
8.56066e-03,7.07796e+03
8.71722e-03,6.70848e+03
8.87664e-03,6.35701e+03
9.03897e-03,6.02275e+03
9.20428e-03,5.70493e+03
9.37261e-03,5.40280e+03
9.54401e-03,5.11564e+03
9.71855e-03,4.84278e+03
9.89629e-03,4.58356e+03
1.00773e-02,4.33735e+03
1.02616e-02,4.10355e+03
1.04492e-02,3.88158e+03
1.06403e-02,3.67089e+03
1.08349e-02,3.47095e+03
1.10331e-02,3.28125e+03
1.12348e-02,3.10132e+03
1.14403e-02,2.93067e+03
1.16495e-02,2.76888e+03
1.18626e-02,2.61551e+03
1.20795e-02,2.47016e+03
1.23004e-02,2.33243e+03
1.25254e-02,2.20197e+03
1.27544e-02,2.07841e+03
1.29877e-02,1.96141e+03
1.32252e-02,1.85065e+03
1.34671e-02,1.74583e+03
1.37133e-02,1.64663e+03
1.39641e-02,1.55279e+03
1.42195e-02,1.46402e+03
1.44796e-02,1.38009e+03
1.47444e-02,1.30073e+03
1.50140e-02,1.22572e+03
1.52886e-02,1.15483e+03
1.55682e-02,1.08785e+03
1.58529e-02,1.02458e+03
1.61428e-02,9.64821e+02
1.64380e-02,9.08397e+02
1.67386e-02,8.55129e+02
1.70448e-02,8.04852e+02
1.73565e-02,7.57406e+02
1.76739e-02,7.12642e+02
1.79971e-02,6.70416e+02
1.83262e-02,6.30592e+02
1.86614e-02,5.93040e+02
1.90027e-02,5.57639e+02
1.93502e-02,5.24271e+02
1.97041e-02,4.92824e+02
2.00644e-02,4.63195e+02
2.04314e-02,4.35283e+02
2.08050e-02,4.08993e+02
2.11855e-02,3.84235e+02
2.15729e-02,3.60925e+02
2.19675e-02,3.38981e+02
2.23692e-02,3.18327e+02
2.27783e-02,2.98890e+02
2.31949e-02,2.80602e+02
2.36190e-02,2.63397e+02
2.40510e-02,2.47214e+02
2.44908e-02,2.31995e+02
2.49387e-02,2.17685e+02
2.53948e-02,2.04230e+02
2.58592e-02,1.91583e+02
2.63321e-02,1.79696e+02
2.68137e-02,1.68526e+02
2.73041e-02,1.58030e+02
2.78034e-02,1.48169e+02
2.83119e-02,1.38906e+02
2.88296e-02,1.30206e+02
2.93569e-02,1.22036e+02
2.98938e-02,1.14365e+02
3.04404e-02,1.07163e+02
3.09971e-02,1.00402e+02
3.15640e-02,9.40560e+01
3.21413e-02,8.81003e+01
3.27291e-02,8.25115e+01
3.33276e-02,7.72675e+01
3.39371e-02,7.23478e+01
3.45577e-02,6.77326e+01
3.51897e-02,6.34038e+01
3.58333e-02,5.93438e+01
3.64886e-02,5.55365e+01
3.71559e-02,5.19664e+01
3.78354e-02,4.86192e+01
3.85274e-02,4.54811e+01
3.92319e-02,4.25395e+01
3.99494e-02,3.97822e+01
4.06800e-02,3.71980e+01
4.14240e-02,3.47762e+01
4.21815e-02,3.25068e+01
4.29529e-02,3.03803e+01
4.37385e-02,2.83880e+01
4.45384e-02,2.65216e+01
4.53529e-02,2.47731e+01
4.61823e-02,2.31354e+01
4.70269e-02,2.16014e+01
4.78869e-02,2.01648e+01
4.87627e-02,1.88193e+01
4.96544e-02,1.75595e+01
5.05625e-02,1.63798e+01
5.14872e-02,1.52752e+01
5.24288e-02,1.42411e+01
5.33876e-02,1.32730e+01
5.43640e-02,1.23667e+01
5.53582e-02,1.15183e+01
5.63706e-02,1.07243e+01
5.74015e-02,9.98107e+00
5.84512e-02,9.28549e+00
5.95202e-02,8.63453e+00
6.06087e-02,8.02536e+00
6.17171e-02,7.45532e+00
6.28458e-02,6.92192e+00
6.39951e-02,6.42284e+00
6.51654e-02,5.95588e+00
6.63572e-02,5.51901e+00
6.75707e-02,5.11030e+00
6.88065e-02,4.72795e+00
7.00648e-02,4.37027e+00
7.13461e-02,4.03570e+00
7.26509e-02,3.72274e+00
7.39796e-02,3.43002e+00
7.53325e-02,3.15623e+00
7.67102e-02,2.90017e+00
7.81130e-02,2.66068e+00
7.95416e-02,2.43671e+00
8.09962e-02,2.22726e+00
8.24775e-02,2.03139e+00
8.39858e-02,1.84823e+00
8.55218e-02,1.67696e+00
8.70858e-02,1.51682e+00
8.86784e-02,1.36707e+00
9.03002e-02,1.22706e+00
9.19516e-02,1.09615e+00
9.36332e-02,9.73760e-01
9.53456e-02,8.59331e-01
9.70892e-02,7.52351e-01
9.88648e-02,6.52337e-01
1.00673e-01,5.58839e-01
1.02514e-01,4.71432e-01
1.04389e-01,3.89723e-01
1.06298e-01,3.13342e-01
1.08242e-01,2.41943e-01
1.10221e-01,1.75202e-01
1.12237e-01,1.12817e-01
1.14290e-01,5.45047e-02
1.16380e-01,0.00000e+00
