m1=5693.280, m2=3.215, gsp=2.338, rhosp=12.142
fGW[Hz],dPh[rad]
9.45854e-03,3.66226e+04
9.67014e-03,3.48540e+04
9.88647e-03,3.31682e+04
1.01076e-02,3.15615e+04
1.03338e-02,3.00301e+04
1.05649e-02,2.85707e+04
1.08013e-02,2.71799e+04
1.10429e-02,2.58545e+04
1.12900e-02,2.45916e+04
1.15425e-02,2.33882e+04
1.18007e-02,2.22416e+04
1.20647e-02,2.11492e+04
1.23346e-02,2.01085e+04
1.26106e-02,1.91170e+04
1.28927e-02,1.81726e+04
1.31811e-02,1.72730e+04
1.34760e-02,1.64162e+04
1.37775e-02,1.56002e+04
1.40857e-02,1.48231e+04
1.44008e-02,1.40830e+04
1.47229e-02,1.33784e+04
1.50523e-02,1.27074e+04
1.53890e-02,1.20687e+04
1.57333e-02,1.14606e+04
1.60853e-02,1.08817e+04
1.64451e-02,1.03308e+04
1.68130e-02,9.80637e+03
1.71892e-02,9.30733e+03
1.75737e-02,8.83245e+03
1.79668e-02,8.38061e+03
1.83688e-02,7.95072e+03
1.87797e-02,7.54177e+03
1.91998e-02,7.15277e+03
1.96293e-02,6.78278e+03
2.00685e-02,6.43092e+03
2.05174e-02,6.09633e+03
2.09764e-02,5.77820e+03
2.14457e-02,5.47576e+03
2.19254e-02,5.18826e+03
2.24159e-02,4.91501e+03
2.29174e-02,4.65532e+03
2.34301e-02,4.40856e+03
2.39542e-02,4.17412e+03
2.44901e-02,3.95140e+03
2.50380e-02,3.73986e+03
2.55981e-02,3.53895e+03
2.61708e-02,3.34818e+03
2.67562e-02,3.16706e+03
2.73548e-02,2.99513e+03
2.79667e-02,2.83194e+03
2.85924e-02,2.67709e+03
2.92320e-02,2.53016e+03
2.98860e-02,2.39077e+03
3.05546e-02,2.25857e+03
3.12381e-02,2.13320e+03
3.19369e-02,2.01433e+03
3.26514e-02,1.90164e+03
3.33818e-02,1.79484e+03
3.41286e-02,1.69364e+03
3.48921e-02,1.59776e+03
3.56727e-02,1.50694e+03
3.64707e-02,1.42094e+03
3.72866e-02,1.33950e+03
3.81207e-02,1.26242e+03
3.89735e-02,1.18947e+03
3.98454e-02,1.12044e+03
4.07368e-02,1.05514e+03
4.16481e-02,9.93390e+02
4.25798e-02,9.35001e+02
4.35324e-02,8.79807e+02
4.45062e-02,8.27646e+02
4.55019e-02,7.78364e+02
4.65198e-02,7.31814e+02
4.75605e-02,6.87856e+02
4.86245e-02,6.46356e+02
4.97123e-02,6.07188e+02
5.08244e-02,5.70232e+02
5.19614e-02,5.35370e+02
5.31238e-02,5.02495e+02
5.43122e-02,4.71502e+02
5.55273e-02,4.42292e+02
5.67695e-02,4.14769e+02
5.80394e-02,3.88845e+02
5.93378e-02,3.64433e+02
6.06653e-02,3.41453e+02
6.20224e-02,3.19827e+02
6.34099e-02,2.99482e+02
6.48285e-02,2.80347e+02
6.62788e-02,2.62357e+02
6.77615e-02,2.45448e+02
6.92774e-02,2.29560e+02
7.08272e-02,2.14637e+02
7.24117e-02,2.00624e+02
7.40316e-02,1.87470e+02
7.56877e-02,1.75127e+02
7.73810e-02,1.63548e+02
7.91120e-02,1.52689e+02
8.08819e-02,1.42510e+02
8.26913e-02,1.32970e+02
8.45412e-02,1.24033e+02
8.64324e-02,1.15663e+02
8.83660e-02,1.07827e+02
9.03428e-02,1.00493e+02
9.23639e-02,9.36306e+01
9.44302e-02,8.72126e+01
9.65427e-02,8.12118e+01
9.87024e-02,7.56029e+01
1.00911e-01,7.03620e+01
1.03168e-01,6.54665e+01
1.05476e-01,6.08952e+01
1.07836e-01,5.66279e+01
1.10248e-01,5.26456e+01
1.12714e-01,4.89306e+01
1.15236e-01,4.54660e+01
1.17814e-01,4.22359e+01
1.20449e-01,3.92253e+01
1.23144e-01,3.64202e+01
1.25899e-01,3.38073e+01
1.28715e-01,3.13743e+01
1.31595e-01,2.91093e+01
1.34539e-01,2.70014e+01
1.37548e-01,2.50403e+01
1.40626e-01,2.32162e+01
1.43771e-01,2.15200e+01
1.46988e-01,1.99433e+01
1.50276e-01,1.84780e+01
1.53638e-01,1.71166e+01
1.57075e-01,1.58520e+01
1.60589e-01,1.46778e+01
1.64181e-01,1.35876e+01
1.67854e-01,1.25757e+01
1.71609e-01,1.16368e+01
1.75448e-01,1.07658e+01
1.79373e-01,9.95790e+00
1.83386e-01,9.20880e+00
1.87489e-01,8.51434e+00
1.91683e-01,7.87068e+00
1.95971e-01,7.27423e+00
2.00355e-01,6.72165e+00
2.04837e-01,6.20982e+00
2.09420e-01,5.73583e+00
2.14105e-01,5.29697e+00
2.18894e-01,4.89071e+00
2.23791e-01,4.51470e+00
2.28798e-01,4.16676e+00
2.33916e-01,3.84485e+00
2.39149e-01,3.54707e+00
2.44499e-01,3.27166e+00
2.49969e-01,3.01698e+00
2.55561e-01,2.78151e+00
2.61278e-01,2.56384e+00
2.67123e-01,2.36266e+00
2.73099e-01,2.17673e+00
2.79208e-01,2.00494e+00
2.85455e-01,1.84622e+00
2.91840e-01,1.69960e+00
2.98369e-01,1.56419e+00
3.05044e-01,1.43913e+00
3.11868e-01,1.32365e+00
3.18845e-01,1.21704e+00
3.25978e-01,1.11861e+00
3.33270e-01,1.02776e+00
3.40726e-01,9.43914e-01
3.48348e-01,8.66534e-01
3.56141e-01,7.95131e-01
3.64108e-01,7.29252e-01
3.72254e-01,6.68474e-01
3.80582e-01,6.12408e-01
3.89096e-01,5.60694e-01
3.97800e-01,5.12998e-01
4.06699e-01,4.69012e-01
4.15798e-01,4.28451e-01
4.25099e-01,3.91051e-01
4.34609e-01,3.56568e-01
4.44332e-01,3.24778e-01
4.54272e-01,2.95473e-01
4.64435e-01,2.68460e-01
4.74824e-01,2.43561e-01
4.85447e-01,2.20613e-01
4.96307e-01,1.99465e-01
5.07410e-01,1.79976e-01
5.18761e-01,1.62017e-01
5.30366e-01,1.45470e-01
5.42231e-01,1.30223e-01
5.54361e-01,1.16177e-01
5.66763e-01,1.03236e-01
5.79442e-01,9.13147e-02
5.92404e-01,8.03332e-02
6.05657e-01,7.02179e-02
6.19206e-01,6.09009e-02
6.33059e-01,5.23195e-02
6.47221e-01,4.44161e-02
6.61700e-01,3.71373e-02
6.76503e-01,3.04342e-02
6.91637e-01,2.42613e-02
7.07109e-01,1.85771e-02
7.22928e-01,1.33429e-02
7.39101e-01,8.52337e-03
7.55635e-01,4.08578e-03
7.72539e-01,0.00000e+00
