m1=36207.992, m2=28.065, gsp=2.166, rhosp=3176.604
fGW[Hz],dPh[rad]
2.64294e-03,2.35387e+03
2.69427e-03,2.24674e+03
2.74660e-03,2.14431e+03
2.79994e-03,2.04637e+03
2.85432e-03,1.95273e+03
2.90976e-03,1.86320e+03
2.96627e-03,1.77762e+03
3.02388e-03,1.69580e+03
3.08261e-03,1.61760e+03
3.14248e-03,1.54285e+03
3.20352e-03,1.47141e+03
3.26573e-03,1.40313e+03
3.32916e-03,1.33789e+03
3.39382e-03,1.27554e+03
3.45973e-03,1.21597e+03
3.52693e-03,1.15905e+03
3.59543e-03,1.10468e+03
3.66526e-03,1.05273e+03
3.73645e-03,1.00312e+03
3.80901e-03,9.55727e+02
3.88299e-03,9.10468e+02
3.95841e-03,8.67246e+02
4.03529e-03,8.25975e+02
4.11366e-03,7.86569e+02
4.19356e-03,7.48947e+02
4.27500e-03,7.13033e+02
4.35803e-03,6.78751e+02
4.44267e-03,6.46031e+02
4.52896e-03,6.14804e+02
4.61692e-03,5.85006e+02
4.70659e-03,5.56574e+02
4.79800e-03,5.29449e+02
4.89118e-03,5.03572e+02
4.98618e-03,4.78890e+02
5.08302e-03,4.55349e+02
5.18174e-03,4.32900e+02
5.28238e-03,4.11495e+02
5.38498e-03,3.91087e+02
5.48956e-03,3.71632e+02
5.59618e-03,3.53089e+02
5.70487e-03,3.35416e+02
5.81567e-03,3.18575e+02
5.92862e-03,3.02530e+02
6.04376e-03,2.87243e+02
6.16115e-03,2.72683e+02
6.28081e-03,2.58816e+02
6.40279e-03,2.45610e+02
6.52715e-03,2.33037e+02
6.65392e-03,2.21068e+02
6.78315e-03,2.09676e+02
6.91489e-03,1.98833e+02
7.04919e-03,1.88517e+02
7.18610e-03,1.78702e+02
7.32566e-03,1.69366e+02
7.46794e-03,1.60486e+02
7.61298e-03,1.52043e+02
7.76084e-03,1.44016e+02
7.91157e-03,1.36385e+02
8.06523e-03,1.29133e+02
8.22187e-03,1.22242e+02
8.38156e-03,1.15695e+02
8.54434e-03,1.09476e+02
8.71029e-03,1.03571e+02
8.87946e-03,9.79629e+01
9.05192e-03,9.26394e+01
9.22772e-03,8.75867e+01
9.40694e-03,8.27920e+01
9.58964e-03,7.82430e+01
9.77589e-03,7.39280e+01
9.96576e-03,6.98358e+01
1.01593e-02,6.59558e+01
1.03566e-02,6.22777e+01
1.05578e-02,5.87919e+01
1.07628e-02,5.54888e+01
1.09719e-02,5.23598e+01
1.11849e-02,4.93962e+01
1.14022e-02,4.65899e+01
1.16236e-02,4.39332e+01
1.18494e-02,4.14187e+01
1.20795e-02,3.90394e+01
1.23141e-02,3.67884e+01
1.25533e-02,3.46594e+01
1.27971e-02,3.26463e+01
1.30456e-02,3.07431e+01
1.32990e-02,2.89443e+01
1.35573e-02,2.72447e+01
1.38206e-02,2.56390e+01
1.40890e-02,2.41225e+01
1.43627e-02,2.26906e+01
1.46416e-02,2.13389e+01
1.49260e-02,2.00632e+01
1.52159e-02,1.88596e+01
1.55114e-02,1.77242e+01
1.58127e-02,1.66534e+01
1.61198e-02,1.56439e+01
1.64329e-02,1.46923e+01
1.67520e-02,1.37956e+01
1.70774e-02,1.29507e+01
1.74090e-02,1.21550e+01
1.77472e-02,1.14056e+01
1.80918e-02,1.07002e+01
1.84432e-02,1.00362e+01
1.88014e-02,9.41140e+00
1.91666e-02,8.82364e+00
1.95388e-02,8.27086e+00
1.99183e-02,7.75108e+00
2.03052e-02,7.26246e+00
2.06995e-02,6.80324e+00
2.11016e-02,6.37175e+00
2.15114e-02,5.96643e+00
2.19292e-02,5.58576e+00
2.23551e-02,5.22834e+00
2.27893e-02,4.89282e+00
2.32319e-02,4.57793e+00
2.36831e-02,4.28248e+00
2.41431e-02,4.00532e+00
2.46120e-02,3.74538e+00
2.50900e-02,3.50164e+00
2.55773e-02,3.27316e+00
2.60740e-02,3.05901e+00
2.65804e-02,2.85834e+00
2.70967e-02,2.67034e+00
2.76229e-02,2.49426e+00
2.81594e-02,2.32936e+00
2.87063e-02,2.17498e+00
2.92639e-02,2.03046e+00
2.98322e-02,1.89521e+00
3.04116e-02,1.76865e+00
3.10023e-02,1.65026e+00
3.16044e-02,1.53952e+00
3.22182e-02,1.43596e+00
3.28440e-02,1.33913e+00
3.34818e-02,1.24861e+00
3.41321e-02,1.16401e+00
3.47950e-02,1.08495e+00
3.54708e-02,1.01108e+00
3.61597e-02,9.42074e-01
3.68620e-02,8.77621e-01
3.75780e-02,8.17430e-01
3.83078e-02,7.61229e-01
3.90518e-02,7.08762e-01
3.98103e-02,6.59788e-01
4.05835e-02,6.14081e-01
4.13717e-02,5.71430e-01
4.21752e-02,5.31637e-01
4.29943e-02,4.94515e-01
4.38293e-02,4.59889e-01
4.46806e-02,4.27597e-01
4.55484e-02,3.97485e-01
4.64330e-02,3.69409e-01
4.73348e-02,3.43236e-01
4.82541e-02,3.18838e-01
4.91913e-02,2.96100e-01
5.01467e-02,2.74910e-01
5.11207e-02,2.55164e-01
5.21135e-02,2.36768e-01
5.31257e-02,2.19631e-01
5.41575e-02,2.03667e-01
5.52093e-02,1.88799e-01
5.62816e-02,1.74952e-01
5.73747e-02,1.62058e-01
5.84890e-02,1.50053e-01
5.96250e-02,1.38876e-01
6.07830e-02,1.28470e-01
6.19635e-02,1.18785e-01
6.31670e-02,1.09770e-01
6.43938e-02,1.01380e-01
6.56444e-02,9.35722e-02
6.69194e-02,8.63069e-02
6.82191e-02,7.95471e-02
6.95440e-02,7.32579e-02
7.08947e-02,6.74071e-02
7.22716e-02,6.19644e-02
7.36752e-02,5.69019e-02
7.51062e-02,5.21932e-02
7.65649e-02,4.78140e-02
7.80519e-02,4.37415e-02
7.95678e-02,3.99544e-02
8.11132e-02,3.64329e-02
8.26885e-02,3.31587e-02
8.42945e-02,3.01145e-02
8.59317e-02,2.72844e-02
8.76006e-02,2.46534e-02
8.93020e-02,2.22077e-02
9.10364e-02,1.99343e-02
9.28045e-02,1.78213e-02
9.46069e-02,1.58573e-02
9.64444e-02,1.40320e-02
9.83175e-02,1.23357e-02
1.00227e-01,1.07593e-02
1.02174e-01,9.29439e-03
1.04158e-01,7.93318e-03
1.06181e-01,6.66837e-03
1.08243e-01,5.49318e-03
1.10345e-01,4.40130e-03
1.12489e-01,3.38686e-03
1.14673e-01,2.44442e-03
1.16901e-01,1.56889e-03
1.19171e-01,7.55543e-04
1.21485e-01,0.00000e+00
