m1=142541.596, m2=15.493, gsp=2.072, rhosp=47.453
fGW[Hz],dPh[rad]
2.34441e-03,1.81781e+02
2.37497e-03,1.73765e+02
2.40593e-03,1.66088e+02
2.43729e-03,1.58737e+02
2.46906e-03,1.51698e+02
2.50124e-03,1.44959e+02
2.53384e-03,1.38508e+02
2.56687e-03,1.32332e+02
2.60033e-03,1.26422e+02
2.63422e-03,1.20765e+02
2.66855e-03,1.15352e+02
2.70334e-03,1.10173e+02
2.73857e-03,1.05218e+02
2.77427e-03,1.00478e+02
2.81043e-03,9.59434e+01
2.84706e-03,9.16067e+01
2.88417e-03,8.74592e+01
2.92176e-03,8.34932e+01
2.95985e-03,7.97009e+01
2.99843e-03,7.60752e+01
3.03751e-03,7.26091e+01
3.07710e-03,6.92958e+01
3.11721e-03,6.61289e+01
3.15784e-03,6.31022e+01
3.19900e-03,6.02098e+01
3.24070e-03,5.74459e+01
3.28294e-03,5.48051e+01
3.32573e-03,5.22821e+01
3.36908e-03,4.98719e+01
3.41299e-03,4.75696e+01
3.45748e-03,4.53706e+01
3.50254e-03,4.32704e+01
3.54820e-03,4.12648e+01
3.59444e-03,3.93496e+01
3.64129e-03,3.75209e+01
3.68876e-03,3.57750e+01
3.73684e-03,3.41082e+01
3.78554e-03,3.25171e+01
3.83489e-03,3.09984e+01
3.88487e-03,2.95489e+01
3.93551e-03,2.81655e+01
3.98680e-03,2.68453e+01
4.03877e-03,2.55855e+01
4.09141e-03,2.43835e+01
4.14474e-03,2.32367e+01
4.19877e-03,2.21426e+01
4.25349e-03,2.10988e+01
4.30894e-03,2.01032e+01
4.36510e-03,1.91536e+01
4.42200e-03,1.82479e+01
4.47963e-03,1.73841e+01
4.53802e-03,1.65604e+01
4.59717e-03,1.57749e+01
4.65709e-03,1.50259e+01
4.71780e-03,1.43118e+01
4.77929e-03,1.36310e+01
4.84158e-03,1.29819e+01
4.90469e-03,1.23632e+01
4.96862e-03,1.17734e+01
5.03338e-03,1.12113e+01
5.09899e-03,1.06755e+01
5.16545e-03,1.01649e+01
5.23278e-03,9.67824e+00
5.30098e-03,9.21451e+00
5.37008e-03,8.77263e+00
5.44007e-03,8.35158e+00
5.51098e-03,7.95041e+00
5.58281e-03,7.56820e+00
5.65558e-03,7.20407e+00
5.72930e-03,6.85719e+00
5.80398e-03,6.52675e+00
5.87963e-03,6.21199e+00
5.95626e-03,5.91217e+00
6.03390e-03,5.62662e+00
6.11255e-03,5.35465e+00
6.19222e-03,5.09563e+00
6.27293e-03,4.84896e+00
6.35470e-03,4.61406e+00
6.43753e-03,4.39038e+00
6.52143e-03,4.17739e+00
6.60644e-03,3.97459e+00
6.69255e-03,3.78150e+00
6.77978e-03,3.59766e+00
6.86815e-03,3.42263e+00
6.95767e-03,3.25601e+00
7.04836e-03,3.09739e+00
7.14023e-03,2.94639e+00
7.23330e-03,2.80265e+00
7.32758e-03,2.66584e+00
7.42309e-03,2.53561e+00
7.51985e-03,2.41166e+00
7.61786e-03,2.29369e+00
7.71716e-03,2.18141e+00
7.81774e-03,2.07456e+00
7.91964e-03,1.97287e+00
8.02287e-03,1.87610e+00
8.12744e-03,1.78401e+00
8.23338e-03,1.69638e+00
8.34069e-03,1.61299e+00
8.44941e-03,1.53365e+00
8.55954e-03,1.45816e+00
8.67111e-03,1.38633e+00
8.78413e-03,1.31799e+00
8.89863e-03,1.25297e+00
9.01462e-03,1.19111e+00
9.13211e-03,1.13226e+00
9.25115e-03,1.07627e+00
9.37173e-03,1.02301e+00
9.49388e-03,9.72343e-01
9.61763e-03,9.24146e-01
9.74299e-03,8.78299e-01
9.86998e-03,8.34688e-01
9.99863e-03,7.93206e-01
1.01290e-02,7.53750e-01
1.02610e-02,7.16221e-01
1.03947e-02,6.80526e-01
1.05302e-02,6.46576e-01
1.06675e-02,6.14287e-01
1.08065e-02,5.83578e-01
1.09474e-02,5.54372e-01
1.10901e-02,5.26596e-01
1.12346e-02,5.00181e-01
1.13810e-02,4.75060e-01
1.15294e-02,4.51171e-01
1.16797e-02,4.28454e-01
1.18319e-02,4.06851e-01
1.19861e-02,3.86308e-01
1.21424e-02,3.66774e-01
1.23006e-02,3.48199e-01
1.24610e-02,3.30537e-01
1.26234e-02,3.13743e-01
1.27879e-02,2.97774e-01
1.29546e-02,2.82590e-01
1.31234e-02,2.68154e-01
1.32945e-02,2.54427e-01
1.34678e-02,2.41377e-01
1.36433e-02,2.28968e-01
1.38212e-02,2.17171e-01
1.40013e-02,2.05955e-01
1.41838e-02,1.95291e-01
1.43687e-02,1.85154e-01
1.45560e-02,1.75515e-01
1.47457e-02,1.66352e-01
1.49379e-02,1.57641e-01
1.51326e-02,1.49360e-01
1.53298e-02,1.41487e-01
1.55297e-02,1.34003e-01
1.57321e-02,1.26889e-01
1.59371e-02,1.20125e-01
1.61449e-02,1.13696e-01
1.63553e-02,1.07584e-01
1.65685e-02,1.01775e-01
1.67844e-02,9.62520e-02
1.70032e-02,9.10023e-02
1.72248e-02,8.60122e-02
1.74494e-02,8.12689e-02
1.76768e-02,7.67602e-02
1.79072e-02,7.24745e-02
1.81406e-02,6.84008e-02
1.83771e-02,6.45287e-02
1.86166e-02,6.08482e-02
1.88593e-02,5.73500e-02
1.91051e-02,5.40249e-02
1.93541e-02,5.08645e-02
1.96064e-02,4.78606e-02
1.98619e-02,4.50055e-02
2.01208e-02,4.22919e-02
2.03831e-02,3.97127e-02
2.06487e-02,3.72613e-02
2.09179e-02,3.49314e-02
2.11905e-02,3.27170e-02
2.14667e-02,3.06124e-02
2.17465e-02,2.86121e-02
2.20300e-02,2.67111e-02
2.23171e-02,2.49043e-02
2.26080e-02,2.31871e-02
2.29027e-02,2.15551e-02
2.32012e-02,2.00041e-02
2.35036e-02,1.85301e-02
2.38100e-02,1.71292e-02
2.41203e-02,1.57978e-02
2.44347e-02,1.45325e-02
2.47532e-02,1.33301e-02
2.50759e-02,1.21873e-02
2.54027e-02,1.11013e-02
2.57338e-02,1.00692e-02
2.60692e-02,9.08831e-03
2.64090e-02,8.15619e-03
2.67533e-02,7.27036e-03
2.71020e-02,6.42854e-03
2.74552e-02,5.62855e-03
2.78131e-02,4.86830e-03
2.81756e-02,4.14583e-03
2.85429e-02,3.45926e-03
2.89149e-02,2.80681e-03
2.92918e-02,2.18680e-03
2.96736e-02,1.59760e-03
3.00604e-02,1.03769e-03
3.04522e-02,5.05618e-04
3.08491e-02,0.00000e+00
