m1=86099.705, m2=15.432, gsp=2.257, rhosp=102.874
fGW[Hz],dPh[rad]
2.66324e-03,7.94843e+03
2.70306e-03,7.59729e+03
2.74348e-03,7.26069e+03
2.78451e-03,6.93808e+03
2.82615e-03,6.62891e+03
2.86841e-03,6.33267e+03
2.91130e-03,6.04886e+03
2.95483e-03,5.77700e+03
2.99902e-03,5.51662e+03
3.04387e-03,5.26727e+03
3.08938e-03,5.02853e+03
3.13558e-03,4.79997e+03
3.18247e-03,4.58118e+03
3.23006e-03,4.37180e+03
3.27836e-03,4.17143e+03
3.32738e-03,3.97972e+03
3.37714e-03,3.79632e+03
3.42764e-03,3.62090e+03
3.47889e-03,3.45314e+03
3.53091e-03,3.29272e+03
3.58371e-03,3.13935e+03
3.63730e-03,2.99273e+03
3.69169e-03,2.85260e+03
3.74690e-03,2.71868e+03
3.80293e-03,2.59072e+03
3.85979e-03,2.46847e+03
3.91751e-03,2.35170e+03
3.97609e-03,2.24017e+03
4.03555e-03,2.13366e+03
4.09590e-03,2.03197e+03
4.15714e-03,1.93488e+03
4.21931e-03,1.84221e+03
4.28240e-03,1.75377e+03
4.34644e-03,1.66937e+03
4.41143e-03,1.58885e+03
4.47740e-03,1.51203e+03
4.54435e-03,1.43875e+03
4.61231e-03,1.36887e+03
4.68128e-03,1.30223e+03
4.75128e-03,1.23870e+03
4.82233e-03,1.17813e+03
4.89444e-03,1.12039e+03
4.96763e-03,1.06537e+03
5.04191e-03,1.01293e+03
5.11731e-03,9.62977e+02
5.19383e-03,9.15384e+02
5.27150e-03,8.70050e+02
5.35032e-03,8.26874e+02
5.43033e-03,7.85758e+02
5.51153e-03,7.46609e+02
5.59395e-03,7.09338e+02
5.67760e-03,6.73858e+02
5.76250e-03,6.40090e+02
5.84867e-03,6.07953e+02
5.93613e-03,5.77373e+02
6.02489e-03,5.48278e+02
6.11499e-03,5.20599e+02
6.20643e-03,4.94271e+02
6.29924e-03,4.69231e+02
6.39343e-03,4.45418e+02
6.48904e-03,4.22775e+02
6.58607e-03,4.01247e+02
6.68456e-03,3.80781e+02
6.78451e-03,3.61327e+02
6.88597e-03,3.42838e+02
6.98894e-03,3.25267e+02
7.09345e-03,3.08571e+02
7.19952e-03,2.92707e+02
7.30718e-03,2.77636e+02
7.41644e-03,2.63319e+02
7.52735e-03,2.49721e+02
7.63991e-03,2.36807e+02
7.75415e-03,2.24543e+02
7.87010e-03,2.12898e+02
7.98779e-03,2.01841e+02
8.10723e-03,1.91344e+02
8.22847e-03,1.81380e+02
8.35151e-03,1.71922e+02
8.47640e-03,1.62946e+02
8.60315e-03,1.54428e+02
8.73180e-03,1.46344e+02
8.86237e-03,1.38675e+02
8.99489e-03,1.31398e+02
9.12940e-03,1.24494e+02
9.26591e-03,1.17946e+02
9.40447e-03,1.11735e+02
9.54510e-03,1.05844e+02
9.68784e-03,1.00257e+02
9.83270e-03,9.49590e+01
9.97974e-03,8.99355e+01
1.01290e-02,8.51724e+01
1.02804e-02,8.06566e+01
1.04342e-02,7.63757e+01
1.05902e-02,7.23176e+01
1.07486e-02,6.84711e+01
1.09093e-02,6.48254e+01
1.10724e-02,6.13702e+01
1.12380e-02,5.80958e+01
1.14060e-02,5.49930e+01
1.15766e-02,5.20528e+01
1.17497e-02,4.92671e+01
1.19254e-02,4.66278e+01
1.21037e-02,4.41274e+01
1.22847e-02,4.17587e+01
1.24684e-02,3.95150e+01
1.26549e-02,3.73897e+01
1.28441e-02,3.53767e+01
1.30362e-02,3.34702e+01
1.32311e-02,3.16646e+01
1.34290e-02,2.99548e+01
1.36298e-02,2.83356e+01
1.38336e-02,2.68024e+01
1.40405e-02,2.53507e+01
1.42504e-02,2.39763e+01
1.44635e-02,2.26750e+01
1.46798e-02,2.14430e+01
1.48993e-02,2.02767e+01
1.51221e-02,1.91727e+01
1.53482e-02,1.81277e+01
1.55777e-02,1.71385e+01
1.58107e-02,1.62022e+01
1.60471e-02,1.53161e+01
1.62871e-02,1.44774e+01
1.65306e-02,1.36837e+01
1.67778e-02,1.29325e+01
1.70287e-02,1.22217e+01
1.72833e-02,1.15491e+01
1.75418e-02,1.09126e+01
1.78041e-02,1.03104e+01
1.80703e-02,9.74054e+00
1.83405e-02,9.20140e+00
1.86148e-02,8.69131e+00
1.88932e-02,8.20873e+00
1.91757e-02,7.75218e+00
1.94624e-02,7.32027e+00
1.97534e-02,6.91169e+00
2.00488e-02,6.52518e+00
2.03486e-02,6.15958e+00
2.06529e-02,5.81374e+00
2.09618e-02,5.48663e+00
2.12752e-02,5.17722e+00
2.15933e-02,4.88457e+00
2.19162e-02,4.60779e+00
2.22440e-02,4.34601e+00
2.25766e-02,4.09843e+00
2.29142e-02,3.86428e+00
2.32568e-02,3.64285e+00
2.36046e-02,3.43344e+00
2.39576e-02,3.23541e+00
2.43158e-02,3.04815e+00
2.46795e-02,2.87107e+00
2.50485e-02,2.70362e+00
2.54231e-02,2.54528e+00
2.58032e-02,2.39556e+00
2.61891e-02,2.25399e+00
2.65807e-02,2.12014e+00
2.69782e-02,1.99357e+00
2.73816e-02,1.87391e+00
2.77910e-02,1.76077e+00
2.82066e-02,1.65381e+00
2.86284e-02,1.55268e+00
2.90565e-02,1.45706e+00
2.94910e-02,1.36667e+00
2.99320e-02,1.28122e+00
3.03796e-02,1.20043e+00
3.08339e-02,1.12405e+00
3.12949e-02,1.05185e+00
3.17629e-02,9.83600e-01
3.22379e-02,9.19079e-01
3.27200e-02,8.58086e-01
3.32092e-02,8.00430e-01
3.37058e-02,7.45929e-01
3.42099e-02,6.94411e-01
3.47214e-02,6.45713e-01
3.52406e-02,5.99682e-01
3.57676e-02,5.56171e-01
3.63024e-02,5.15044e-01
3.68453e-02,4.76171e-01
3.73963e-02,4.39427e-01
3.79555e-02,4.04698e-01
3.85230e-02,3.71872e-01
3.90991e-02,3.40847e-01
3.96838e-02,3.11523e-01
4.02772e-02,2.83807e-01
4.08795e-02,2.57612e-01
4.14908e-02,2.32854e-01
4.21112e-02,2.09454e-01
4.27409e-02,1.87340e-01
4.33800e-02,1.66439e-01
4.40287e-02,1.46685e-01
4.46871e-02,1.28017e-01
4.53553e-02,1.10373e-01
4.60336e-02,9.36991e-02
4.67219e-02,7.79408e-02
4.74206e-02,6.30484e-02
4.81297e-02,4.89743e-02
4.88494e-02,3.56737e-02
4.95799e-02,2.31041e-02
5.03213e-02,1.12255e-02
5.10738e-02,0.00000e+00
