m1=10142.220, m2=38.445, gsp=2.486, rhosp=2027.412
fGW[Hz],dPh[rad]
3.22974e-03,1.42835e+05
3.31028e-03,1.35859e+05
3.39283e-03,1.29221e+05
3.47743e-03,1.22905e+05
3.56415e-03,1.16895e+05
3.65302e-03,1.11177e+05
3.74412e-03,1.05736e+05
3.83748e-03,1.00559e+05
3.93317e-03,9.56337e+04
4.03125e-03,9.09470e+04
4.13178e-03,8.64878e+04
4.23481e-03,8.22451e+04
4.34041e-03,7.82084e+04
4.44864e-03,7.43677e+04
4.55958e-03,7.07137e+04
4.67328e-03,6.72372e+04
4.78981e-03,6.39296e+04
4.90925e-03,6.07829e+04
5.03167e-03,5.77891e+04
5.15714e-03,5.49410e+04
5.28574e-03,5.22314e+04
5.41755e-03,4.96537e+04
5.55264e-03,4.72015e+04
5.69110e-03,4.48687e+04
5.83302e-03,4.26495e+04
5.97847e-03,4.05385e+04
6.12756e-03,3.85304e+04
6.28035e-03,3.66201e+04
6.43696e-03,3.48031e+04
6.59748e-03,3.30747e+04
6.76199e-03,3.14307e+04
6.93061e-03,2.98669e+04
7.10344e-03,2.83796e+04
7.28057e-03,2.69650e+04
7.46212e-03,2.56195e+04
7.64820e-03,2.43399e+04
7.83892e-03,2.31228e+04
8.03439e-03,2.19654e+04
8.23474e-03,2.08647e+04
8.44008e-03,1.98179e+04
8.65055e-03,1.88225e+04
8.86626e-03,1.78760e+04
9.08735e-03,1.69759e+04
9.31396e-03,1.61200e+04
9.54622e-03,1.53062e+04
9.78426e-03,1.45325e+04
1.00282e-02,1.37969e+04
1.02783e-02,1.30974e+04
1.05346e-02,1.24325e+04
1.07973e-02,1.18004e+04
1.10666e-02,1.11995e+04
1.13425e-02,1.06283e+04
1.16254e-02,1.00853e+04
1.19153e-02,9.56927e+03
1.22124e-02,9.07876e+03
1.25169e-02,8.61258e+03
1.28290e-02,8.16954e+03
1.31489e-02,7.74852e+03
1.34768e-02,7.34844e+03
1.38129e-02,6.96828e+03
1.41573e-02,6.60708e+03
1.45104e-02,6.26390e+03
1.48722e-02,5.93786e+03
1.52431e-02,5.62814e+03
1.56232e-02,5.33393e+03
1.60128e-02,5.05448e+03
1.64120e-02,4.78906e+03
1.68213e-02,4.53699e+03
1.72408e-02,4.29762e+03
1.76707e-02,4.07032e+03
1.81113e-02,3.85450e+03
1.85630e-02,3.64960e+03
1.90259e-02,3.45508e+03
1.95003e-02,3.27044e+03
1.99866e-02,3.09519e+03
2.04849e-02,2.92886e+03
2.09958e-02,2.77102e+03
2.15193e-02,2.62126e+03
2.20559e-02,2.47917e+03
2.26059e-02,2.34437e+03
2.31696e-02,2.21650e+03
2.37474e-02,2.09523e+03
2.43396e-02,1.98023e+03
2.49465e-02,1.87118e+03
2.55686e-02,1.76779e+03
2.62062e-02,1.66978e+03
2.68597e-02,1.57688e+03
2.75294e-02,1.48884e+03
2.82159e-02,1.40542e+03
2.89195e-02,1.32639e+03
2.96407e-02,1.25152e+03
3.03798e-02,1.18061e+03
3.11374e-02,1.11346e+03
3.19138e-02,1.04988e+03
3.27096e-02,9.89695e+02
3.35253e-02,9.32731e+02
3.43613e-02,8.78827e+02
3.52181e-02,8.27826e+02
3.60963e-02,7.79584e+02
3.69965e-02,7.33959e+02
3.79190e-02,6.90818e+02
3.88646e-02,6.50035e+02
3.98337e-02,6.11490e+02
4.08270e-02,5.75067e+02
4.18451e-02,5.40658e+02
4.28886e-02,5.08159e+02
4.39580e-02,4.77472e+02
4.50542e-02,4.48502e+02
4.61777e-02,4.21161e+02
4.73292e-02,3.95364e+02
4.85094e-02,3.71030e+02
4.97191e-02,3.48082e+02
5.09589e-02,3.26448e+02
5.22296e-02,3.06057e+02
5.35320e-02,2.86845e+02
5.48669e-02,2.68748e+02
5.62351e-02,2.51708e+02
5.76374e-02,2.35666e+02
5.90746e-02,2.20570e+02
6.05477e-02,2.06368e+02
6.20576e-02,1.93012e+02
6.36051e-02,1.80455e+02
6.51911e-02,1.68654e+02
6.68168e-02,1.57567e+02
6.84829e-02,1.47154e+02
7.01907e-02,1.37379e+02
7.19410e-02,1.28205e+02
7.37349e-02,1.19598e+02
7.55736e-02,1.11526e+02
7.74581e-02,1.03960e+02
7.93896e-02,9.68694e+01
8.13693e-02,9.02274e+01
8.33984e-02,8.40081e+01
8.54780e-02,7.81869e+01
8.76095e-02,7.27403e+01
8.97942e-02,6.76463e+01
9.20333e-02,6.28841e+01
9.43283e-02,5.84337e+01
9.66805e-02,5.42764e+01
9.90914e-02,5.03946e+01
1.01562e-01,4.67714e+01
1.04095e-01,4.33910e+01
1.06691e-01,4.02385e+01
1.09351e-01,3.72996e+01
1.12078e-01,3.45610e+01
1.14873e-01,3.20101e+01
1.17737e-01,2.96351e+01
1.20673e-01,2.74247e+01
1.23682e-01,2.53683e+01
1.26767e-01,2.34560e+01
1.29928e-01,2.16784e+01
1.33168e-01,2.00267e+01
1.36488e-01,1.84925e+01
1.39892e-01,1.70682e+01
1.43380e-01,1.57463e+01
1.46956e-01,1.45200e+01
1.50620e-01,1.33827e+01
1.54376e-01,1.23285e+01
1.58226e-01,1.13516e+01
1.62171e-01,1.04467e+01
1.66215e-01,9.60882e+00
1.70360e-01,8.83326e+00
1.74608e-01,8.11565e+00
1.78962e-01,7.45190e+00
1.83425e-01,6.83817e+00
1.87999e-01,6.27090e+00
1.92687e-01,5.74674e+00
1.97492e-01,5.26259e+00
2.02416e-01,4.81552e+00
2.07464e-01,4.40284e+00
2.12637e-01,4.02202e+00
2.17940e-01,3.67071e+00
2.23374e-01,3.34672e+00
2.28944e-01,3.04801e+00
2.34653e-01,2.77269e+00
2.40505e-01,2.51900e+00
2.46502e-01,2.28530e+00
2.52649e-01,2.07009e+00
2.58949e-01,1.87194e+00
2.65406e-01,1.68955e+00
2.72025e-01,1.52172e+00
2.78808e-01,1.36731e+00
2.85760e-01,1.22529e+00
2.92886e-01,1.09469e+00
3.00190e-01,9.74620e-01
3.07675e-01,8.64259e-01
3.15348e-01,7.62842e-01
3.23211e-01,6.69663e-01
3.31271e-01,5.84070e-01
3.39532e-01,5.05460e-01
3.47998e-01,4.33278e-01
3.56676e-01,3.67010e-01
3.65570e-01,3.06183e-01
3.74686e-01,2.50360e-01
3.84030e-01,1.99136e-01
3.93606e-01,1.52142e-01
4.03421e-01,1.09035e-01
4.13481e-01,6.94982e-02
4.23791e-01,3.32425e-02
4.34359e-01,0.00000e+00
