m1=448896.951, m2=3.169, gsp=2.065, rhosp=251.320
fGW[Hz],dPh[rad]
3.19108e-03,4.85863e+01
3.20911e-03,4.75042e+01
3.22725e-03,4.64459e+01
3.24549e-03,4.54109e+01
3.26383e-03,4.43986e+01
3.28228e-03,4.34086e+01
3.30083e-03,4.24404e+01
3.31948e-03,4.14934e+01
3.33825e-03,4.05673e+01
3.35711e-03,3.96615e+01
3.37609e-03,3.87757e+01
3.39517e-03,3.79093e+01
3.41436e-03,3.70620e+01
3.43365e-03,3.62334e+01
3.45306e-03,3.54229e+01
3.47258e-03,3.46303e+01
3.49220e-03,3.38552e+01
3.51194e-03,3.30970e+01
3.53179e-03,3.23556e+01
3.55175e-03,3.16305e+01
3.57182e-03,3.09213e+01
3.59201e-03,3.02277e+01
3.61231e-03,2.95494e+01
3.63273e-03,2.88860e+01
3.65326e-03,2.82371e+01
3.67391e-03,2.76026e+01
3.69467e-03,2.69820e+01
3.71555e-03,2.63751e+01
3.73655e-03,2.57816e+01
3.75767e-03,2.52011e+01
3.77891e-03,2.46333e+01
3.80026e-03,2.40781e+01
3.82174e-03,2.35351e+01
3.84334e-03,2.30040e+01
3.86506e-03,2.24846e+01
3.88691e-03,2.19766e+01
3.90888e-03,2.14799e+01
3.93097e-03,2.09940e+01
3.95319e-03,2.05189e+01
3.97553e-03,2.00542e+01
3.99800e-03,1.95997e+01
4.02059e-03,1.91552e+01
4.04332e-03,1.87205e+01
4.06617e-03,1.82954e+01
4.08915e-03,1.78796e+01
4.11226e-03,1.74730e+01
4.13550e-03,1.70754e+01
4.15887e-03,1.66865e+01
4.18238e-03,1.63061e+01
4.20602e-03,1.59341e+01
4.22979e-03,1.55703e+01
4.25370e-03,1.52146e+01
4.27774e-03,1.48666e+01
4.30191e-03,1.45263e+01
4.32623e-03,1.41935e+01
4.35068e-03,1.38680e+01
4.37527e-03,1.35497e+01
4.39999e-03,1.32384e+01
4.42486e-03,1.29340e+01
4.44987e-03,1.26362e+01
4.47502e-03,1.23450e+01
4.50031e-03,1.20603e+01
4.52575e-03,1.17817e+01
4.55133e-03,1.15094e+01
4.57705e-03,1.12430e+01
4.60292e-03,1.09825e+01
4.62893e-03,1.07277e+01
4.65509e-03,1.04785e+01
4.68140e-03,1.02348e+01
4.70786e-03,9.99650e+00
4.73447e-03,9.76343e+00
4.76123e-03,9.53549e+00
4.78814e-03,9.31256e+00
4.81520e-03,9.09455e+00
4.84241e-03,8.88134e+00
4.86978e-03,8.67282e+00
4.89730e-03,8.46889e+00
4.92498e-03,8.26946e+00
4.95282e-03,8.07441e+00
4.98081e-03,7.88367e+00
5.00896e-03,7.69712e+00
5.03727e-03,7.51468e+00
5.06574e-03,7.33626e+00
5.09437e-03,7.16176e+00
5.12316e-03,6.99111e+00
5.15212e-03,6.82422e+00
5.18124e-03,6.66101e+00
5.21052e-03,6.50139e+00
5.23997e-03,6.34528e+00
5.26958e-03,6.19261e+00
5.29937e-03,6.04331e+00
5.32932e-03,5.89729e+00
5.35944e-03,5.75449e+00
5.38973e-03,5.61483e+00
5.42019e-03,5.47825e+00
5.45082e-03,5.34468e+00
5.48163e-03,5.21405e+00
5.51261e-03,5.08630e+00
5.54377e-03,4.96136e+00
5.57510e-03,4.83917e+00
5.60661e-03,4.71968e+00
5.63830e-03,4.60282e+00
5.67016e-03,4.48853e+00
5.70221e-03,4.37676e+00
5.73444e-03,4.26745e+00
5.76685e-03,4.16055e+00
5.79944e-03,4.05600e+00
5.83222e-03,3.95376e+00
5.86518e-03,3.85377e+00
5.89833e-03,3.75598e+00
5.93166e-03,3.66034e+00
5.96519e-03,3.56682e+00
5.99890e-03,3.47535e+00
6.03281e-03,3.38590e+00
6.06690e-03,3.29842e+00
6.10119e-03,3.21286e+00
6.13567e-03,3.12919e+00
6.17035e-03,3.04737e+00
6.20522e-03,2.96735e+00
6.24030e-03,2.88909e+00
6.27556e-03,2.81255e+00
6.31103e-03,2.73770e+00
6.34670e-03,2.66450e+00
6.38257e-03,2.59291e+00
6.41864e-03,2.52290e+00
6.45492e-03,2.45443e+00
6.49140e-03,2.38747e+00
6.52809e-03,2.32199e+00
6.56499e-03,2.25795e+00
6.60209e-03,2.19532e+00
6.63940e-03,2.13407e+00
6.67693e-03,2.07416e+00
6.71466e-03,2.01558e+00
6.75261e-03,1.95829e+00
6.79078e-03,1.90226e+00
6.82916e-03,1.84747e+00
6.86776e-03,1.79388e+00
6.90657e-03,1.74148e+00
6.94561e-03,1.69023e+00
6.98486e-03,1.64011e+00
7.02434e-03,1.59109e+00
7.06404e-03,1.54315e+00
7.10396e-03,1.49627e+00
7.14411e-03,1.45043e+00
7.18449e-03,1.40559e+00
7.22509e-03,1.36174e+00
7.26593e-03,1.31886e+00
7.30699e-03,1.27692e+00
7.34829e-03,1.23590e+00
7.38982e-03,1.19579e+00
7.43159e-03,1.15657e+00
7.47359e-03,1.11821e+00
7.51583e-03,1.08069e+00
7.55831e-03,1.04400e+00
7.60103e-03,1.00812e+00
7.64398e-03,9.73029e-01
7.68719e-03,9.38712e-01
7.73063e-03,9.05151e-01
7.77432e-03,8.72330e-01
7.81826e-03,8.40232e-01
7.86245e-03,8.08842e-01
7.90689e-03,7.78143e-01
7.95158e-03,7.48121e-01
7.99652e-03,7.18760e-01
8.04171e-03,6.90047e-01
8.08716e-03,6.61966e-01
8.13287e-03,6.34504e-01
8.17883e-03,6.07648e-01
8.22506e-03,5.81383e-01
8.27154e-03,5.55697e-01
8.31829e-03,5.30578e-01
8.36531e-03,5.06012e-01
8.41259e-03,4.81987e-01
8.46013e-03,4.58492e-01
8.50795e-03,4.35515e-01
8.55603e-03,4.13044e-01
8.60439e-03,3.91068e-01
8.65302e-03,3.69577e-01
8.70192e-03,3.48559e-01
8.75110e-03,3.28005e-01
8.80056e-03,3.07904e-01
8.85030e-03,2.88245e-01
8.90032e-03,2.69020e-01
8.95063e-03,2.50219e-01
9.00121e-03,2.31832e-01
9.05209e-03,2.13851e-01
9.10325e-03,1.96265e-01
9.15470e-03,1.79068e-01
9.20644e-03,1.62249e-01
9.25847e-03,1.45801e-01
9.31080e-03,1.29716e-01
9.36342e-03,1.13985e-01
9.41634e-03,9.86009e-02
9.46956e-03,8.35560e-02
9.52308e-03,6.88426e-02
9.57690e-03,5.44536e-02
9.63103e-03,4.03817e-02
9.68546e-03,2.66200e-02
9.74020e-03,1.31617e-02
9.79525e-03,0.00000e+00
