m1=70483.809, m2=17.956, gsp=2.301, rhosp=5920.716
fGW[Hz],dPh[rad]
2.64528e-03,4.33664e+04
2.68763e-03,4.14754e+04
2.73066e-03,3.96612e+04
2.77438e-03,3.79209e+04
2.81879e-03,3.62517e+04
2.86392e-03,3.46510e+04
2.90977e-03,3.31160e+04
2.95635e-03,3.16445e+04
3.00368e-03,3.02338e+04
3.05177e-03,2.88818e+04
3.10063e-03,2.75861e+04
3.15027e-03,2.63446e+04
3.20070e-03,2.51552e+04
3.25194e-03,2.40159e+04
3.30400e-03,2.29247e+04
3.35690e-03,2.18798e+04
3.41064e-03,2.08794e+04
3.46524e-03,1.99217e+04
3.52072e-03,1.90050e+04
3.57709e-03,1.81277e+04
3.63435e-03,1.72883e+04
3.69254e-03,1.64852e+04
3.75165e-03,1.57170e+04
3.81172e-03,1.49823e+04
3.87274e-03,1.42798e+04
3.93474e-03,1.36081e+04
3.99773e-03,1.29661e+04
4.06173e-03,1.23524e+04
4.12676e-03,1.17660e+04
4.19283e-03,1.12056e+04
4.25995e-03,1.06704e+04
4.32815e-03,1.01592e+04
4.39744e-03,9.67094e+03
4.46784e-03,9.20479e+03
4.53937e-03,8.75977e+03
4.61205e-03,8.33501e+03
4.68588e-03,7.92965e+03
4.76090e-03,7.54286e+03
4.83712e-03,7.17387e+03
4.91456e-03,6.82191e+03
4.99324e-03,6.48625e+03
5.07318e-03,6.16619e+03
5.15440e-03,5.86107e+03
5.23692e-03,5.57022e+03
5.32076e-03,5.29303e+03
5.40594e-03,5.02891e+03
5.49249e-03,4.77728e+03
5.58042e-03,4.53758e+03
5.66976e-03,4.30930e+03
5.76053e-03,4.09192e+03
5.85275e-03,3.88496e+03
5.94645e-03,3.68796e+03
6.04165e-03,3.50045e+03
6.13837e-03,3.32203e+03
6.23665e-03,3.15226e+03
6.33649e-03,2.99077e+03
6.43794e-03,2.83717e+03
6.54100e-03,2.69110e+03
6.64572e-03,2.55221e+03
6.75212e-03,2.42017e+03
6.86021e-03,2.29467e+03
6.97004e-03,2.17540e+03
7.08163e-03,2.06206e+03
7.19500e-03,1.95438e+03
7.31019e-03,1.85209e+03
7.42722e-03,1.75494e+03
7.54613e-03,1.66269e+03
7.66694e-03,1.57509e+03
7.78968e-03,1.49193e+03
7.91439e-03,1.41300e+03
8.04110e-03,1.33808e+03
8.16983e-03,1.26699e+03
8.30062e-03,1.19954e+03
8.43351e-03,1.13555e+03
8.56853e-03,1.07486e+03
8.70571e-03,1.01730e+03
8.84508e-03,9.62716e+02
8.98669e-03,9.10964e+02
9.13056e-03,8.61903e+02
9.27673e-03,8.15399e+02
9.42525e-03,7.71324e+02
9.57614e-03,7.29558e+02
9.72945e-03,6.89984e+02
9.88522e-03,6.52491e+02
1.00435e-02,6.16976e+02
1.02043e-02,5.83338e+02
1.03676e-02,5.51480e+02
1.05336e-02,5.21314e+02
1.07022e-02,4.92752e+02
1.08736e-02,4.65712e+02
1.10477e-02,4.40116e+02
1.12245e-02,4.15890e+02
1.14042e-02,3.92962e+02
1.15868e-02,3.71266e+02
1.17723e-02,3.50738e+02
1.19608e-02,3.31317e+02
1.21523e-02,3.12945e+02
1.23468e-02,2.95567e+02
1.25445e-02,2.79131e+02
1.27453e-02,2.63587e+02
1.29494e-02,2.48889e+02
1.31567e-02,2.34992e+02
1.33673e-02,2.21853e+02
1.35813e-02,2.09433e+02
1.37987e-02,1.97692e+02
1.40196e-02,1.86596e+02
1.42441e-02,1.76108e+02
1.44721e-02,1.66198e+02
1.47038e-02,1.56833e+02
1.49392e-02,1.47985e+02
1.51784e-02,1.39625e+02
1.54214e-02,1.31728e+02
1.56683e-02,1.24268e+02
1.59191e-02,1.17222e+02
1.61740e-02,1.10567e+02
1.64329e-02,1.04282e+02
1.66960e-02,9.83469e+01
1.69633e-02,9.27425e+01
1.72349e-02,8.74507e+01
1.75108e-02,8.24546e+01
1.77911e-02,7.77379e+01
1.80759e-02,7.32852e+01
1.83653e-02,6.90821e+01
1.86594e-02,6.51147e+01
1.89581e-02,6.13702e+01
1.92616e-02,5.78362e+01
1.95700e-02,5.45010e+01
1.98833e-02,5.13537e+01
2.02016e-02,4.83839e+01
2.05250e-02,4.55816e+01
2.08536e-02,4.29376e+01
2.11875e-02,4.04431e+01
2.15267e-02,3.80897e+01
2.18713e-02,3.58696e+01
2.22214e-02,3.37753e+01
2.25772e-02,3.17998e+01
2.29386e-02,2.99364e+01
2.33059e-02,2.81789e+01
2.36790e-02,2.65213e+01
2.40581e-02,2.49580e+01
2.44432e-02,2.34837e+01
2.48346e-02,2.20934e+01
2.52321e-02,2.07824e+01
2.56361e-02,1.95461e+01
2.60465e-02,1.83804e+01
2.64635e-02,1.72813e+01
2.68872e-02,1.62451e+01
2.73176e-02,1.52681e+01
2.77550e-02,1.43470e+01
2.81993e-02,1.34786e+01
2.86508e-02,1.26600e+01
2.91094e-02,1.18884e+01
2.95755e-02,1.11609e+01
3.00490e-02,1.04753e+01
3.05300e-02,9.82895e+00
3.10188e-02,9.21976e+00
3.15154e-02,8.64559e+00
3.20199e-02,8.10442e+00
3.25326e-02,7.59438e+00
3.30534e-02,7.11370e+00
3.35826e-02,6.66069e+00
3.41202e-02,6.23377e+00
3.46664e-02,5.83145e+00
3.52214e-02,5.45233e+00
3.57853e-02,5.09507e+00
3.63582e-02,4.75841e+00
3.69403e-02,4.44119e+00
3.75317e-02,4.14229e+00
3.81326e-02,3.86064e+00
3.87430e-02,3.59527e+00
3.93633e-02,3.34524e+00
3.99935e-02,3.10966e+00
4.06338e-02,2.88770e+00
4.12843e-02,2.67859e+00
4.19452e-02,2.48158e+00
4.26167e-02,2.29597e+00
4.32990e-02,2.12111e+00
4.39922e-02,1.95638e+00
4.46965e-02,1.80119e+00
4.54121e-02,1.65499e+00
4.61391e-02,1.51727e+00
4.68778e-02,1.38754e+00
4.76282e-02,1.26533e+00
4.83907e-02,1.15021e+00
4.91655e-02,1.04177e+00
4.99526e-02,9.39621e-01
5.07523e-02,8.43405e-01
5.15648e-02,7.52775e-01
5.23903e-02,6.67409e-01
5.32291e-02,5.87002e-01
5.40812e-02,5.11267e-01
5.49471e-02,4.39933e-01
5.58267e-02,3.72746e-01
5.67205e-02,3.09465e-01
5.76286e-02,2.49863e-01
5.85512e-02,1.93728e-01
5.94885e-02,1.40858e-01
6.04409e-02,9.10639e-02
6.14085e-02,4.41673e-02
6.23917e-02,0.00000e+00
