m1=148594.931, m2=30.086, gsp=2.066, rhosp=919.114
fGW[Hz],dPh[rad]
1.80898e-03,3.70447e+02
1.83457e-03,3.54180e+02
1.86051e-03,3.38586e+02
1.88683e-03,3.23640e+02
1.91351e-03,3.09317e+02
1.94058e-03,2.95592e+02
1.96802e-03,2.82443e+02
1.99586e-03,2.69846e+02
2.02408e-03,2.57781e+02
2.05271e-03,2.46225e+02
2.08174e-03,2.35160e+02
2.11119e-03,2.24565e+02
2.14105e-03,2.14423e+02
2.17133e-03,2.04714e+02
2.20204e-03,1.95422e+02
2.23318e-03,1.86530e+02
2.26477e-03,1.78022e+02
2.29680e-03,1.69882e+02
2.32928e-03,1.62095e+02
2.36222e-03,1.54648e+02
2.39563e-03,1.47526e+02
2.42952e-03,1.40716e+02
2.46388e-03,1.34204e+02
2.49873e-03,1.27980e+02
2.53407e-03,1.22030e+02
2.56991e-03,1.16345e+02
2.60625e-03,1.10911e+02
2.64311e-03,1.05720e+02
2.68050e-03,1.00760e+02
2.71841e-03,9.60231e+01
2.75685e-03,9.14986e+01
2.79585e-03,8.71778e+01
2.83539e-03,8.30522e+01
2.87549e-03,7.91134e+01
2.91616e-03,7.53534e+01
2.95740e-03,7.17646e+01
2.99923e-03,6.83395e+01
3.04165e-03,6.50712e+01
3.08467e-03,6.19529e+01
3.12830e-03,5.89780e+01
3.17254e-03,5.61403e+01
3.21741e-03,5.34338e+01
3.26292e-03,5.08527e+01
3.30906e-03,4.83915e+01
3.35587e-03,4.60450e+01
3.40333e-03,4.38080e+01
3.45146e-03,4.16758e+01
3.50028e-03,3.96435e+01
3.54978e-03,3.77069e+01
3.59999e-03,3.58615e+01
3.65090e-03,3.41033e+01
3.70254e-03,3.24283e+01
3.75491e-03,3.08329e+01
3.80801e-03,2.93133e+01
3.86187e-03,2.78662e+01
3.91649e-03,2.64882e+01
3.97188e-03,2.51762e+01
4.02806e-03,2.39272e+01
4.08503e-03,2.27382e+01
4.14280e-03,2.16065e+01
4.20140e-03,2.05294e+01
4.26082e-03,1.95044e+01
4.32108e-03,1.85291e+01
4.38220e-03,1.76012e+01
4.44417e-03,1.67185e+01
4.50703e-03,1.58788e+01
4.57077e-03,1.50801e+01
4.63542e-03,1.43205e+01
4.70098e-03,1.35982e+01
4.76747e-03,1.29113e+01
4.83490e-03,1.22582e+01
4.90328e-03,1.16374e+01
4.97263e-03,1.10472e+01
5.04295e-03,1.04861e+01
5.11428e-03,9.95293e+00
5.18661e-03,9.44619e+00
5.25997e-03,8.96464e+00
5.33436e-03,8.50707e+00
5.40981e-03,8.07232e+00
5.48632e-03,7.65928e+00
5.56391e-03,7.26692e+00
5.64261e-03,6.89421e+00
5.72241e-03,6.54020e+00
5.80334e-03,6.20398e+00
5.88542e-03,5.88469e+00
5.96866e-03,5.58148e+00
6.05308e-03,5.29358e+00
6.13869e-03,5.02023e+00
6.22551e-03,4.76071e+00
6.31356e-03,4.51434e+00
6.40285e-03,4.28047e+00
6.49341e-03,4.05848e+00
6.58525e-03,3.84779e+00
6.67839e-03,3.64782e+00
6.77284e-03,3.45805e+00
6.86863e-03,3.27797e+00
6.96578e-03,3.10709e+00
7.06430e-03,2.94496e+00
7.16421e-03,2.79113e+00
7.26554e-03,2.64519e+00
7.36829e-03,2.50674e+00
7.47251e-03,2.37541e+00
7.57819e-03,2.25084e+00
7.68537e-03,2.13268e+00
7.79407e-03,2.02061e+00
7.90430e-03,1.91433e+00
8.01610e-03,1.81353e+00
8.12947e-03,1.71795e+00
8.24445e-03,1.62731e+00
8.36105e-03,1.54137e+00
8.47930e-03,1.45988e+00
8.59923e-03,1.38263e+00
8.72085e-03,1.30938e+00
8.84419e-03,1.23994e+00
8.96928e-03,1.17412e+00
9.09613e-03,1.11172e+00
9.22478e-03,1.05257e+00
9.35525e-03,9.96511e-01
9.48757e-03,9.43374e-01
9.62175e-03,8.93012e-01
9.75784e-03,8.45283e-01
9.89584e-03,8.00050e-01
1.00358e-02,7.57184e-01
1.01777e-02,7.16564e-01
1.03217e-02,6.78072e-01
1.04677e-02,6.41600e-01
1.06157e-02,6.07041e-01
1.07659e-02,5.74298e-01
1.09181e-02,5.43274e-01
1.10725e-02,5.13882e-01
1.12291e-02,4.86037e-01
1.13880e-02,4.59657e-01
1.15490e-02,4.34667e-01
1.17124e-02,4.10993e-01
1.18780e-02,3.88569e-01
1.20460e-02,3.67327e-01
1.22164e-02,3.47206e-01
1.23892e-02,3.28148e-01
1.25644e-02,3.10098e-01
1.27421e-02,2.93001e-01
1.29223e-02,2.76809e-01
1.31051e-02,2.61473e-01
1.32904e-02,2.46950e-01
1.34784e-02,2.33196e-01
1.36690e-02,2.20171e-01
1.38623e-02,2.07836e-01
1.40584e-02,1.96155e-01
1.42572e-02,1.85094e-01
1.44589e-02,1.74621e-01
1.46634e-02,1.64703e-01
1.48708e-02,1.55312e-01
1.50811e-02,1.46421e-01
1.52944e-02,1.38002e-01
1.55107e-02,1.30030e-01
1.57301e-02,1.22483e-01
1.59525e-02,1.15338e-01
1.61782e-02,1.08573e-01
1.64070e-02,1.02168e-01
1.66390e-02,9.61044e-02
1.68744e-02,9.03639e-02
1.71130e-02,8.49295e-02
1.73551e-02,7.97848e-02
1.76005e-02,7.49146e-02
1.78494e-02,7.03042e-02
1.81019e-02,6.59399e-02
1.83579e-02,6.18086e-02
1.86176e-02,5.78979e-02
1.88809e-02,5.41961e-02
1.91479e-02,5.06921e-02
1.94187e-02,4.73753e-02
1.96934e-02,4.42358e-02
1.99719e-02,4.12642e-02
2.02544e-02,3.84516e-02
2.05408e-02,3.57894e-02
2.08313e-02,3.32696e-02
2.11260e-02,3.08847e-02
2.14248e-02,2.86275e-02
2.17278e-02,2.64911e-02
2.20351e-02,2.44691e-02
2.23467e-02,2.25555e-02
2.26628e-02,2.07444e-02
2.29833e-02,1.90303e-02
2.33084e-02,1.74081e-02
2.36380e-02,1.58728e-02
2.39724e-02,1.44199e-02
2.43114e-02,1.30449e-02
2.46552e-02,1.17436e-02
2.50039e-02,1.05121e-02
2.53576e-02,9.34676e-03
2.57162e-02,8.24391e-03
2.60799e-02,7.20025e-03
2.64488e-02,6.21261e-03
2.68229e-02,5.27800e-03
2.72022e-02,4.39357e-03
2.75870e-02,3.55664e-03
2.79771e-02,2.76467e-03
2.83728e-02,2.01523e-03
2.87741e-02,1.30606e-03
2.91811e-02,6.35000e-04
2.95938e-02,0.00000e+00
