m1=1588.920, m2=19.460, gsp=2.003, rhosp=53.272
fGW[Hz],dPh[rad]
6.63384e-03,4.99942e+00
6.83826e-03,4.65768e+00
7.04898e-03,4.33929e+00
7.26619e-03,4.04265e+00
7.49010e-03,3.76628e+00
7.72090e-03,3.50879e+00
7.95882e-03,3.26890e+00
8.20407e-03,3.04539e+00
8.45688e-03,2.83716e+00
8.71747e-03,2.64316e+00
8.98610e-03,2.46241e+00
9.26300e-03,2.29402e+00
9.54844e-03,2.13713e+00
9.84267e-03,1.99096e+00
1.01460e-02,1.85479e+00
1.04586e-02,1.72791e+00
1.07809e-02,1.60971e+00
1.11131e-02,1.49959e+00
1.14555e-02,1.39699e+00
1.18085e-02,1.30141e+00
1.21724e-02,1.21236e+00
1.25475e-02,1.12939e+00
1.29342e-02,1.05210e+00
1.33327e-02,9.80088e-01
1.37436e-02,9.13001e-01
1.41671e-02,8.50499e-01
1.46036e-02,7.92270e-01
1.50536e-02,7.38022e-01
1.55175e-02,6.87484e-01
1.59957e-02,6.40400e-01
1.64886e-02,5.96536e-01
1.69967e-02,5.55671e-01
1.75204e-02,5.17601e-01
1.80603e-02,4.82135e-01
1.86168e-02,4.49094e-01
1.91905e-02,4.18312e-01
1.97818e-02,3.89637e-01
2.03914e-02,3.62922e-01
2.10197e-02,3.38036e-01
2.16675e-02,3.14851e-01
2.23351e-02,2.93253e-01
2.30234e-02,2.73133e-01
2.37328e-02,2.54390e-01
2.44642e-02,2.36929e-01
2.52180e-02,2.20664e-01
2.59951e-02,2.05511e-01
2.67961e-02,1.91396e-01
2.76219e-02,1.78248e-01
2.84730e-02,1.65999e-01
2.93504e-02,1.54590e-01
3.02548e-02,1.43961e-01
3.11871e-02,1.34061e-01
3.21481e-02,1.24839e-01
3.31388e-02,1.16249e-01
3.41599e-02,1.08247e-01
3.52125e-02,1.00793e-01
3.62976e-02,9.38509e-02
3.74161e-02,8.73843e-02
3.85691e-02,8.13610e-02
3.97576e-02,7.57508e-02
4.09827e-02,7.05254e-02
4.22456e-02,6.56584e-02
4.35473e-02,6.11254e-02
4.48892e-02,5.69034e-02
4.62725e-02,5.29712e-02
4.76983e-02,4.93090e-02
4.91682e-02,4.58983e-02
5.06833e-02,4.27219e-02
5.22450e-02,3.97637e-02
5.38550e-02,3.70088e-02
5.55145e-02,3.44433e-02
5.72251e-02,3.20542e-02
5.89885e-02,2.98294e-02
6.08062e-02,2.77577e-02
6.26799e-02,2.58285e-02
6.46114e-02,2.40322e-02
6.66024e-02,2.23596e-02
6.86547e-02,2.08023e-02
7.07703e-02,1.93523e-02
7.29510e-02,1.80022e-02
7.51990e-02,1.67453e-02
7.75162e-02,1.55752e-02
7.99049e-02,1.44858e-02
8.23671e-02,1.34717e-02
8.49052e-02,1.25276e-02
8.75216e-02,1.16489e-02
9.02185e-02,1.08309e-02
9.29986e-02,1.00695e-02
9.58643e-02,9.36091e-03
9.88183e-02,8.70140e-03
1.01863e-01,8.08762e-03
1.05002e-01,7.51643e-03
1.08238e-01,6.98490e-03
1.11573e-01,6.49031e-03
1.15011e-01,6.03011e-03
1.18555e-01,5.60193e-03
1.22209e-01,5.20358e-03
1.25974e-01,4.83300e-03
1.29856e-01,4.48827e-03
1.33858e-01,4.16761e-03
1.37982e-01,3.86937e-03
1.42234e-01,3.59199e-03
1.46617e-01,3.33404e-03
1.51135e-01,3.09417e-03
1.55792e-01,2.87114e-03
1.60593e-01,2.66378e-03
1.65542e-01,2.47101e-03
1.70643e-01,2.29182e-03
1.75901e-01,2.12526e-03
1.81321e-01,1.97047e-03
1.86909e-01,1.82663e-03
1.92668e-01,1.69297e-03
1.98605e-01,1.56879e-03
2.04725e-01,1.45344e-03
2.11034e-01,1.34629e-03
2.17537e-01,1.24678e-03
2.24240e-01,1.15438e-03
2.31150e-01,1.06859e-03
2.38273e-01,9.88943e-04
2.45615e-01,9.15016e-04
2.53184e-01,8.46409e-04
2.60985e-01,7.82749e-04
2.69028e-01,7.23689e-04
2.77318e-01,6.68906e-04
2.85863e-01,6.18100e-04
2.94672e-01,5.70990e-04
3.03752e-01,5.27318e-04
3.13112e-01,4.86839e-04
3.22760e-01,4.49329e-04
3.32706e-01,4.14577e-04
3.42958e-01,3.82388e-04
3.53527e-01,3.52580e-04
3.64420e-01,3.24984e-04
3.75650e-01,2.99441e-04
3.87225e-01,2.75805e-04
3.99158e-01,2.53940e-04
4.11457e-01,2.33719e-04
4.24136e-01,2.15024e-04
4.37206e-01,1.97744e-04
4.50678e-01,1.81777e-04
4.64566e-01,1.67029e-04
4.78881e-01,1.53411e-04
4.93638e-01,1.40840e-04
5.08849e-01,1.29240e-04
5.24529e-01,1.18540e-04
5.40692e-01,1.08674e-04
5.57354e-01,9.95803e-05
5.74528e-01,9.12015e-05
5.92232e-01,8.34849e-05
6.10482e-01,7.63809e-05
6.29293e-01,6.98437e-05
6.48685e-01,6.38308e-05
6.68674e-01,5.83026e-05
6.89279e-01,5.32224e-05
7.10519e-01,4.85560e-05
7.32413e-01,4.42718e-05
7.54982e-01,4.03406e-05
7.78247e-01,3.67349e-05
8.02228e-01,3.34295e-05
8.26948e-01,3.04011e-05
8.52431e-01,2.76279e-05
8.78698e-01,2.50897e-05
9.05775e-01,2.27679e-05
9.33686e-01,2.06453e-05
9.62457e-01,1.87059e-05
9.92115e-01,1.69348e-05
1.02269e+00,1.53185e-05
1.05420e+00,1.38442e-05
1.08669e+00,1.25002e-05
1.12017e+00,1.12759e-05
1.15469e+00,1.01611e-05
1.19027e+00,9.14675e-06
1.22695e+00,8.22432e-06
1.26476e+00,7.38600e-06
1.30373e+00,6.62459e-06
1.34390e+00,5.93344e-06
1.38531e+00,5.30647e-06
1.42800e+00,4.73806e-06
1.47201e+00,4.22306e-06
1.51737e+00,3.75673e-06
1.56412e+00,3.33474e-06
1.61232e+00,2.95308e-06
1.66200e+00,2.60812e-06
1.71322e+00,2.29651e-06
1.76601e+00,2.01519e-06
1.82043e+00,1.76136e-06
1.87652e+00,1.53248e-06
1.93435e+00,1.32620e-06
1.99396e+00,1.14039e-06
2.05540e+00,9.73124e-07
2.11873e+00,8.22623e-07
2.18402e+00,6.87280e-07
2.25132e+00,5.65633e-07
2.32070e+00,4.56352e-07
2.39221e+00,3.58227e-07
2.46592e+00,2.70164e-07
2.54191e+00,1.91169e-07
2.62024e+00,1.20341e-07
2.70098e+00,5.68635e-08
2.78421e+00,0.00000e+00
