m1=37708.279, m2=3.168, gsp=2.371, rhosp=80.636
fGW[Hz],dPh[rad]
5.92787e-03,1.26671e+05
6.01728e-03,1.20781e+05
6.10804e-03,1.15150e+05
6.20017e-03,1.09768e+05
6.29369e-03,1.04624e+05
6.38862e-03,9.97087e+04
6.48499e-03,9.50125e+04
6.58280e-03,9.05264e+04
6.68209e-03,8.62414e+04
6.78288e-03,8.21493e+04
6.88519e-03,7.82419e+04
6.98904e-03,7.45115e+04
7.09446e-03,7.09504e+04
7.20147e-03,6.75515e+04
7.31009e-03,6.43080e+04
7.42035e-03,6.12131e+04
7.53228e-03,5.82604e+04
7.64589e-03,5.54439e+04
7.76122e-03,5.27576e+04
7.87828e-03,5.01958e+04
7.99711e-03,4.77531e+04
8.11774e-03,4.54244e+04
8.24018e-03,4.32045e+04
8.36447e-03,4.10887e+04
8.49063e-03,3.90724e+04
8.61870e-03,3.71511e+04
8.74870e-03,3.53207e+04
8.88066e-03,3.35770e+04
9.01461e-03,3.19161e+04
9.15058e-03,3.03344e+04
9.28860e-03,2.88282e+04
9.42871e-03,2.73941e+04
9.57092e-03,2.60289e+04
9.71529e-03,2.47293e+04
9.86183e-03,2.34924e+04
1.00106e-02,2.23153e+04
1.01616e-02,2.11953e+04
1.03148e-02,2.01296e+04
1.04704e-02,1.91159e+04
1.06284e-02,1.81516e+04
1.07887e-02,1.72344e+04
1.09514e-02,1.63622e+04
1.11166e-02,1.55329e+04
1.12843e-02,1.47443e+04
1.14545e-02,1.39947e+04
1.16272e-02,1.32820e+04
1.18026e-02,1.26047e+04
1.19806e-02,1.19610e+04
1.21613e-02,1.13493e+04
1.23448e-02,1.07680e+04
1.25310e-02,1.02158e+04
1.27200e-02,9.69118e+03
1.29118e-02,9.19284e+03
1.31066e-02,8.71950e+03
1.33043e-02,8.26995e+03
1.35050e-02,7.84304e+03
1.37087e-02,7.43767e+03
1.39154e-02,7.05278e+03
1.41253e-02,6.68737e+03
1.43384e-02,6.34048e+03
1.45547e-02,6.01121e+03
1.47742e-02,5.69868e+03
1.49970e-02,5.40207e+03
1.52233e-02,5.12058e+03
1.54529e-02,4.85348e+03
1.56860e-02,4.60004e+03
1.59225e-02,4.35959e+03
1.61627e-02,4.13147e+03
1.64065e-02,3.91507e+03
1.66540e-02,3.70980e+03
1.69052e-02,3.51510e+03
1.71602e-02,3.33045e+03
1.74190e-02,3.15533e+03
1.76817e-02,2.98927e+03
1.79484e-02,2.83181e+03
1.82192e-02,2.68250e+03
1.84940e-02,2.54095e+03
1.87729e-02,2.40674e+03
1.90561e-02,2.27952e+03
1.93435e-02,2.15892e+03
1.96353e-02,2.04461e+03
1.99314e-02,1.93626e+03
2.02321e-02,1.83357e+03
2.05372e-02,1.73626e+03
2.08470e-02,1.64403e+03
2.11614e-02,1.55664e+03
2.14806e-02,1.47382e+03
2.18046e-02,1.39536e+03
2.21335e-02,1.32102e+03
2.24674e-02,1.25058e+03
2.28063e-02,1.18386e+03
2.31503e-02,1.12065e+03
2.34994e-02,1.06077e+03
2.38539e-02,1.00405e+03
2.42137e-02,9.50321e+02
2.45789e-02,8.99435e+02
2.49496e-02,8.51240e+02
2.53260e-02,8.05595e+02
2.57080e-02,7.62369e+02
2.60957e-02,7.21433e+02
2.64893e-02,6.82669e+02
2.68889e-02,6.45962e+02
2.72945e-02,6.11205e+02
2.77062e-02,5.78294e+02
2.81241e-02,5.47135e+02
2.85483e-02,5.17633e+02
2.89789e-02,4.89702e+02
2.94160e-02,4.63259e+02
2.98597e-02,4.38226e+02
3.03101e-02,4.14528e+02
3.07672e-02,3.92095e+02
3.12313e-02,3.70860e+02
3.17024e-02,3.50760e+02
3.21806e-02,3.31734e+02
3.26660e-02,3.13726e+02
3.31587e-02,2.96681e+02
3.36588e-02,2.80549e+02
3.41665e-02,2.65280e+02
3.46819e-02,2.50831e+02
3.52050e-02,2.37155e+02
3.57360e-02,2.24214e+02
3.62750e-02,2.11966e+02
3.68222e-02,2.00377e+02
3.73776e-02,1.89409e+02
3.79413e-02,1.79031e+02
3.85136e-02,1.69211e+02
3.90945e-02,1.59919e+02
3.96842e-02,1.51126e+02
4.02828e-02,1.42807e+02
4.08904e-02,1.34935e+02
4.15072e-02,1.27488e+02
4.21332e-02,1.20441e+02
4.27687e-02,1.13774e+02
4.34138e-02,1.07467e+02
4.40687e-02,1.01500e+02
4.47334e-02,9.58543e+01
4.54081e-02,9.05134e+01
4.60930e-02,8.54608e+01
4.67883e-02,8.06809e+01
4.74940e-02,7.61592e+01
4.82104e-02,7.18817e+01
4.89375e-02,6.78353e+01
4.96757e-02,6.40076e+01
5.04249e-02,6.03869e+01
5.11855e-02,5.69619e+01
5.19576e-02,5.37221e+01
5.27413e-02,5.06577e+01
5.35368e-02,4.77590e+01
5.43443e-02,4.50172e+01
5.51640e-02,4.24239e+01
5.59961e-02,3.99710e+01
5.68407e-02,3.76509e+01
5.76980e-02,3.54565e+01
5.85683e-02,3.33810e+01
5.94517e-02,3.14180e+01
6.03485e-02,2.95614e+01
6.12587e-02,2.78055e+01
6.21827e-02,2.61447e+01
6.31206e-02,2.45741e+01
6.40727e-02,2.30886e+01
6.50391e-02,2.16837e+01
6.60202e-02,2.03550e+01
6.70160e-02,1.90985e+01
6.80268e-02,1.79101e+01
6.90529e-02,1.67863e+01
7.00944e-02,1.57235e+01
7.11517e-02,1.47184e+01
7.22249e-02,1.37679e+01
7.33143e-02,1.28690e+01
7.44201e-02,1.20190e+01
7.55426e-02,1.12151e+01
7.66821e-02,1.04549e+01
7.78387e-02,9.73606e+00
7.90128e-02,9.05627e+00
8.02045e-02,8.41344e+00
8.14143e-02,7.80556e+00
8.26423e-02,7.23073e+00
8.38888e-02,6.68715e+00
8.51542e-02,6.17315e+00
8.64386e-02,5.68710e+00
8.77424e-02,5.22749e+00
8.90658e-02,4.79288e+00
9.04092e-02,4.38192e+00
9.17729e-02,3.99333e+00
9.31572e-02,3.62588e+00
9.45623e-02,3.27843e+00
9.59886e-02,2.94989e+00
9.74364e-02,2.63923e+00
9.89061e-02,2.34549e+00
1.00398e-01,2.06774e+00
1.01912e-01,1.80511e+00
1.03449e-01,1.55679e+00
1.05010e-01,1.32198e+00
1.06594e-01,1.09997e+00
1.08202e-01,8.90046e-01
1.09834e-01,6.91557e-01
1.11490e-01,5.03880e-01
1.13172e-01,3.26428e-01
1.14879e-01,1.58643e-01
1.16612e-01,0.00000e+00
