m1=2230.713, m2=5.631, gsp=2.334, rhosp=542.088
fGW[Hz],dPh[rad]
9.69086e-03,2.29493e+04
9.95325e-03,2.16813e+04
1.02227e-02,2.04831e+04
1.04995e-02,1.93507e+04
1.07838e-02,1.82806e+04
1.10758e-02,1.72693e+04
1.13757e-02,1.63137e+04
1.16837e-02,1.54107e+04
1.20000e-02,1.45573e+04
1.23249e-02,1.37509e+04
1.26587e-02,1.29889e+04
1.30014e-02,1.22689e+04
1.33534e-02,1.15885e+04
1.37150e-02,1.09455e+04
1.40863e-02,1.03380e+04
1.44677e-02,9.76392e+03
1.48594e-02,9.22149e+03
1.52618e-02,8.70894e+03
1.56750e-02,8.22465e+03
1.60994e-02,7.76706e+03
1.65353e-02,7.33470e+03
1.69830e-02,6.92619e+03
1.74429e-02,6.54021e+03
1.79151e-02,6.17554e+03
1.84002e-02,5.83099e+03
1.88984e-02,5.50546e+03
1.94101e-02,5.19791e+03
1.99356e-02,4.90735e+03
2.04754e-02,4.63285e+03
2.10298e-02,4.37352e+03
2.15992e-02,4.12853e+03
2.21840e-02,3.89708e+03
2.27847e-02,3.67845e+03
2.34016e-02,3.47191e+03
2.40352e-02,3.27681e+03
2.46860e-02,3.09252e+03
2.53544e-02,2.91844e+03
2.60409e-02,2.75401e+03
2.67460e-02,2.59870e+03
2.74701e-02,2.45201e+03
2.82139e-02,2.31346e+03
2.89778e-02,2.18260e+03
2.97624e-02,2.05902e+03
3.05683e-02,1.94231e+03
3.13959e-02,1.83208e+03
3.22460e-02,1.72800e+03
3.31191e-02,1.62971e+03
3.40158e-02,1.53689e+03
3.49368e-02,1.44926e+03
3.58828e-02,1.36651e+03
3.68543e-02,1.28838e+03
3.78522e-02,1.21461e+03
3.88771e-02,1.14498e+03
3.99297e-02,1.07923e+03
4.10108e-02,1.01717e+03
4.21212e-02,9.58588e+02
4.32617e-02,9.03291e+02
4.44330e-02,8.51098e+02
4.56361e-02,8.01838e+02
4.68717e-02,7.55348e+02
4.81408e-02,7.11476e+02
4.94443e-02,6.70076e+02
5.07830e-02,6.31012e+02
5.21580e-02,5.94154e+02
5.35703e-02,5.59379e+02
5.50207e-02,5.26573e+02
5.65104e-02,4.95627e+02
5.80405e-02,4.66436e+02
5.96120e-02,4.38904e+02
6.12261e-02,4.12938e+02
6.28838e-02,3.88452e+02
6.45864e-02,3.65363e+02
6.63352e-02,3.43593e+02
6.81313e-02,3.23069e+02
6.99760e-02,3.03721e+02
7.18706e-02,2.85484e+02
7.38166e-02,2.68296e+02
7.58152e-02,2.52099e+02
7.78680e-02,2.36836e+02
7.99763e-02,2.22455e+02
8.21418e-02,2.08908e+02
8.43658e-02,1.96148e+02
8.66501e-02,1.84130e+02
8.89962e-02,1.72812e+02
9.14059e-02,1.62156e+02
9.38808e-02,1.52124e+02
9.64227e-02,1.42681e+02
9.90334e-02,1.33794e+02
1.01715e-01,1.25431e+02
1.04469e-01,1.17563e+02
1.07297e-01,1.10161e+02
1.10203e-01,1.03199e+02
1.13186e-01,9.66531e+01
1.16251e-01,9.04984e+01
1.19399e-01,8.47130e+01
1.22631e-01,7.92757e+01
1.25952e-01,7.41668e+01
1.29362e-01,6.93672e+01
1.32865e-01,6.48594e+01
1.36462e-01,6.06265e+01
1.40157e-01,5.66527e+01
1.43952e-01,5.29229e+01
1.47849e-01,4.94232e+01
1.51853e-01,4.61400e+01
1.55964e-01,4.30609e+01
1.60187e-01,4.01738e+01
1.64524e-01,3.74676e+01
1.68979e-01,3.49317e+01
1.73554e-01,3.25559e+01
1.78253e-01,3.03310e+01
1.83080e-01,2.82478e+01
1.88037e-01,2.62981e+01
1.93128e-01,2.44738e+01
1.98357e-01,2.27674e+01
2.03728e-01,2.11719e+01
2.09244e-01,1.96806e+01
2.14909e-01,1.82871e+01
2.20728e-01,1.69854e+01
2.26704e-01,1.57701e+01
2.32843e-01,1.46358e+01
2.39147e-01,1.35774e+01
2.45622e-01,1.25904e+01
2.52273e-01,1.16702e+01
2.59103e-01,1.08126e+01
2.66118e-01,1.00138e+01
2.73324e-01,9.27007e+00
2.80724e-01,8.57782e+00
2.88325e-01,7.93380e+00
2.96132e-01,7.33491e+00
3.04150e-01,6.77824e+00
3.12385e-01,6.26103e+00
3.20843e-01,5.78072e+00
3.29530e-01,5.33487e+00
3.38453e-01,4.92120e+00
3.47616e-01,4.53756e+00
3.57028e-01,4.18195e+00
3.66695e-01,3.85246e+00
3.76624e-01,3.54733e+00
3.86821e-01,3.26489e+00
3.97295e-01,3.00357e+00
4.08052e-01,2.76192e+00
4.19100e-01,2.53856e+00
4.30448e-01,2.33220e+00
4.42103e-01,2.14164e+00
4.54073e-01,1.96576e+00
4.66367e-01,1.80351e+00
4.78995e-01,1.65389e+00
4.91964e-01,1.51599e+00
5.05284e-01,1.38896e+00
5.18965e-01,1.27199e+00
5.33017e-01,1.16434e+00
5.47448e-01,1.06530e+00
5.62271e-01,9.74241e-01
5.77495e-01,8.90546e-01
5.93131e-01,8.13658e-01
6.09191e-01,7.43054e-01
6.25685e-01,6.78250e-01
6.42626e-01,6.18795e-01
6.60026e-01,5.64270e-01
6.77896e-01,5.14289e-01
6.96251e-01,4.68491e-01
7.15103e-01,4.26544e-01
7.34465e-01,3.88138e-01
7.54351e-01,3.52990e-01
7.74776e-01,3.20835e-01
7.95753e-01,2.91430e-01
8.17299e-01,2.64549e-01
8.39428e-01,2.39984e-01
8.62156e-01,2.17545e-01
8.85500e-01,1.97054e-01
9.09476e-01,1.78348e-01
9.34101e-01,1.61278e-01
9.59392e-01,1.45705e-01
9.85369e-01,1.31503e-01
1.01205e+00,1.18555e-01
1.03945e+00,1.06754e-01
1.06759e+00,9.60012e-02
1.09650e+00,8.62064e-02
1.12619e+00,7.72867e-02
1.15668e+00,6.91661e-02
1.18800e+00,6.17749e-02
1.22017e+00,5.50493e-02
1.25320e+00,4.89308e-02
1.28713e+00,4.33659e-02
1.32198e+00,3.83057e-02
1.35778e+00,3.37055e-02
1.39454e+00,2.95243e-02
1.43230e+00,2.57248e-02
1.47108e+00,2.22727e-02
1.51091e+00,1.91370e-02
1.55182e+00,1.62892e-02
1.59384e+00,1.37033e-02
1.63699e+00,1.13556e-02
1.68132e+00,9.22451e-03
1.72684e+00,7.29043e-03
1.77359e+00,5.53537e-03
1.82162e+00,3.94302e-03
1.87094e+00,2.49850e-03
1.92159e+00,1.18827e-03
1.97362e+00,0.00000e+00
