m1=21342.885, m2=12.382, gsp=2.365, rhosp=5883.549
fGW[Hz],dPh[rad]
4.09954e-03,1.23638e+05
4.18104e-03,1.18133e+05
4.26416e-03,1.12862e+05
4.34893e-03,1.07815e+05
4.43539e-03,1.02983e+05
4.52357e-03,9.83570e+04
4.61350e-03,9.39290e+04
4.70521e-03,8.96905e+04
4.79876e-03,8.56338e+04
4.89416e-03,8.17513e+04
4.99146e-03,7.80357e+04
5.09069e-03,7.44803e+04
5.19189e-03,7.10784e+04
5.29511e-03,6.78236e+04
5.40038e-03,6.47098e+04
5.50774e-03,6.17311e+04
5.61724e-03,5.88821e+04
5.72891e-03,5.61571e+04
5.84280e-03,5.35512e+04
5.95896e-03,5.10592e+04
6.07742e-03,4.86765e+04
6.19825e-03,4.63986e+04
6.32147e-03,4.42209e+04
6.44714e-03,4.21394e+04
6.57531e-03,4.01499e+04
6.70603e-03,3.82487e+04
6.83935e-03,3.64320e+04
6.97532e-03,3.46962e+04
7.11399e-03,3.30380e+04
7.25542e-03,3.14540e+04
7.39966e-03,2.99412e+04
7.54677e-03,2.84964e+04
7.69680e-03,2.71169e+04
7.84982e-03,2.57998e+04
8.00588e-03,2.45425e+04
8.16504e-03,2.33425e+04
8.32736e-03,2.21972e+04
8.49291e-03,2.11044e+04
8.66175e-03,2.00617e+04
8.83395e-03,1.90671e+04
9.00958e-03,1.81185e+04
9.18869e-03,1.72138e+04
9.37136e-03,1.63513e+04
9.55767e-03,1.55289e+04
9.74768e-03,1.47451e+04
9.94147e-03,1.39981e+04
1.01391e-02,1.32863e+04
1.03407e-02,1.26082e+04
1.05463e-02,1.19623e+04
1.07559e-02,1.13471e+04
1.09698e-02,1.07614e+04
1.11878e-02,1.02037e+04
1.14103e-02,9.67298e+03
1.16371e-02,9.16788e+03
1.18684e-02,8.68729e+03
1.21044e-02,8.23012e+03
1.23450e-02,7.79532e+03
1.25905e-02,7.38186e+03
1.28408e-02,6.98880e+03
1.30960e-02,6.61519e+03
1.33564e-02,6.26016e+03
1.36219e-02,5.92285e+03
1.38927e-02,5.60244e+03
1.41689e-02,5.29816e+03
1.44506e-02,5.00926e+03
1.47379e-02,4.73503e+03
1.50309e-02,4.47477e+03
1.53297e-02,4.22784e+03
1.56345e-02,3.99361e+03
1.59453e-02,3.77147e+03
1.62623e-02,3.56086e+03
1.65856e-02,3.36121e+03
1.69153e-02,3.17202e+03
1.72516e-02,2.99277e+03
1.75946e-02,2.82298e+03
1.79443e-02,2.66220e+03
1.83011e-02,2.50998e+03
1.86649e-02,2.36590e+03
1.90360e-02,2.22957e+03
1.94144e-02,2.10060e+03
1.98004e-02,1.97862e+03
2.01940e-02,1.86329e+03
2.05955e-02,1.75427e+03
2.10049e-02,1.65124e+03
2.14225e-02,1.55390e+03
2.18484e-02,1.46195e+03
2.22828e-02,1.37513e+03
2.27258e-02,1.29317e+03
2.31776e-02,1.21581e+03
2.36383e-02,1.14281e+03
2.41083e-02,1.07396e+03
2.45876e-02,1.00902e+03
2.50764e-02,9.47799e+02
2.55749e-02,8.90092e+02
2.60833e-02,8.35713e+02
2.66019e-02,7.84483e+02
2.71307e-02,7.36232e+02
2.76701e-02,6.90798e+02
2.82202e-02,6.48029e+02
2.87812e-02,6.07778e+02
2.93534e-02,5.69906e+02
2.99370e-02,5.34282e+02
3.05321e-02,5.00781e+02
3.11391e-02,4.69284e+02
3.17582e-02,4.39678e+02
3.23895e-02,4.11857e+02
3.30335e-02,3.85719e+02
3.36902e-02,3.61169e+02
3.43600e-02,3.38115e+02
3.50430e-02,3.16471e+02
3.57397e-02,2.96157e+02
3.64502e-02,2.77094e+02
3.71749e-02,2.59209e+02
3.79139e-02,2.42434e+02
3.86677e-02,2.26704e+02
3.94364e-02,2.11955e+02
4.02204e-02,1.98131e+02
4.10200e-02,1.85176e+02
4.18355e-02,1.73037e+02
4.26672e-02,1.61666e+02
4.35155e-02,1.51017e+02
4.43806e-02,1.41045e+02
4.52629e-02,1.31709e+02
4.61627e-02,1.22971e+02
4.70804e-02,1.14794e+02
4.80164e-02,1.07143e+02
4.89710e-02,9.99853e+01
4.99446e-02,9.32908e+01
5.09375e-02,8.70306e+01
5.19501e-02,8.11774e+01
5.29829e-02,7.57058e+01
5.40362e-02,7.05917e+01
5.51105e-02,6.58126e+01
5.62061e-02,6.13472e+01
5.73235e-02,5.71757e+01
5.84631e-02,5.32792e+01
5.96254e-02,4.96403e+01
6.08108e-02,4.62423e+01
6.20197e-02,4.30698e+01
6.32527e-02,4.01083e+01
6.45102e-02,3.73441e+01
6.57927e-02,3.47644e+01
6.71007e-02,3.23573e+01
6.84346e-02,3.01114e+01
6.97951e-02,2.80163e+01
7.11827e-02,2.60620e+01
7.25978e-02,2.42394e+01
7.40411e-02,2.25397e+01
7.55131e-02,2.09549e+01
7.70143e-02,1.94773e+01
7.85454e-02,1.80998e+01
8.01069e-02,1.68159e+01
8.16995e-02,1.56192e+01
8.33237e-02,1.45040e+01
8.49802e-02,1.34648e+01
8.66696e-02,1.24966e+01
8.83926e-02,1.15945e+01
9.01499e-02,1.07541e+01
9.19421e-02,9.97136e+00
9.37700e-02,9.24228e+00
9.56342e-02,8.56326e+00
9.75354e-02,7.93092e+00
9.94745e-02,7.34211e+00
1.01452e-01,6.79387e+00
1.03469e-01,6.28343e+00
1.05526e-01,5.80824e+00
1.07624e-01,5.36589e+00
1.09763e-01,4.95413e+00
1.11946e-01,4.57089e+00
1.14171e-01,4.21420e+00
1.16441e-01,3.88225e+00
1.18756e-01,3.57334e+00
1.21117e-01,3.28590e+00
1.23525e-01,3.01844e+00
1.25980e-01,2.76959e+00
1.28485e-01,2.53806e+00
1.31039e-01,2.32268e+00
1.33644e-01,2.12231e+00
1.36301e-01,1.93592e+00
1.39011e-01,1.76255e+00
1.41774e-01,1.60129e+00
1.44593e-01,1.45131e+00
1.47468e-01,1.31182e+00
1.50399e-01,1.18209e+00
1.53389e-01,1.06145e+00
1.56439e-01,9.49265e-01
1.59549e-01,8.44944e-01
1.62721e-01,7.47942e-01
1.65956e-01,6.57749e-01
1.69255e-01,5.73889e-01
1.72620e-01,4.95920e-01
1.76051e-01,4.23432e-01
1.79551e-01,3.56041e-01
1.83121e-01,2.93390e-01
1.86761e-01,2.35149e-01
1.90474e-01,1.81009e-01
1.94261e-01,1.30682e-01
1.98123e-01,8.39009e-02
2.02062e-01,4.04174e-02
2.06079e-01,0.00000e+00
