m1=1003.720, m2=15.456, gsp=2.469, rhosp=3015.912
fGW[Hz],dPh[rad]
8.11565e-03,5.81761e+04
8.37664e-03,5.45695e+04
8.64602e-03,5.11864e+04
8.92407e-03,4.80129e+04
9.21105e-03,4.50361e+04
9.50727e-03,4.22438e+04
9.81301e-03,3.96244e+04
1.01286e-02,3.71674e+04
1.04543e-02,3.48627e+04
1.07905e-02,3.27007e+04
1.11375e-02,3.06728e+04
1.14957e-02,2.87705e+04
1.18654e-02,2.69861e+04
1.22469e-02,2.53123e+04
1.26408e-02,2.37422e+04
1.30473e-02,2.22694e+04
1.34669e-02,2.08879e+04
1.38999e-02,1.95921e+04
1.43469e-02,1.83765e+04
1.48083e-02,1.72363e+04
1.52845e-02,1.61667e+04
1.57761e-02,1.51635e+04
1.62834e-02,1.42224e+04
1.68071e-02,1.33397e+04
1.73476e-02,1.25117e+04
1.79054e-02,1.17350e+04
1.84812e-02,1.10064e+04
1.90756e-02,1.03230e+04
1.96890e-02,9.68203e+03
2.03222e-02,9.08075e+03
2.09757e-02,8.51676e+03
2.16503e-02,7.98773e+03
2.23465e-02,7.49150e+03
2.30651e-02,7.02604e+03
2.38069e-02,6.58945e+03
2.45725e-02,6.17992e+03
2.53627e-02,5.79579e+03
2.61783e-02,5.43549e+03
2.70202e-02,5.09753e+03
2.78891e-02,4.78053e+03
2.87860e-02,4.48320e+03
2.97117e-02,4.20430e+03
3.06672e-02,3.94271e+03
3.16534e-02,3.69735e+03
3.26714e-02,3.46721e+03
3.37220e-02,3.25135e+03
3.48065e-02,3.04888e+03
3.59258e-02,2.85898e+03
3.70811e-02,2.68086e+03
3.82736e-02,2.51380e+03
3.95044e-02,2.35711e+03
4.07748e-02,2.21014e+03
4.20861e-02,2.07230e+03
4.34395e-02,1.94302e+03
4.48365e-02,1.82176e+03
4.62784e-02,1.70804e+03
4.77666e-02,1.60138e+03
4.93027e-02,1.50134e+03
5.08882e-02,1.40752e+03
5.25247e-02,1.31953e+03
5.42139e-02,1.23701e+03
5.59573e-02,1.15961e+03
5.77568e-02,1.08703e+03
5.96142e-02,1.01896e+03
6.15313e-02,9.55124e+02
6.35101e-02,8.95257e+02
6.55525e-02,8.39114e+02
6.76605e-02,7.86464e+02
6.98364e-02,7.37091e+02
7.20822e-02,6.90790e+02
7.44003e-02,6.47373e+02
7.67929e-02,6.06659e+02
7.92625e-02,5.68482e+02
8.18114e-02,5.32683e+02
8.44424e-02,4.99115e+02
8.71579e-02,4.67639e+02
8.99608e-02,4.38127e+02
9.28538e-02,4.10455e+02
9.58399e-02,3.84510e+02
9.89220e-02,3.60185e+02
1.02103e-01,3.37379e+02
1.05387e-01,3.15997e+02
1.08776e-01,2.95951e+02
1.12274e-01,2.77159e+02
1.15884e-01,2.59542e+02
1.19611e-01,2.43027e+02
1.23458e-01,2.27547e+02
1.27428e-01,2.13035e+02
1.31526e-01,1.99434e+02
1.35755e-01,1.86685e+02
1.40121e-01,1.74735e+02
1.44627e-01,1.63536e+02
1.49278e-01,1.53041e+02
1.54079e-01,1.43205e+02
1.59034e-01,1.33987e+02
1.64148e-01,1.25350e+02
1.69427e-01,1.17257e+02
1.74875e-01,1.09674e+02
1.80499e-01,1.02570e+02
1.86304e-01,9.59136e+01
1.92295e-01,8.96783e+01
1.98479e-01,8.38374e+01
2.04862e-01,7.83663e+01
2.11450e-01,7.32420e+01
2.18250e-01,6.84429e+01
2.25268e-01,6.39485e+01
2.32513e-01,5.97400e+01
2.39990e-01,5.57995e+01
2.47708e-01,5.21102e+01
2.55674e-01,4.86564e+01
2.63896e-01,4.54234e+01
2.72382e-01,4.23973e+01
2.81142e-01,3.95653e+01
2.90183e-01,3.69151e+01
2.99515e-01,3.44353e+01
3.09147e-01,3.21154e+01
3.19089e-01,2.99451e+01
3.29350e-01,2.79152e+01
3.39941e-01,2.60168e+01
3.50873e-01,2.42416e+01
3.62157e-01,2.25820e+01
3.73804e-01,2.10305e+01
3.85825e-01,1.95804e+01
3.98232e-01,1.82252e+01
4.11039e-01,1.69591e+01
4.24257e-01,1.57763e+01
4.37901e-01,1.46716e+01
4.51983e-01,1.36399e+01
4.66518e-01,1.26768e+01
4.81521e-01,1.17778e+01
4.97006e-01,1.09388e+01
5.12989e-01,1.01560e+01
5.29486e-01,9.42581e+00
5.46513e-01,8.74488e+00
5.64088e-01,8.11005e+00
5.82229e-01,7.51835e+00
6.00952e-01,6.96700e+00
6.20278e-01,6.45340e+00
6.40226e-01,5.97511e+00
6.60814e-01,5.52984e+00
6.82065e-01,5.11545e+00
7.03999e-01,4.72992e+00
7.26639e-01,4.37137e+00
7.50007e-01,4.03803e+00
7.74126e-01,3.72825e+00
7.99021e-01,3.44046e+00
8.24716e-01,3.17322e+00
8.51238e-01,2.92515e+00
8.78613e-01,2.69499e+00
9.06868e-01,2.48153e+00
9.36031e-01,2.28365e+00
9.66133e-01,2.10030e+00
9.97202e-01,1.93048e+00
1.02927e+00,1.77329e+00
1.06237e+00,1.62785e+00
1.09654e+00,1.49335e+00
1.13180e+00,1.36904e+00
1.16820e+00,1.25421e+00
1.20576e+00,1.14819e+00
1.24454e+00,1.05036e+00
1.28456e+00,9.60144e-01
1.32587e+00,8.76996e-01
1.36851e+00,8.00408e-01
1.41252e+00,7.29906e-01
1.45794e+00,6.65046e-01
1.50483e+00,6.05414e-01
1.55322e+00,5.50624e-01
1.60317e+00,5.00314e-01
1.65473e+00,4.54150e-01
1.70794e+00,4.11816e-01
1.76287e+00,3.73020e-01
1.81956e+00,3.37492e-01
1.87807e+00,3.04977e-01
1.93847e+00,2.75240e-01
2.00081e+00,2.48062e-01
2.06515e+00,2.23240e-01
2.13156e+00,2.00585e-01
2.20011e+00,1.79921e-01
2.27086e+00,1.61087e-01
2.34389e+00,1.43931e-01
2.41927e+00,1.28316e-01
2.49707e+00,1.14111e-01
2.57737e+00,1.01199e-01
2.66025e+00,8.94682e-02
2.74580e+00,7.88187e-02
2.83410e+00,6.91568e-02
2.92525e+00,6.03962e-02
3.01932e+00,5.24580e-02
3.11641e+00,4.52693e-02
3.21663e+00,3.87633e-02
3.32008e+00,3.28786e-02
3.42685e+00,2.75590e-02
3.53705e+00,2.27530e-02
3.65080e+00,1.84134e-02
3.76820e+00,1.44971e-02
3.88938e+00,1.09646e-02
4.01446e+00,7.78007e-03
4.14356e+00,4.91060e-03
4.27681e+00,2.32632e-03
4.41434e+00,0.00000e+00
