m1=61539.489, m2=27.947, gsp=2.248, rhosp=40.471
fGW[Hz],dPh[rad]
2.31832e-03,3.86079e+03
2.35860e-03,3.69324e+03
2.39959e-03,3.53253e+03
2.44129e-03,3.37839e+03
2.48371e-03,3.23057e+03
2.52687e-03,3.08882e+03
2.57078e-03,2.95290e+03
2.61545e-03,2.82260e+03
2.66090e-03,2.69768e+03
2.70714e-03,2.57795e+03
2.75419e-03,2.46320e+03
2.80205e-03,2.35322e+03
2.85074e-03,2.24785e+03
2.90028e-03,2.14689e+03
2.95068e-03,2.05018e+03
3.00195e-03,1.95753e+03
3.05412e-03,1.86881e+03
3.10719e-03,1.78384e+03
3.16118e-03,1.70248e+03
3.21612e-03,1.62459e+03
3.27201e-03,1.55003e+03
3.32886e-03,1.47867e+03
3.38671e-03,1.41037e+03
3.44556e-03,1.34502e+03
3.50544e-03,1.28249e+03
3.56635e-03,1.22268e+03
3.62833e-03,1.16547e+03
3.69138e-03,1.11076e+03
3.75552e-03,1.05845e+03
3.82079e-03,1.00843e+03
3.88718e-03,9.60621e+02
3.95473e-03,9.14926e+02
4.02345e-03,8.71260e+02
4.09337e-03,8.29537e+02
4.16450e-03,7.89680e+02
4.23687e-03,7.51609e+02
4.31050e-03,7.15252e+02
4.38540e-03,6.80536e+02
4.46161e-03,6.47393e+02
4.53914e-03,6.15757e+02
4.61802e-03,5.85565e+02
4.69827e-03,5.56756e+02
4.77991e-03,5.29270e+02
4.86297e-03,5.03053e+02
4.94748e-03,4.78050e+02
5.03345e-03,4.54208e+02
5.12092e-03,4.31479e+02
5.20991e-03,4.09813e+02
5.30044e-03,3.89166e+02
5.39255e-03,3.69492e+02
5.48626e-03,3.50750e+02
5.58159e-03,3.32899e+02
5.67859e-03,3.15899e+02
5.77727e-03,2.99713e+02
5.87766e-03,2.84305e+02
5.97980e-03,2.69640e+02
6.08371e-03,2.55686e+02
6.18943e-03,2.42410e+02
6.29699e-03,2.29782e+02
6.40641e-03,2.17772e+02
6.51774e-03,2.06353e+02
6.63100e-03,1.95498e+02
6.74623e-03,1.85180e+02
6.86346e-03,1.75376e+02
6.98273e-03,1.66061e+02
7.10407e-03,1.57213e+02
7.22752e-03,1.48810e+02
7.35312e-03,1.40831e+02
7.48090e-03,1.33256e+02
7.61089e-03,1.26067e+02
7.74315e-03,1.19245e+02
7.87771e-03,1.12773e+02
8.01460e-03,1.06633e+02
8.15387e-03,1.00810e+02
8.29557e-03,9.52894e+01
8.43972e-03,9.00556e+01
8.58638e-03,8.50949e+01
8.73559e-03,8.03939e+01
8.88739e-03,7.59401e+01
9.04183e-03,7.17212e+01
9.19895e-03,6.77255e+01
9.35881e-03,6.39421e+01
9.52144e-03,6.03603e+01
9.68690e-03,5.69701e+01
9.85523e-03,5.37617e+01
1.00265e-02,5.07261e+01
1.02007e-02,4.78544e+01
1.03780e-02,4.51384e+01
1.05583e-02,4.25700e+01
1.07418e-02,4.01417e+01
1.09285e-02,3.78462e+01
1.11184e-02,3.56767e+01
1.13116e-02,3.36266e+01
1.15081e-02,3.16898e+01
1.17081e-02,2.98602e+01
1.19116e-02,2.81322e+01
1.21186e-02,2.65006e+01
1.23292e-02,2.49600e+01
1.25434e-02,2.35059e+01
1.27614e-02,2.21334e+01
1.29831e-02,2.08382e+01
1.32088e-02,1.96163e+01
1.34383e-02,1.84635e+01
1.36718e-02,1.73763e+01
1.39094e-02,1.63509e+01
1.41511e-02,1.53841e+01
1.43970e-02,1.44727e+01
1.46472e-02,1.36135e+01
1.49017e-02,1.28038e+01
1.51607e-02,1.20407e+01
1.54241e-02,1.13218e+01
1.56922e-02,1.06445e+01
1.59648e-02,1.00065e+01
1.62423e-02,9.40570e+00
1.65245e-02,8.83989e+00
1.68117e-02,8.30716e+00
1.71038e-02,7.80563e+00
1.74010e-02,7.33354e+00
1.77034e-02,6.88921e+00
1.80111e-02,6.47106e+00
1.83240e-02,6.07760e+00
1.86425e-02,5.70742e+00
1.89664e-02,5.35917e+00
1.92960e-02,5.03161e+00
1.96313e-02,4.72352e+00
1.99725e-02,4.43380e+00
2.03195e-02,4.16137e+00
2.06726e-02,3.90523e+00
2.10319e-02,3.66443e+00
2.13974e-02,3.43807e+00
2.17692e-02,3.22532e+00
2.21475e-02,3.02537e+00
2.25323e-02,2.83746e+00
2.29239e-02,2.66090e+00
2.33223e-02,2.49502e+00
2.37275e-02,2.33917e+00
2.41399e-02,2.19277e+00
2.45593e-02,2.05526e+00
2.49861e-02,1.92610e+00
2.54203e-02,1.80481e+00
2.58620e-02,1.69090e+00
2.63115e-02,1.58395e+00
2.67687e-02,1.48353e+00
2.72339e-02,1.38925e+00
2.77071e-02,1.30074e+00
2.81886e-02,1.21765e+00
2.86784e-02,1.13967e+00
2.91768e-02,1.06648e+00
2.96838e-02,9.97782e-01
3.01996e-02,9.33317e-01
3.07244e-02,8.72824e-01
3.12583e-02,8.16062e-01
3.18015e-02,7.62804e-01
3.23541e-02,7.12838e-01
3.29164e-02,6.65961e-01
3.34884e-02,6.21986e-01
3.40703e-02,5.80736e-01
3.46624e-02,5.42044e-01
3.52647e-02,5.05752e-01
3.58775e-02,4.71715e-01
3.65010e-02,4.39793e-01
3.71353e-02,4.09857e-01
3.77806e-02,3.81784e-01
3.84371e-02,3.55460e-01
3.91050e-02,3.30777e-01
3.97846e-02,3.07634e-01
4.04759e-02,2.85935e-01
4.11793e-02,2.65592e-01
4.18949e-02,2.46520e-01
4.26229e-02,2.28641e-01
4.33636e-02,2.11881e-01
4.41171e-02,1.96170e-01
4.48838e-02,1.81443e-01
4.56637e-02,1.67639e-01
4.64572e-02,1.54702e-01
4.72645e-02,1.42576e-01
4.80859e-02,1.31211e-01
4.89215e-02,1.20560e-01
4.97716e-02,1.10578e-01
5.06365e-02,1.01224e-01
5.15164e-02,9.24588e-02
5.24117e-02,8.42448e-02
5.33224e-02,7.65479e-02
5.42490e-02,6.93358e-02
5.51918e-02,6.25781e-02
5.61508e-02,5.62464e-02
5.71266e-02,5.03140e-02
5.81193e-02,4.47558e-02
5.91293e-02,3.95484e-02
6.01568e-02,3.46697e-02
6.12021e-02,3.00991e-02
6.22657e-02,2.58173e-02
6.33477e-02,2.18060e-02
6.44485e-02,1.80483e-02
6.55685e-02,1.45282e-02
6.67079e-02,1.12308e-02
6.78671e-02,8.14197e-03
6.90464e-02,5.24866e-03
7.02463e-02,2.53852e-03
7.14670e-02,0.00000e+00
