m1=8816.408, m2=36.750, gsp=2.073, rhosp=258.411
fGW[Hz],dPh[rad]
3.40207e-03,6.37775e+01
3.48846e-03,6.02014e+01
3.57703e-03,5.68249e+01
3.66786e-03,5.36370e+01
3.76099e-03,5.06272e+01
3.85649e-03,4.77854e+01
3.95441e-03,4.51024e+01
4.05481e-03,4.25693e+01
4.15777e-03,4.01778e+01
4.26334e-03,3.79198e+01
4.37159e-03,3.57881e+01
4.48259e-03,3.37756e+01
4.59641e-03,3.18756e+01
4.71312e-03,3.00818e+01
4.83279e-03,2.83883e+01
4.95550e-03,2.67896e+01
5.08133e-03,2.52803e+01
5.21035e-03,2.38555e+01
5.34265e-03,2.25104e+01
5.47830e-03,2.12406e+01
5.61740e-03,2.00419e+01
5.76004e-03,1.89104e+01
5.90629e-03,1.78422e+01
6.05626e-03,1.68338e+01
6.21003e-03,1.58820e+01
6.36771e-03,1.49835e+01
6.52940e-03,1.41354e+01
6.69519e-03,1.33349e+01
6.86519e-03,1.25793e+01
7.03950e-03,1.18660e+01
7.21824e-03,1.11928e+01
7.40152e-03,1.05574e+01
7.58946e-03,9.95774e+00
7.78216e-03,9.39172e+00
7.97976e-03,8.85750e+00
8.18238e-03,8.35333e+00
8.39014e-03,7.87750e+00
8.60317e-03,7.42845e+00
8.82162e-03,7.00467e+00
9.04561e-03,6.60475e+00
9.27529e-03,6.22735e+00
9.51080e-03,5.87122e+00
9.75229e-03,5.53517e+00
9.99991e-03,5.21807e+00
1.02538e-02,4.91887e+00
1.05142e-02,4.63655e+00
1.07811e-02,4.37018e+00
1.10549e-02,4.11887e+00
1.13356e-02,3.88176e+00
1.16234e-02,3.65807e+00
1.19185e-02,3.44704e+00
1.22212e-02,3.24796e+00
1.25315e-02,3.06017e+00
1.28497e-02,2.88302e+00
1.31759e-02,2.71593e+00
1.35105e-02,2.55832e+00
1.38535e-02,2.40967e+00
1.42053e-02,2.26948e+00
1.45660e-02,2.13726e+00
1.49358e-02,2.01257e+00
1.53151e-02,1.89499e+00
1.57039e-02,1.78412e+00
1.61027e-02,1.67958e+00
1.65116e-02,1.58101e+00
1.69308e-02,1.48808e+00
1.73607e-02,1.40047e+00
1.78015e-02,1.31788e+00
1.82535e-02,1.24003e+00
1.87170e-02,1.16665e+00
1.91922e-02,1.09749e+00
1.96795e-02,1.03231e+00
2.01792e-02,9.70882e-01
2.06916e-02,9.12999e-01
2.12170e-02,8.58459e-01
2.17557e-02,8.07074e-01
2.23081e-02,7.58664e-01
2.28746e-02,7.13061e-01
2.34554e-02,6.70105e-01
2.40509e-02,6.29648e-01
2.46616e-02,5.91546e-01
2.52878e-02,5.55666e-01
2.59299e-02,5.21882e-01
2.65883e-02,4.90075e-01
2.72634e-02,4.60132e-01
2.79556e-02,4.31947e-01
2.86655e-02,4.05419e-01
2.93933e-02,3.80454e-01
3.01396e-02,3.56962e-01
3.09049e-02,3.34860e-01
3.16896e-02,3.14068e-01
3.24943e-02,2.94510e-01
3.33193e-02,2.76117e-01
3.41654e-02,2.58820e-01
3.50329e-02,2.42557e-01
3.59224e-02,2.27268e-01
3.68345e-02,2.12897e-01
3.77698e-02,1.99391e-01
3.87288e-02,1.86701e-01
3.97122e-02,1.74778e-01
4.07205e-02,1.63578e-01
4.17544e-02,1.53059e-01
4.28146e-02,1.43182e-01
4.39018e-02,1.33909e-01
4.50165e-02,1.25205e-01
4.61595e-02,1.17037e-01
4.73315e-02,1.09372e-01
4.85334e-02,1.02182e-01
4.97657e-02,9.54388e-02
5.10293e-02,8.91156e-02
5.23250e-02,8.31877e-02
5.36536e-02,7.76317e-02
5.50159e-02,7.24256e-02
5.64128e-02,6.75483e-02
5.78452e-02,6.29804e-02
5.93140e-02,5.87033e-02
6.08200e-02,5.46994e-02
6.23643e-02,5.09524e-02
6.39478e-02,4.74468e-02
6.55715e-02,4.41678e-02
6.72365e-02,4.11017e-02
6.89437e-02,3.82356e-02
7.06943e-02,3.55571e-02
7.24893e-02,3.30548e-02
7.43299e-02,3.07178e-02
7.62172e-02,2.85359e-02
7.81524e-02,2.64994e-02
8.01368e-02,2.45993e-02
8.21716e-02,2.28270e-02
8.42580e-02,2.11745e-02
8.63974e-02,1.96343e-02
8.85912e-02,1.81992e-02
9.08406e-02,1.68625e-02
9.31472e-02,1.56179e-02
9.55123e-02,1.44595e-02
9.79375e-02,1.33817e-02
1.00424e-01,1.23794e-02
1.02974e-01,1.14475e-02
1.05589e-01,1.05816e-02
1.08270e-01,9.77708e-03
1.11019e-01,9.03006e-03
1.13838e-01,8.33665e-03
1.16728e-01,7.69329e-03
1.19692e-01,7.09659e-03
1.22731e-01,6.54339e-03
1.25848e-01,6.03074e-03
1.29043e-01,5.55586e-03
1.32320e-01,5.11615e-03
1.35679e-01,4.70918e-03
1.39124e-01,4.33266e-03
1.42657e-01,3.98446e-03
1.46279e-01,3.66259e-03
1.49993e-01,3.36519e-03
1.53802e-01,3.09050e-03
1.57707e-01,2.83689e-03
1.61711e-01,2.60286e-03
1.65817e-01,2.38697e-03
1.70028e-01,2.18791e-03
1.74345e-01,2.00443e-03
1.78772e-01,1.83539e-03
1.83311e-01,1.67971e-03
1.87966e-01,1.53641e-03
1.92738e-01,1.40453e-03
1.97632e-01,1.28323e-03
2.02650e-01,1.17170e-03
2.07796e-01,1.06919e-03
2.13072e-01,9.75010e-04
2.18482e-01,8.88515e-04
2.24030e-01,8.09107e-04
2.29718e-01,7.36234e-04
2.35551e-01,6.69382e-04
2.41532e-01,6.08075e-04
2.47664e-01,5.51875e-04
2.53953e-01,5.00372e-04
2.60401e-01,4.53192e-04
2.67013e-01,4.09985e-04
2.73793e-01,3.70431e-04
2.80745e-01,3.34232e-04
2.87873e-01,3.01114e-04
2.95183e-01,2.70825e-04
3.02678e-01,2.43130e-04
3.10363e-01,2.17817e-04
3.18243e-01,1.94686e-04
3.26324e-01,1.73555e-04
3.34610e-01,1.54258e-04
3.43106e-01,1.36639e-04
3.51818e-01,1.20557e-04
3.60751e-01,1.05881e-04
3.69911e-01,9.24927e-05
3.79303e-01,8.02814e-05
3.88934e-01,6.91464e-05
3.98810e-01,5.89951e-05
4.08936e-01,4.97428e-05
4.19319e-01,4.13118e-05
4.29967e-01,3.36306e-05
4.40884e-01,2.66342e-05
4.52078e-01,2.02627e-05
4.63557e-01,1.44615e-05
4.75328e-01,9.18051e-06
4.87397e-01,4.37396e-06
4.99772e-01,0.00000e+00
