m1=5681.176, m2=4.812, gsp=2.014, rhosp=77.281
fGW[Hz],dPh[rad]
8.13547e-03,8.11078e+01
8.32386e-03,7.67715e+01
8.51662e-03,7.26632e+01
8.71384e-03,6.87713e+01
8.91563e-03,6.50843e+01
9.12209e-03,6.15915e+01
9.33333e-03,5.82829e+01
9.54946e-03,5.51488e+01
9.77060e-03,5.21801e+01
9.99686e-03,4.93682e+01
1.02284e-02,4.67049e+01
1.04652e-02,4.41823e+01
1.07076e-02,4.17933e+01
1.09555e-02,3.95307e+01
1.12092e-02,3.73881e+01
1.14688e-02,3.53590e+01
1.17344e-02,3.34375e+01
1.20061e-02,3.16181e+01
1.22841e-02,2.98954e+01
1.25686e-02,2.82643e+01
1.28596e-02,2.67200e+01
1.31574e-02,2.52580e+01
1.34621e-02,2.38739e+01
1.37739e-02,2.25637e+01
1.40928e-02,2.13235e+01
1.44192e-02,2.01496e+01
1.47531e-02,1.90385e+01
1.50947e-02,1.79869e+01
1.54443e-02,1.69918e+01
1.58019e-02,1.60500e+01
1.61679e-02,1.51589e+01
1.65423e-02,1.43157e+01
1.69253e-02,1.35180e+01
1.73173e-02,1.27633e+01
1.77183e-02,1.20493e+01
1.81286e-02,1.13739e+01
1.85484e-02,1.07351e+01
1.89779e-02,1.01310e+01
1.94174e-02,9.55961e+00
1.98670e-02,9.01931e+00
2.03271e-02,8.50843e+00
2.07978e-02,8.02541e+00
2.12794e-02,7.56877e+00
2.17722e-02,7.13711e+00
2.22764e-02,6.72910e+00
2.27923e-02,6.34349e+00
2.33201e-02,5.97907e+00
2.38601e-02,5.63473e+00
2.44126e-02,5.30939e+00
2.49779e-02,5.00203e+00
2.55564e-02,4.71170e+00
2.61482e-02,4.43747e+00
2.67537e-02,4.17850e+00
2.73732e-02,3.93396e+00
2.80071e-02,3.70307e+00
2.86557e-02,3.48511e+00
2.93193e-02,3.27937e+00
2.99982e-02,3.08519e+00
3.06929e-02,2.90196e+00
3.14036e-02,2.72908e+00
3.21309e-02,2.56598e+00
3.28749e-02,2.41215e+00
3.36362e-02,2.26707e+00
3.44151e-02,2.13027e+00
3.52121e-02,2.00129e+00
3.60275e-02,1.87972e+00
3.68618e-02,1.76514e+00
3.77154e-02,1.65717e+00
3.85888e-02,1.55545e+00
3.94824e-02,1.45964e+00
4.03967e-02,1.36940e+00
4.13321e-02,1.28444e+00
4.22893e-02,1.20445e+00
4.32686e-02,1.12916e+00
4.42706e-02,1.05832e+00
4.52957e-02,9.91666e-01
4.63446e-02,9.28972e-01
4.74179e-02,8.70014e-01
4.85159e-02,8.14582e-01
4.96394e-02,7.62477e-01
5.07889e-02,7.13511e-01
5.19650e-02,6.67506e-01
5.31684e-02,6.24294e-01
5.43996e-02,5.83715e-01
5.56594e-02,5.45618e-01
5.69483e-02,5.09861e-01
5.82670e-02,4.76309e-01
5.96163e-02,4.44835e-01
6.09969e-02,4.15318e-01
6.24094e-02,3.87644e-01
6.38546e-02,3.61705e-01
6.53333e-02,3.37399e-01
6.68462e-02,3.14631e-01
6.83942e-02,2.93309e-01
6.99780e-02,2.73348e-01
7.15985e-02,2.54666e-01
7.32565e-02,2.37186e-01
7.49529e-02,2.20837e-01
7.66886e-02,2.05550e-01
7.84645e-02,1.91260e-01
8.02815e-02,1.77908e-01
8.21406e-02,1.65435e-01
8.40427e-02,1.53787e-01
8.59889e-02,1.42914e-01
8.79802e-02,1.32767e-01
9.00175e-02,1.23301e-01
9.21021e-02,1.14473e-01
9.42349e-02,1.06243e-01
9.64171e-02,9.85733e-02
9.86499e-02,9.14281e-02
1.00934e-01,8.47738e-02
1.03272e-01,7.85788e-02
1.05663e-01,7.28134e-02
1.08110e-01,6.74498e-02
1.10614e-01,6.24616e-02
1.13175e-01,5.78242e-02
1.15796e-01,5.35144e-02
1.18477e-01,4.95105e-02
1.21221e-01,4.57920e-02
1.24028e-01,4.23399e-02
1.26900e-01,3.91361e-02
1.29839e-01,3.61638e-02
1.32845e-01,3.34073e-02
1.35922e-01,3.08517e-02
1.39069e-01,2.84832e-02
1.42290e-01,2.62888e-02
1.45585e-01,2.42565e-02
1.48956e-01,2.23749e-02
1.52406e-01,2.06333e-02
1.55935e-01,1.90220e-02
1.59546e-01,1.75315e-02
1.63240e-01,1.61534e-02
1.67021e-01,1.48796e-02
1.70888e-01,1.37024e-02
1.74846e-01,1.26150e-02
1.78895e-01,1.16108e-02
1.83037e-01,1.06837e-02
1.87276e-01,9.82799e-03
1.91613e-01,9.03848e-03
1.96050e-01,8.31024e-03
2.00590e-01,7.63869e-03
2.05235e-01,7.01960e-03
2.09987e-01,6.44902e-03
2.14850e-01,5.92331e-03
2.19825e-01,5.43905e-03
2.24916e-01,4.99309e-03
2.30124e-01,4.58251e-03
2.35453e-01,4.20460e-03
2.40906e-01,3.85685e-03
2.46485e-01,3.53692e-03
2.52192e-01,3.24265e-03
2.58032e-01,2.97205e-03
2.64008e-01,2.72328e-03
2.70121e-01,2.49462e-03
2.76377e-01,2.28449e-03
2.82777e-01,2.09143e-03
2.89325e-01,1.91409e-03
2.96025e-01,1.75122e-03
3.02880e-01,1.60167e-03
3.09894e-01,1.46438e-03
3.17070e-01,1.33837e-03
3.24413e-01,1.22272e-03
3.31925e-01,1.11661e-03
3.39611e-01,1.01927e-03
3.47476e-01,9.29977e-04
3.55522e-01,8.48093e-04
3.63755e-01,7.73009e-04
3.72179e-01,7.04171e-04
3.80797e-01,6.41070e-04
3.89616e-01,5.83235e-04
3.98638e-01,5.30235e-04
4.07869e-01,4.81672e-04
4.17314e-01,4.37180e-04
4.26978e-01,3.96424e-04
4.36866e-01,3.59093e-04
4.46982e-01,3.24905e-04
4.57333e-01,2.93599e-04
4.67924e-01,2.64934e-04
4.78759e-01,2.38691e-04
4.89846e-01,2.14668e-04
5.01189e-01,1.92680e-04
5.12796e-01,1.72555e-04
5.24670e-01,1.54138e-04
5.36820e-01,1.37285e-04
5.49252e-01,1.21865e-04
5.61971e-01,1.07758e-04
5.74984e-01,9.48521e-05
5.88299e-01,8.30467e-05
6.01923e-01,7.22487e-05
6.15861e-01,6.23728e-05
6.30123e-01,5.33410e-05
6.44715e-01,4.50818e-05
6.59644e-01,3.75295e-05
6.74920e-01,3.06241e-05
6.90549e-01,2.43106e-05
7.06540e-01,1.85386e-05
7.22902e-01,1.32621e-05
7.39642e-01,8.43871e-06
7.56770e-01,4.02981e-06
7.74295e-01,0.00000e+00
