m1=299037.653, m2=11.340, gsp=2.350, rhosp=103.261
fGW[Hz],dPh[rad]
2.18977e-03,1.39113e+04
2.21083e-03,1.34297e+04
2.23209e-03,1.29646e+04
2.25355e-03,1.25154e+04
2.27522e-03,1.20816e+04
2.29710e-03,1.16628e+04
2.31918e-03,1.12582e+04
2.34148e-03,1.08676e+04
2.36400e-03,1.04904e+04
2.38673e-03,1.01262e+04
2.40968e-03,9.77446e+03
2.43285e-03,9.43485e+03
2.45624e-03,9.10692e+03
2.47986e-03,8.79028e+03
2.50370e-03,8.48455e+03
2.52778e-03,8.18936e+03
2.55208e-03,7.90434e+03
2.57662e-03,7.62915e+03
2.60140e-03,7.36346e+03
2.62641e-03,7.10693e+03
2.65167e-03,6.85926e+03
2.67716e-03,6.62015e+03
2.70291e-03,6.38930e+03
2.72890e-03,6.16642e+03
2.75514e-03,5.95126e+03
2.78163e-03,5.74353e+03
2.80837e-03,5.54300e+03
2.83538e-03,5.34940e+03
2.86264e-03,5.16251e+03
2.89017e-03,4.98210e+03
2.91796e-03,4.80793e+03
2.94602e-03,4.63980e+03
2.97434e-03,4.47750e+03
3.00294e-03,4.32083e+03
3.03182e-03,4.16959e+03
3.06097e-03,4.02360e+03
3.09040e-03,3.88269e+03
3.12012e-03,3.74666e+03
3.15012e-03,3.61536e+03
3.18041e-03,3.48862e+03
3.21099e-03,3.36628e+03
3.24187e-03,3.24820e+03
3.27304e-03,3.13423e+03
3.30451e-03,3.02422e+03
3.33628e-03,2.91804e+03
3.36836e-03,2.81555e+03
3.40075e-03,2.71663e+03
3.43345e-03,2.62115e+03
3.46647e-03,2.52900e+03
3.49980e-03,2.44006e+03
3.53345e-03,2.35422e+03
3.56743e-03,2.27138e+03
3.60173e-03,2.19142e+03
3.63636e-03,2.11425e+03
3.67133e-03,2.03977e+03
3.70663e-03,1.96789e+03
3.74227e-03,1.89851e+03
3.77825e-03,1.83156e+03
3.81458e-03,1.76695e+03
3.85126e-03,1.70459e+03
3.88829e-03,1.64441e+03
3.92568e-03,1.58633e+03
3.96343e-03,1.53028e+03
4.00154e-03,1.47619e+03
4.04002e-03,1.42400e+03
4.07886e-03,1.37362e+03
4.11808e-03,1.32501e+03
4.15768e-03,1.27810e+03
4.19766e-03,1.23283e+03
4.23802e-03,1.18914e+03
4.27877e-03,1.14698e+03
4.31991e-03,1.10630e+03
4.36145e-03,1.06704e+03
4.40339e-03,1.02916e+03
4.44573e-03,9.92598e+02
4.48848e-03,9.57321e+02
4.53164e-03,9.23280e+02
4.57521e-03,8.90431e+02
4.61920e-03,8.58734e+02
4.66362e-03,8.28147e+02
4.70846e-03,7.98633e+02
4.75374e-03,7.70153e+02
4.79944e-03,7.42672e+02
4.84559e-03,7.16155e+02
4.89219e-03,6.90568e+02
4.93923e-03,6.65878e+02
4.98672e-03,6.42055e+02
5.03467e-03,6.19067e+02
5.08308e-03,5.96887e+02
5.13196e-03,5.75484e+02
5.18130e-03,5.54834e+02
5.23112e-03,5.34908e+02
5.28142e-03,5.15681e+02
5.33221e-03,4.97130e+02
5.38348e-03,4.79231e+02
5.43524e-03,4.61960e+02
5.48751e-03,4.45296e+02
5.54027e-03,4.29217e+02
5.59354e-03,4.13704e+02
5.64733e-03,3.98735e+02
5.70163e-03,3.84293e+02
5.75645e-03,3.70358e+02
5.81180e-03,3.56913e+02
5.86769e-03,3.43941e+02
5.92411e-03,3.31425e+02
5.98107e-03,3.19349e+02
6.03858e-03,3.07698e+02
6.09665e-03,2.96457e+02
6.15527e-03,2.85611e+02
6.21445e-03,2.75147e+02
6.27421e-03,2.65050e+02
6.33454e-03,2.55310e+02
6.39545e-03,2.45911e+02
6.45694e-03,2.36844e+02
6.51903e-03,2.28096e+02
6.58171e-03,2.19656e+02
6.64500e-03,2.11512e+02
6.70889e-03,2.03656e+02
6.77340e-03,1.96076e+02
6.83853e-03,1.88763e+02
6.90429e-03,1.81708e+02
6.97068e-03,1.74901e+02
7.03770e-03,1.68334e+02
7.10537e-03,1.61998e+02
7.17370e-03,1.55885e+02
7.24267e-03,1.49988e+02
7.31232e-03,1.44298e+02
7.38263e-03,1.38809e+02
7.45362e-03,1.33514e+02
7.52529e-03,1.28405e+02
7.59764e-03,1.23476e+02
7.67070e-03,1.18720e+02
7.74446e-03,1.14133e+02
7.81892e-03,1.09707e+02
7.89411e-03,1.05437e+02
7.97001e-03,1.01318e+02
8.04665e-03,9.73434e+01
8.12402e-03,9.35094e+01
8.20214e-03,8.98106e+01
8.28100e-03,8.62422e+01
8.36063e-03,8.27997e+01
8.44102e-03,7.94785e+01
8.52219e-03,7.62746e+01
8.60413e-03,7.31836e+01
8.68686e-03,7.02016e+01
8.77039e-03,6.73249e+01
8.85472e-03,6.45496e+01
8.93987e-03,6.18723e+01
9.02583e-03,5.92894e+01
9.11261e-03,5.67976e+01
9.20024e-03,5.43938e+01
9.28870e-03,5.20748e+01
9.37802e-03,4.98376e+01
9.46819e-03,4.76794e+01
9.55923e-03,4.55974e+01
9.65115e-03,4.35888e+01
9.74395e-03,4.16511e+01
9.83764e-03,3.97819e+01
9.93223e-03,3.79786e+01
1.00277e-02,3.62390e+01
1.01242e-02,3.45607e+01
1.02215e-02,3.29418e+01
1.03198e-02,3.13800e+01
1.04190e-02,2.98733e+01
1.05192e-02,2.84198e+01
1.06204e-02,2.70177e+01
1.07225e-02,2.56651e+01
1.08256e-02,2.43602e+01
1.09297e-02,2.31014e+01
1.10348e-02,2.18871e+01
1.11409e-02,2.07156e+01
1.12480e-02,1.95856e+01
1.13561e-02,1.84954e+01
1.14653e-02,1.74438e+01
1.15756e-02,1.64293e+01
1.16869e-02,1.54506e+01
1.17993e-02,1.45065e+01
1.19127e-02,1.35958e+01
1.20273e-02,1.27172e+01
1.21429e-02,1.18697e+01
1.22597e-02,1.10521e+01
1.23776e-02,1.02634e+01
1.24966e-02,9.50254e+00
1.26167e-02,8.76859e+00
1.27381e-02,8.06057e+00
1.28605e-02,7.37757e+00
1.29842e-02,6.71871e+00
1.31090e-02,6.08312e+00
1.32351e-02,5.47000e+00
1.33624e-02,4.87854e+00
1.34908e-02,4.30799e+00
1.36206e-02,3.75760e+00
1.37515e-02,3.22666e+00
1.38838e-02,2.71449e+00
1.40173e-02,2.22042e+00
1.41520e-02,1.74381e+00
1.42881e-02,1.28405e+00
1.44255e-02,8.40543e-01
1.45642e-02,4.12710e-01
1.47043e-02,0.00000e+00
