m1=851070.773, m2=12.295, gsp=2.278, rhosp=9273.239
fGW[Hz],dPh[rad]
1.63558e-03,3.28309e+03
1.64506e-03,3.21084e+03
1.65459e-03,3.14016e+03
1.66418e-03,3.07102e+03
1.67383e-03,3.00337e+03
1.68353e-03,2.93720e+03
1.69329e-03,2.87246e+03
1.70311e-03,2.80912e+03
1.71298e-03,2.74716e+03
1.72291e-03,2.68654e+03
1.73290e-03,2.62724e+03
1.74294e-03,2.56923e+03
1.75305e-03,2.51247e+03
1.76321e-03,2.45695e+03
1.77343e-03,2.40263e+03
1.78371e-03,2.34949e+03
1.79405e-03,2.29751e+03
1.80445e-03,2.24666e+03
1.81491e-03,2.19690e+03
1.82543e-03,2.14823e+03
1.83601e-03,2.10062e+03
1.84665e-03,2.05404e+03
1.85736e-03,2.00847e+03
1.86812e-03,1.96389e+03
1.87895e-03,1.92028e+03
1.88984e-03,1.87762e+03
1.90080e-03,1.83588e+03
1.91182e-03,1.79505e+03
1.92290e-03,1.75511e+03
1.93404e-03,1.71603e+03
1.94525e-03,1.67781e+03
1.95653e-03,1.64041e+03
1.96787e-03,1.60383e+03
1.97928e-03,1.56804e+03
1.99075e-03,1.53303e+03
2.00229e-03,1.49877e+03
2.01390e-03,1.46527e+03
2.02557e-03,1.43249e+03
2.03731e-03,1.40042e+03
2.04912e-03,1.36905e+03
2.06100e-03,1.33837e+03
2.07295e-03,1.30834e+03
2.08496e-03,1.27898e+03
2.09705e-03,1.25025e+03
2.10921e-03,1.22214e+03
2.12143e-03,1.19464e+03
2.13373e-03,1.16775e+03
2.14610e-03,1.14143e+03
2.15854e-03,1.11569e+03
2.17105e-03,1.09051e+03
2.18364e-03,1.06588e+03
2.19629e-03,1.04178e+03
2.20902e-03,1.01821e+03
2.22183e-03,9.95144e+02
2.23471e-03,9.72583e+02
2.24766e-03,9.50513e+02
2.26069e-03,9.28922e+02
2.27380e-03,9.07802e+02
2.28698e-03,8.87140e+02
2.30023e-03,8.66927e+02
2.31357e-03,8.47155e+02
2.32698e-03,8.27812e+02
2.34047e-03,8.08889e+02
2.35403e-03,7.90378e+02
2.36768e-03,7.72270e+02
2.38140e-03,7.54556e+02
2.39521e-03,7.37226e+02
2.40909e-03,7.20274e+02
2.42306e-03,7.03690e+02
2.43710e-03,6.87467e+02
2.45123e-03,6.71597e+02
2.46544e-03,6.56072e+02
2.47973e-03,6.40885e+02
2.49410e-03,6.26028e+02
2.50856e-03,6.11494e+02
2.52310e-03,5.97276e+02
2.53773e-03,5.83368e+02
2.55244e-03,5.69762e+02
2.56723e-03,5.56452e+02
2.58212e-03,5.43432e+02
2.59708e-03,5.30695e+02
2.61214e-03,5.18235e+02
2.62728e-03,5.06046e+02
2.64251e-03,4.94123e+02
2.65783e-03,4.82458e+02
2.67323e-03,4.71048e+02
2.68873e-03,4.59886e+02
2.70431e-03,4.48966e+02
2.71999e-03,4.38285e+02
2.73576e-03,4.27835e+02
2.75161e-03,4.17613e+02
2.76757e-03,4.07614e+02
2.78361e-03,3.97832e+02
2.79974e-03,3.88263e+02
2.81597e-03,3.78902e+02
2.83230e-03,3.69745e+02
2.84871e-03,3.60787e+02
2.86523e-03,3.52024e+02
2.88184e-03,3.43452e+02
2.89854e-03,3.35066e+02
2.91534e-03,3.26863e+02
2.93224e-03,3.18839e+02
2.94924e-03,3.10989e+02
2.96633e-03,3.03310e+02
2.98353e-03,2.95798e+02
3.00082e-03,2.88449e+02
3.01822e-03,2.81261e+02
3.03571e-03,2.74229e+02
3.05331e-03,2.67350e+02
3.07101e-03,2.60621e+02
3.08881e-03,2.54038e+02
3.10672e-03,2.47599e+02
3.12472e-03,2.41299e+02
3.14284e-03,2.35137e+02
3.16106e-03,2.29109e+02
3.17938e-03,2.23212e+02
3.19781e-03,2.17444e+02
3.21635e-03,2.11801e+02
3.23499e-03,2.06281e+02
3.25374e-03,2.00882e+02
3.27260e-03,1.95599e+02
3.29157e-03,1.90432e+02
3.31065e-03,1.85377e+02
3.32984e-03,1.80433e+02
3.34915e-03,1.75596e+02
3.36856e-03,1.70864e+02
3.38809e-03,1.66235e+02
3.40773e-03,1.61708e+02
3.42748e-03,1.57278e+02
3.44735e-03,1.52945e+02
3.46733e-03,1.48707e+02
3.48743e-03,1.44561e+02
3.50764e-03,1.40505e+02
3.52798e-03,1.36537e+02
3.54843e-03,1.32656e+02
3.56900e-03,1.28859e+02
3.58968e-03,1.25145e+02
3.61049e-03,1.21512e+02
3.63142e-03,1.17958e+02
3.65247e-03,1.14482e+02
3.67364e-03,1.11081e+02
3.69494e-03,1.07754e+02
3.71636e-03,1.04499e+02
3.73790e-03,1.01316e+02
3.75957e-03,9.82018e+01
3.78136e-03,9.51554e+01
3.80328e-03,9.21754e+01
3.82532e-03,8.92603e+01
3.84750e-03,8.64087e+01
3.86980e-03,8.36192e+01
3.89223e-03,8.08905e+01
3.91480e-03,7.82212e+01
3.93749e-03,7.56100e+01
3.96031e-03,7.30557e+01
3.98327e-03,7.05570e+01
4.00636e-03,6.81128e+01
4.02958e-03,6.57218e+01
4.05294e-03,6.33829e+01
4.07643e-03,6.10949e+01
4.10006e-03,5.88567e+01
4.12383e-03,5.66674e+01
4.14773e-03,5.45257e+01
4.17178e-03,5.24306e+01
4.19596e-03,5.03812e+01
4.22028e-03,4.83765e+01
4.24475e-03,4.64154e+01
4.26935e-03,4.44970e+01
4.29410e-03,4.26204e+01
4.31899e-03,4.07847e+01
4.34403e-03,3.89890e+01
4.36921e-03,3.72324e+01
4.39453e-03,3.55141e+01
4.42001e-03,3.38332e+01
4.44563e-03,3.21890e+01
4.47140e-03,3.05805e+01
4.49732e-03,2.90071e+01
4.52339e-03,2.74680e+01
4.54961e-03,2.59624e+01
4.57598e-03,2.44896e+01
4.60251e-03,2.30489e+01
4.62918e-03,2.16396e+01
4.65602e-03,2.02610e+01
4.68301e-03,1.89124e+01
4.71015e-03,1.75932e+01
4.73746e-03,1.63027e+01
4.76492e-03,1.50404e+01
4.79254e-03,1.38056e+01
4.82032e-03,1.25976e+01
4.84826e-03,1.14160e+01
4.87636e-03,1.02602e+01
4.90463e-03,9.12949e+00
4.93306e-03,8.02345e+00
4.96166e-03,6.94150e+00
4.99042e-03,5.88313e+00
5.01935e-03,4.84783e+00
5.04844e-03,3.83508e+00
5.07771e-03,2.84439e+00
5.10714e-03,1.87530e+00
5.13674e-03,9.27322e-01
5.16652e-03,0.00000e+00
