m1=31114.121, m2=7.296, gsp=2.048, rhosp=401.390
fGW[Hz],dPh[rad]
4.54920e-03,4.24993e+02
4.62843e-03,4.04820e+02
4.70905e-03,3.85548e+02
4.79107e-03,3.67139e+02
4.87452e-03,3.49557e+02
4.95942e-03,3.32768e+02
5.04580e-03,3.16736e+02
5.13368e-03,3.01431e+02
5.22309e-03,2.86821e+02
5.31407e-03,2.72876e+02
5.40662e-03,2.59568e+02
5.50079e-03,2.46871e+02
5.59660e-03,2.34756e+02
5.69408e-03,2.23200e+02
5.79325e-03,2.12179e+02
5.89415e-03,2.01668e+02
5.99681e-03,1.91647e+02
6.10126e-03,1.82093e+02
6.20753e-03,1.72987e+02
6.31565e-03,1.64308e+02
6.42565e-03,1.56038e+02
6.53756e-03,1.48159e+02
6.65143e-03,1.40654e+02
6.76728e-03,1.33506e+02
6.88515e-03,1.26699e+02
7.00507e-03,1.20218e+02
7.12708e-03,1.14049e+02
7.25121e-03,1.08177e+02
7.37751e-03,1.02590e+02
7.50600e-03,9.72737e+01
7.63674e-03,9.22166e+01
7.76975e-03,8.74068e+01
7.90507e-03,8.28330e+01
8.04276e-03,7.84844e+01
8.18284e-03,7.43508e+01
8.32536e-03,7.04222e+01
8.47037e-03,6.66891e+01
8.61790e-03,6.31425e+01
8.76800e-03,5.97736e+01
8.92071e-03,5.65743e+01
9.07609e-03,5.35365e+01
9.23417e-03,5.06526e+01
9.39500e-03,4.79154e+01
9.55864e-03,4.53179e+01
9.72512e-03,4.28534e+01
9.89451e-03,4.05157e+01
1.00668e-02,3.82985e+01
1.02422e-02,3.61962e+01
1.04206e-02,3.42031e+01
1.06021e-02,3.23140e+01
1.07867e-02,3.05238e+01
1.09746e-02,2.88276e+01
1.11657e-02,2.72208e+01
1.13602e-02,2.56991e+01
1.15581e-02,2.42581e+01
1.17594e-02,2.28939e+01
1.19642e-02,2.16027e+01
1.21726e-02,2.03808e+01
1.23846e-02,1.92246e+01
1.26003e-02,1.81310e+01
1.28198e-02,1.70966e+01
1.30431e-02,1.61185e+01
1.32702e-02,1.51938e+01
1.35014e-02,1.43198e+01
1.37365e-02,1.34938e+01
1.39758e-02,1.27134e+01
1.42192e-02,1.19761e+01
1.44669e-02,1.12798e+01
1.47188e-02,1.06222e+01
1.49752e-02,1.00014e+01
1.52360e-02,9.41544e+00
1.55014e-02,8.86239e+00
1.57714e-02,8.34054e+00
1.60461e-02,7.84821e+00
1.63255e-02,7.38383e+00
1.66099e-02,6.94589e+00
1.68992e-02,6.53296e+00
1.71935e-02,6.14368e+00
1.74930e-02,5.77676e+00
1.77977e-02,5.43097e+00
1.81077e-02,5.10517e+00
1.84230e-02,4.79824e+00
1.87439e-02,4.50914e+00
1.90704e-02,4.23689e+00
1.94025e-02,3.98053e+00
1.97405e-02,3.73920e+00
2.00843e-02,3.51204e+00
2.04341e-02,3.29825e+00
2.07900e-02,3.09708e+00
2.11521e-02,2.90782e+00
2.15205e-02,2.72979e+00
2.18954e-02,2.56234e+00
2.22767e-02,2.40488e+00
2.26647e-02,2.25682e+00
2.30595e-02,2.11764e+00
2.34611e-02,1.98681e+00
2.38697e-02,1.86385e+00
2.42855e-02,1.74830e+00
2.47085e-02,1.63974e+00
2.51388e-02,1.53775e+00
2.55767e-02,1.44195e+00
2.60221e-02,1.35198e+00
2.64754e-02,1.26748e+00
2.69365e-02,1.18815e+00
2.74057e-02,1.11367e+00
2.78830e-02,1.04375e+00
2.83686e-02,9.78130e-01
2.88627e-02,9.16543e-01
2.93655e-02,8.58752e-01
2.98769e-02,8.04528e-01
3.03973e-02,7.53657e-01
3.09267e-02,7.05936e-01
3.14654e-02,6.61177e-01
3.20134e-02,6.19199e-01
3.25710e-02,5.79833e-01
3.31383e-02,5.42922e-01
3.37155e-02,5.08315e-01
3.43027e-02,4.75871e-01
3.49002e-02,4.45459e-01
3.55080e-02,4.16954e-01
3.61265e-02,3.90239e-01
3.67557e-02,3.65203e-01
3.73959e-02,3.41743e-01
3.80472e-02,3.19763e-01
3.87099e-02,2.99169e-01
3.93841e-02,2.79877e-01
4.00701e-02,2.61806e-01
4.07680e-02,2.44880e-01
4.14781e-02,2.29026e-01
4.22005e-02,2.14180e-01
4.29355e-02,2.00277e-01
4.36833e-02,1.87259e-01
4.44442e-02,1.75069e-01
4.52183e-02,1.63658e-01
4.60059e-02,1.52974e-01
4.68072e-02,1.42973e-01
4.76224e-02,1.33611e-01
4.84519e-02,1.24849e-01
4.92957e-02,1.16648e-01
5.01543e-02,1.08973e-01
5.10279e-02,1.01790e-01
5.19167e-02,9.50686e-02
5.28209e-02,8.87793e-02
5.37409e-02,8.28946e-02
5.46769e-02,7.73888e-02
5.56292e-02,7.22377e-02
5.65981e-02,6.74187e-02
5.75839e-02,6.29107e-02
5.85869e-02,5.86938e-02
5.96073e-02,5.47493e-02
6.06455e-02,5.10598e-02
6.17018e-02,4.76091e-02
6.27764e-02,4.43818e-02
6.38698e-02,4.13635e-02
6.49823e-02,3.85408e-02
6.61141e-02,3.59013e-02
6.72656e-02,3.34330e-02
6.84372e-02,3.11249e-02
6.96292e-02,2.89669e-02
7.08419e-02,2.69490e-02
7.20758e-02,2.50624e-02
7.33312e-02,2.32986e-02
7.46084e-02,2.16495e-02
7.59079e-02,2.01079e-02
7.72300e-02,1.86667e-02
7.85751e-02,1.73195e-02
7.99437e-02,1.60601e-02
8.13361e-02,1.48828e-02
8.27527e-02,1.37825e-02
8.41940e-02,1.27539e-02
8.56605e-02,1.17925e-02
8.71524e-02,1.08940e-02
8.86704e-02,1.00542e-02
9.02148e-02,9.26932e-03
9.17861e-02,8.53577e-03
9.33847e-02,7.85023e-03
9.50112e-02,7.20956e-03
9.66661e-02,6.61084e-03
9.83497e-02,6.05134e-03
1.00063e-01,5.52850e-03
1.01806e-01,5.03993e-03
1.03579e-01,4.58338e-03
1.05383e-01,4.15678e-03
1.07218e-01,3.75816e-03
1.09086e-01,3.38569e-03
1.10986e-01,3.03767e-03
1.12919e-01,2.71249e-03
1.14885e-01,2.40867e-03
1.16886e-01,2.12480e-03
1.18922e-01,1.85958e-03
1.20994e-01,1.61179e-03
1.23101e-01,1.38028e-03
1.25245e-01,1.16399e-03
1.27426e-01,9.61926e-04
1.29646e-01,7.73147e-04
1.31904e-01,5.96786e-04
1.34201e-01,4.32027e-04
1.36539e-01,2.78110e-04
1.38917e-01,1.34323e-04
1.41336e-01,0.00000e+00
