m1=184780.905, m2=94.002, gsp=2.335, rhosp=277.114
fGW[Hz],dPh[rad]
1.11750e-03,1.46001e+04
1.13481e-03,1.40129e+04
1.15239e-03,1.34477e+04
1.17023e-03,1.29037e+04
1.18836e-03,1.23802e+04
1.20677e-03,1.18764e+04
1.22546e-03,1.13917e+04
1.24444e-03,1.09254e+04
1.26371e-03,1.04768e+04
1.28329e-03,1.00454e+04
1.30316e-03,9.63047e+03
1.32335e-03,9.23149e+03
1.34385e-03,8.84788e+03
1.36466e-03,8.47908e+03
1.38580e-03,8.12459e+03
1.40726e-03,7.78387e+03
1.42906e-03,7.45644e+03
1.45119e-03,7.14182e+03
1.47367e-03,6.83954e+03
1.49650e-03,6.54916e+03
1.51968e-03,6.27026e+03
1.54322e-03,6.00240e+03
1.56712e-03,5.74519e+03
1.59139e-03,5.49824e+03
1.61604e-03,5.26117e+03
1.64107e-03,5.03361e+03
1.66649e-03,4.81522e+03
1.69230e-03,4.60566e+03
1.71851e-03,4.40459e+03
1.74513e-03,4.21171e+03
1.77216e-03,4.02670e+03
1.79961e-03,3.84926e+03
1.82749e-03,3.67912e+03
1.85579e-03,3.51600e+03
1.88454e-03,3.35963e+03
1.91373e-03,3.20975e+03
1.94337e-03,3.06612e+03
1.97347e-03,2.92849e+03
2.00403e-03,2.79664e+03
2.03507e-03,2.67034e+03
2.06660e-03,2.54938e+03
2.09861e-03,2.43355e+03
2.13111e-03,2.32265e+03
2.16412e-03,2.21648e+03
2.19764e-03,2.11486e+03
2.23168e-03,2.01761e+03
2.26624e-03,1.92455e+03
2.30135e-03,1.83553e+03
2.33699e-03,1.75037e+03
2.37319e-03,1.66893e+03
2.40995e-03,1.59105e+03
2.44728e-03,1.51659e+03
2.48518e-03,1.44541e+03
2.52367e-03,1.37737e+03
2.56276e-03,1.31236e+03
2.60246e-03,1.25023e+03
2.64277e-03,1.19089e+03
2.68370e-03,1.13420e+03
2.72527e-03,1.08006e+03
2.76748e-03,1.02837e+03
2.81035e-03,9.79010e+02
2.85388e-03,9.31896e+02
2.89808e-03,8.86929e+02
2.94297e-03,8.44019e+02
2.98855e-03,8.03077e+02
3.03484e-03,7.64019e+02
3.08185e-03,7.26765e+02
3.12958e-03,6.91236e+02
3.17806e-03,6.57358e+02
3.22728e-03,6.25060e+02
3.27727e-03,5.94272e+02
3.32803e-03,5.64928e+02
3.37958e-03,5.36965e+02
3.43192e-03,5.10322e+02
3.48508e-03,4.84940e+02
3.53906e-03,4.60764e+02
3.59388e-03,4.37739e+02
3.64954e-03,4.15813e+02
3.70607e-03,3.94939e+02
3.76347e-03,3.75067e+02
3.82177e-03,3.56153e+02
3.88096e-03,3.38152e+02
3.94107e-03,3.21024e+02
4.00212e-03,3.04729e+02
4.06410e-03,2.89227e+02
4.12705e-03,2.74483e+02
4.19098e-03,2.60461e+02
4.25589e-03,2.47127e+02
4.32181e-03,2.34451e+02
4.38875e-03,2.22400e+02
4.45673e-03,2.10946e+02
4.52576e-03,2.00060e+02
4.59586e-03,1.89716e+02
4.66704e-03,1.79887e+02
4.73933e-03,1.70550e+02
4.81274e-03,1.61681e+02
4.88728e-03,1.53257e+02
4.96298e-03,1.45257e+02
5.03985e-03,1.37661e+02
5.11791e-03,1.30449e+02
5.19718e-03,1.23603e+02
5.27768e-03,1.17104e+02
5.35943e-03,1.10936e+02
5.44244e-03,1.05083e+02
5.52674e-03,9.95286e+01
5.61234e-03,9.42589e+01
5.69927e-03,8.92597e+01
5.78755e-03,8.45175e+01
5.87719e-03,8.00197e+01
5.96822e-03,7.57540e+01
6.06066e-03,7.17089e+01
6.15454e-03,6.78734e+01
6.24987e-03,6.42370e+01
6.34667e-03,6.07897e+01
6.44497e-03,5.75219e+01
6.54480e-03,5.44247e+01
6.64617e-03,5.14893e+01
6.74911e-03,4.87076e+01
6.85365e-03,4.60718e+01
6.95981e-03,4.35744e+01
7.06761e-03,4.12084e+01
7.17708e-03,3.89670e+01
7.28824e-03,3.68439e+01
7.40113e-03,3.48330e+01
7.51577e-03,3.29284e+01
7.63218e-03,3.11249e+01
7.75039e-03,2.94170e+01
7.87044e-03,2.77999e+01
7.99234e-03,2.62688e+01
8.11613e-03,2.48193e+01
8.24185e-03,2.34471e+01
8.36950e-03,2.21483e+01
8.49914e-03,2.09189e+01
8.63078e-03,1.97553e+01
8.76446e-03,1.86541e+01
8.90022e-03,1.76120e+01
9.03807e-03,1.66259e+01
9.17806e-03,1.56929e+01
9.32022e-03,1.48101e+01
9.46458e-03,1.39749e+01
9.61118e-03,1.31848e+01
9.76004e-03,1.24373e+01
9.91122e-03,1.17303e+01
1.00647e-02,1.10615e+01
1.02206e-02,1.04290e+01
1.03789e-02,9.83075e+00
1.05397e-02,9.26500e+00
1.07029e-02,8.72999e+00
1.08687e-02,8.22406e+00
1.10371e-02,7.74567e+00
1.12080e-02,7.29334e+00
1.13816e-02,6.86567e+00
1.15579e-02,6.46133e+00
1.17369e-02,6.07907e+00
1.19187e-02,5.71770e+00
1.21033e-02,5.37608e+00
1.22908e-02,5.05317e+00
1.24812e-02,4.74793e+00
1.26745e-02,4.45943e+00
1.28708e-02,4.18674e+00
1.30702e-02,3.92902e+00
1.32726e-02,3.68545e+00
1.34782e-02,3.45527e+00
1.36869e-02,3.23774e+00
1.38989e-02,3.03218e+00
1.41142e-02,2.83793e+00
1.43328e-02,2.65438e+00
1.45548e-02,2.48095e+00
1.47803e-02,2.31709e+00
1.50092e-02,2.16226e+00
1.52417e-02,2.01598e+00
1.54778e-02,1.87778e+00
1.57175e-02,1.74721e+00
1.59609e-02,1.62387e+00
1.62082e-02,1.50734e+00
1.64592e-02,1.39727e+00
1.67141e-02,1.29329e+00
1.69730e-02,1.19507e+00
1.72359e-02,1.10229e+00
1.75029e-02,1.01465e+00
1.77740e-02,9.31877e-01
1.80493e-02,8.53694e-01
1.83289e-02,7.79851e-01
1.86128e-02,7.10109e-01
1.89010e-02,6.44240e-01
1.91938e-02,5.82031e-01
1.94911e-02,5.23281e-01
1.97930e-02,4.67798e-01
2.00996e-02,4.15401e-01
2.04109e-02,3.65919e-01
2.07270e-02,3.19192e-01
2.10481e-02,2.75067e-01
2.13741e-02,2.33400e-01
2.17051e-02,1.94054e-01
2.20413e-02,1.56901e-01
2.23827e-02,1.21819e-01
2.27294e-02,8.86941e-02
2.30815e-02,5.74166e-02
2.34390e-02,2.78842e-02
2.38020e-02,0.00000e+00
