m1=947794.513, m2=8.510, gsp=2.196, rhosp=2430.446
fGW[Hz],dPh[rad]
1.82771e-03,4.79035e+02
1.83628e-03,4.70211e+02
1.84490e-03,4.61546e+02
1.85355e-03,4.53035e+02
1.86225e-03,4.44677e+02
1.87099e-03,4.36469e+02
1.87977e-03,4.28407e+02
1.88859e-03,4.20490e+02
1.89745e-03,4.12715e+02
1.90635e-03,4.05079e+02
1.91529e-03,3.97579e+02
1.92428e-03,3.90214e+02
1.93331e-03,3.82981e+02
1.94238e-03,3.75877e+02
1.95149e-03,3.68901e+02
1.96065e-03,3.62049e+02
1.96985e-03,3.55321e+02
1.97909e-03,3.48712e+02
1.98838e-03,3.42222e+02
1.99770e-03,3.35848e+02
2.00708e-03,3.29589e+02
2.01649e-03,3.23441e+02
2.02596e-03,3.17404e+02
2.03546e-03,3.11475e+02
2.04501e-03,3.05652e+02
2.05461e-03,2.99933e+02
2.06425e-03,2.94316e+02
2.07393e-03,2.88801e+02
2.08366e-03,2.83384e+02
2.09344e-03,2.78064e+02
2.10326e-03,2.72839e+02
2.11313e-03,2.67708e+02
2.12304e-03,2.62669e+02
2.13300e-03,2.57720e+02
2.14301e-03,2.52860e+02
2.15307e-03,2.48086e+02
2.16317e-03,2.43399e+02
2.17332e-03,2.38795e+02
2.18351e-03,2.34274e+02
2.19376e-03,2.29833e+02
2.20405e-03,2.25473e+02
2.21439e-03,2.21190e+02
2.22478e-03,2.16984e+02
2.23522e-03,2.12854e+02
2.24571e-03,2.08797e+02
2.25624e-03,2.04813e+02
2.26683e-03,2.00901e+02
2.27747e-03,1.97059e+02
2.28815e-03,1.93285e+02
2.29889e-03,1.89579e+02
2.30967e-03,1.85940e+02
2.32051e-03,1.82365e+02
2.33140e-03,1.78855e+02
2.34233e-03,1.75408e+02
2.35332e-03,1.72022e+02
2.36437e-03,1.68697e+02
2.37546e-03,1.65432e+02
2.38660e-03,1.62225e+02
2.39780e-03,1.59076e+02
2.40905e-03,1.55983e+02
2.42035e-03,1.52945e+02
2.43171e-03,1.49962e+02
2.44312e-03,1.47032e+02
2.45458e-03,1.44155e+02
2.46610e-03,1.41330e+02
2.47767e-03,1.38555e+02
2.48929e-03,1.35830e+02
2.50097e-03,1.33153e+02
2.51271e-03,1.30525e+02
2.52450e-03,1.27944e+02
2.53634e-03,1.25409e+02
2.54824e-03,1.22919e+02
2.56020e-03,1.20474e+02
2.57221e-03,1.18073e+02
2.58428e-03,1.15715e+02
2.59640e-03,1.13399e+02
2.60859e-03,1.11124e+02
2.62082e-03,1.08891e+02
2.63312e-03,1.06697e+02
2.64547e-03,1.04543e+02
2.65789e-03,1.02427e+02
2.67036e-03,1.00350e+02
2.68289e-03,9.83091e+01
2.69547e-03,9.63052e+01
2.70812e-03,9.43372e+01
2.72083e-03,9.24045e+01
2.73359e-03,9.05064e+01
2.74642e-03,8.86424e+01
2.75930e-03,8.68117e+01
2.77225e-03,8.50139e+01
2.78526e-03,8.32483e+01
2.79832e-03,8.15144e+01
2.81145e-03,7.98115e+01
2.82464e-03,7.81392e+01
2.83790e-03,7.64968e+01
2.85121e-03,7.48839e+01
2.86459e-03,7.32999e+01
2.87803e-03,7.17443e+01
2.89153e-03,7.02166e+01
2.90510e-03,6.87163e+01
2.91873e-03,6.72428e+01
2.93242e-03,6.57958e+01
2.94618e-03,6.43747e+01
2.96001e-03,6.29791e+01
2.97389e-03,6.16085e+01
2.98785e-03,6.02625e+01
3.00187e-03,5.89406e+01
3.01595e-03,5.76425e+01
3.03010e-03,5.63676e+01
3.04432e-03,5.51155e+01
3.05860e-03,5.38859e+01
3.07295e-03,5.26783e+01
3.08737e-03,5.14924e+01
3.10185e-03,5.03278e+01
3.11641e-03,4.91840e+01
3.13103e-03,4.80608e+01
3.14572e-03,4.69577e+01
3.16048e-03,4.58743e+01
3.17531e-03,4.48104e+01
3.19020e-03,4.37656e+01
3.20517e-03,4.27395e+01
3.22021e-03,4.17318e+01
3.23532e-03,4.07421e+01
3.25050e-03,3.97702e+01
3.26575e-03,3.88158e+01
3.28107e-03,3.78784e+01
3.29647e-03,3.69579e+01
3.31193e-03,3.60538e+01
3.32747e-03,3.51660e+01
3.34308e-03,3.42941e+01
3.35877e-03,3.34378e+01
3.37453e-03,3.25969e+01
3.39036e-03,3.17711e+01
3.40627e-03,3.09600e+01
3.42225e-03,3.01635e+01
3.43831e-03,2.93813e+01
3.45444e-03,2.86131e+01
3.47065e-03,2.78587e+01
3.48693e-03,2.71179e+01
3.50329e-03,2.63903e+01
3.51973e-03,2.56757e+01
3.53624e-03,2.49740e+01
3.55283e-03,2.42849e+01
3.56950e-03,2.36081e+01
3.58625e-03,2.29434e+01
3.60307e-03,2.22907e+01
3.61998e-03,2.16497e+01
3.63696e-03,2.10202e+01
3.65403e-03,2.04019e+01
3.67117e-03,1.97948e+01
3.68840e-03,1.91985e+01
3.70570e-03,1.86129e+01
3.72309e-03,1.80379e+01
3.74056e-03,1.74731e+01
3.75811e-03,1.69185e+01
3.77574e-03,1.63738e+01
3.79345e-03,1.58389e+01
3.81125e-03,1.53136e+01
3.82913e-03,1.47977e+01
3.84710e-03,1.42910e+01
3.86515e-03,1.37935e+01
3.88328e-03,1.33049e+01
3.90150e-03,1.28250e+01
3.91981e-03,1.23537e+01
3.93820e-03,1.18909e+01
3.95668e-03,1.14364e+01
3.97524e-03,1.09901e+01
3.99389e-03,1.05517e+01
4.01263e-03,1.01212e+01
4.03146e-03,9.69844e+00
4.05037e-03,9.28326e+00
4.06938e-03,8.87552e+00
4.08847e-03,8.47509e+00
4.10765e-03,8.08185e+00
4.12692e-03,7.69566e+00
4.14629e-03,7.31639e+00
4.16574e-03,6.94393e+00
4.18529e-03,6.57815e+00
4.20492e-03,6.21893e+00
4.22465e-03,5.86616e+00
4.24447e-03,5.51971e+00
4.26439e-03,5.17947e+00
4.28440e-03,4.84534e+00
4.30450e-03,4.51720e+00
4.32469e-03,4.19495e+00
4.34498e-03,3.87848e+00
4.36537e-03,3.56769e+00
4.38585e-03,3.26246e+00
4.40643e-03,2.96272e+00
4.42710e-03,2.66835e+00
4.44787e-03,2.37926e+00
4.46874e-03,2.09536e+00
4.48971e-03,1.81655e+00
4.51077e-03,1.54274e+00
4.53194e-03,1.27384e+00
4.55320e-03,1.00977e+00
4.57456e-03,7.50431e-01
4.59603e-03,4.95746e-01
4.61759e-03,2.45630e-01
4.63926e-03,0.00000e+00
