m1=610431.736, m2=9.582, gsp=2.085, rhosp=11.076
fGW[Hz],dPh[rad]
1.95143e-03,2.77204e+01
1.96428e-03,2.70116e+01
1.97721e-03,2.63208e+01
1.99023e-03,2.56475e+01
2.00333e-03,2.49914e+01
2.01652e-03,2.43518e+01
2.02980e-03,2.37285e+01
2.04316e-03,2.31210e+01
2.05662e-03,2.25289e+01
2.07016e-03,2.19519e+01
2.08379e-03,2.13895e+01
2.09751e-03,2.08413e+01
2.11132e-03,2.03071e+01
2.12522e-03,1.97865e+01
2.13921e-03,1.92790e+01
2.15330e-03,1.87845e+01
2.16748e-03,1.83025e+01
2.18175e-03,1.78327e+01
2.19611e-03,1.73749e+01
2.21057e-03,1.69287e+01
2.22513e-03,1.64938e+01
2.23978e-03,1.60700e+01
2.25453e-03,1.56569e+01
2.26937e-03,1.52544e+01
2.28431e-03,1.48620e+01
2.29935e-03,1.44797e+01
2.31449e-03,1.41070e+01
2.32973e-03,1.37438e+01
2.34507e-03,1.33899e+01
2.36051e-03,1.30449e+01
2.37605e-03,1.27087e+01
2.39170e-03,1.23810e+01
2.40745e-03,1.20617e+01
2.42330e-03,1.17505e+01
2.43925e-03,1.14472e+01
2.45531e-03,1.11516e+01
2.47148e-03,1.08635e+01
2.48775e-03,1.05828e+01
2.50413e-03,1.03092e+01
2.52062e-03,1.00425e+01
2.53722e-03,9.78265e+00
2.55392e-03,9.52939e+00
2.57074e-03,9.28256e+00
2.58766e-03,9.04201e+00
2.60470e-03,8.80757e+00
2.62185e-03,8.57910e+00
2.63911e-03,8.35644e+00
2.65649e-03,8.13945e+00
2.67398e-03,7.92797e+00
2.69159e-03,7.72188e+00
2.70931e-03,7.52102e+00
2.72715e-03,7.32528e+00
2.74510e-03,7.13451e+00
2.76318e-03,6.94860e+00
2.78137e-03,6.76742e+00
2.79969e-03,6.59085e+00
2.81812e-03,6.41878e+00
2.83667e-03,6.25108e+00
2.85535e-03,6.08765e+00
2.87415e-03,5.92838e+00
2.89308e-03,5.77316e+00
2.91212e-03,5.62189e+00
2.93130e-03,5.47448e+00
2.95060e-03,5.33081e+00
2.97003e-03,5.19080e+00
2.98958e-03,5.05436e+00
3.00927e-03,4.92139e+00
3.02908e-03,4.79180e+00
3.04902e-03,4.66552e+00
3.06910e-03,4.54245e+00
3.08931e-03,4.42251e+00
3.10965e-03,4.30562e+00
3.13012e-03,4.19172e+00
3.15073e-03,4.08071e+00
3.17148e-03,3.97253e+00
3.19236e-03,3.86710e+00
3.21338e-03,3.76436e+00
3.23454e-03,3.66424e+00
3.25583e-03,3.56666e+00
3.27727e-03,3.47157e+00
3.29885e-03,3.37890e+00
3.32057e-03,3.28860e+00
3.34243e-03,3.20059e+00
3.36444e-03,3.11482e+00
3.38659e-03,3.03124e+00
3.40889e-03,2.94979e+00
3.43133e-03,2.87041e+00
3.45393e-03,2.79306e+00
3.47667e-03,2.71768e+00
3.49956e-03,2.64421e+00
3.52260e-03,2.57262e+00
3.54580e-03,2.50285e+00
3.56914e-03,2.43486e+00
3.59264e-03,2.36861e+00
3.61630e-03,2.30404e+00
3.64011e-03,2.24111e+00
3.66407e-03,2.17979e+00
3.68820e-03,2.12003e+00
3.71248e-03,2.06180e+00
3.73693e-03,2.00505e+00
3.76153e-03,1.94974e+00
3.78630e-03,1.89585e+00
3.81123e-03,1.84332e+00
3.83632e-03,1.79214e+00
3.86158e-03,1.74226e+00
3.88701e-03,1.69365e+00
3.91260e-03,1.64629e+00
3.93836e-03,1.60012e+00
3.96429e-03,1.55514e+00
3.99039e-03,1.51130e+00
4.01667e-03,1.46858e+00
4.04311e-03,1.42695e+00
4.06974e-03,1.38638e+00
4.09653e-03,1.34685e+00
4.12350e-03,1.30832e+00
4.15065e-03,1.27077e+00
4.17798e-03,1.23418e+00
4.20549e-03,1.19853e+00
4.23318e-03,1.16378e+00
4.26105e-03,1.12992e+00
4.28911e-03,1.09692e+00
4.31735e-03,1.06477e+00
4.34578e-03,1.03343e+00
4.37439e-03,1.00289e+00
4.40319e-03,9.73136e-01
4.43218e-03,9.44137e-01
4.46137e-03,9.15877e-01
4.49074e-03,8.88338e-01
4.52031e-03,8.61501e-01
4.55007e-03,8.35348e-01
4.58003e-03,8.09863e-01
4.61019e-03,7.85027e-01
4.64054e-03,7.60825e-01
4.67110e-03,7.37240e-01
4.70185e-03,7.14256e-01
4.73281e-03,6.91859e-01
4.76397e-03,6.70033e-01
4.79534e-03,6.48763e-01
4.82691e-03,6.28036e-01
4.85869e-03,6.07838e-01
4.89068e-03,5.88155e-01
4.92289e-03,5.68974e-01
4.95530e-03,5.50282e-01
4.98793e-03,5.32067e-01
5.02077e-03,5.14317e-01
5.05383e-03,4.97020e-01
5.08710e-03,4.80163e-01
5.12060e-03,4.63737e-01
5.15431e-03,4.47730e-01
5.18825e-03,4.32131e-01
5.22241e-03,4.16930e-01
5.25679e-03,4.02117e-01
5.29141e-03,3.87682e-01
5.32625e-03,3.73615e-01
5.36132e-03,3.59907e-01
5.39662e-03,3.46549e-01
5.43215e-03,3.33531e-01
5.46791e-03,3.20846e-01
5.50392e-03,3.08484e-01
5.54016e-03,2.96438e-01
5.57663e-03,2.84699e-01
5.61335e-03,2.73260e-01
5.65031e-03,2.62112e-01
5.68751e-03,2.51249e-01
5.72496e-03,2.40663e-01
5.76266e-03,2.30348e-01
5.80060e-03,2.20295e-01
5.83879e-03,2.10499e-01
5.87724e-03,2.00953e-01
5.91593e-03,1.91651e-01
5.95488e-03,1.82585e-01
5.99409e-03,1.73752e-01
6.03356e-03,1.65143e-01
6.07329e-03,1.56755e-01
6.11327e-03,1.48580e-01
6.15352e-03,1.40614e-01
6.19404e-03,1.32852e-01
6.23482e-03,1.25287e-01
6.27588e-03,1.17916e-01
6.31720e-03,1.10732e-01
6.35879e-03,1.03732e-01
6.40066e-03,9.69109e-02
6.44280e-03,9.02636e-02
6.48522e-03,8.37860e-02
6.52792e-03,7.74737e-02
6.57090e-03,7.13225e-02
6.61417e-03,6.53283e-02
6.65772e-03,5.94871e-02
6.70155e-03,5.37950e-02
6.74568e-03,4.82481e-02
6.79009e-03,4.28429e-02
6.83480e-03,3.75756e-02
6.87980e-03,3.24428e-02
6.92510e-03,2.74410e-02
6.97070e-03,2.25668e-02
7.01659e-03,1.78171e-02
7.06279e-03,1.31886e-02
7.10930e-03,8.67824e-03
7.15611e-03,4.28302e-03
7.20322e-03,0.00000e+00
