m1=3159.252, m2=22.748, gsp=2.337, rhosp=1088.738
fGW[Hz],dPh[rad]
5.26562e-03,7.61714e+03
5.41538e-03,7.17856e+03
5.56940e-03,6.76520e+03
5.72779e-03,6.37559e+03
5.89070e-03,6.00837e+03
6.05823e-03,5.66226e+03
6.23054e-03,5.33605e+03
6.40774e-03,5.02859e+03
6.58998e-03,4.73880e+03
6.77740e-03,4.46568e+03
6.97016e-03,4.20825e+03
7.16840e-03,3.96563e+03
7.37227e-03,3.73696e+03
7.58195e-03,3.52144e+03
7.79758e-03,3.31831e+03
8.01935e-03,3.12687e+03
8.24743e-03,2.94643e+03
8.48199e-03,2.77638e+03
8.72323e-03,2.61611e+03
8.97132e-03,2.46505e+03
9.22648e-03,2.32269e+03
9.48889e-03,2.18852e+03
9.75876e-03,2.06207e+03
1.00363e-02,1.94289e+03
1.03217e-02,1.83058e+03
1.06153e-02,1.72473e+03
1.09172e-02,1.62497e+03
1.12277e-02,1.53096e+03
1.15470e-02,1.44236e+03
1.18754e-02,1.35886e+03
1.22132e-02,1.28017e+03
1.25605e-02,1.20601e+03
1.29178e-02,1.13612e+03
1.32852e-02,1.07027e+03
1.36630e-02,1.00820e+03
1.40516e-02,9.49714e+02
1.44512e-02,8.94598e+02
1.48622e-02,8.42660e+02
1.52849e-02,7.93716e+02
1.57197e-02,7.47594e+02
1.61667e-02,7.04133e+02
1.66265e-02,6.63179e+02
1.70994e-02,6.24589e+02
1.75857e-02,5.88225e+02
1.80859e-02,5.53961e+02
1.86003e-02,5.21675e+02
1.91293e-02,4.91254e+02
1.96733e-02,4.62590e+02
2.02328e-02,4.35582e+02
2.08083e-02,4.10136e+02
2.14001e-02,3.86160e+02
2.20087e-02,3.63571e+02
2.26347e-02,3.42289e+02
2.32784e-02,3.22238e+02
2.39405e-02,3.03348e+02
2.46214e-02,2.85551e+02
2.53216e-02,2.68786e+02
2.60418e-02,2.52992e+02
2.67824e-02,2.38113e+02
2.75442e-02,2.24097e+02
2.83275e-02,2.10895e+02
2.91332e-02,1.98458e+02
2.99618e-02,1.86744e+02
3.08139e-02,1.75710e+02
3.16903e-02,1.65317e+02
3.25916e-02,1.55529e+02
3.35185e-02,1.46310e+02
3.44718e-02,1.37628e+02
3.54522e-02,1.29451e+02
3.64605e-02,1.21751e+02
3.74975e-02,1.14500e+02
3.85639e-02,1.07672e+02
3.96607e-02,1.01242e+02
4.07887e-02,9.51887e+01
4.19488e-02,8.94889e+01
4.31418e-02,8.41226e+01
4.43688e-02,7.90706e+01
4.56307e-02,7.43145e+01
4.69285e-02,6.98375e+01
4.82632e-02,6.56232e+01
4.96358e-02,6.16565e+01
5.10475e-02,5.79231e+01
5.24993e-02,5.44095e+01
5.39925e-02,5.11028e+01
5.55280e-02,4.79913e+01
5.71073e-02,4.50634e+01
5.87315e-02,4.23087e+01
6.04019e-02,3.97170e+01
6.21197e-02,3.72788e+01
6.38865e-02,3.49853e+01
6.57035e-02,3.28281e+01
6.75721e-02,3.07992e+01
6.94939e-02,2.88911e+01
7.14704e-02,2.70969e+01
7.35031e-02,2.54099e+01
7.55936e-02,2.38238e+01
7.77435e-02,2.23328e+01
7.99546e-02,2.09313e+01
8.22286e-02,1.96141e+01
8.45672e-02,1.83763e+01
8.69724e-02,1.72132e+01
8.94460e-02,1.61204e+01
9.19899e-02,1.50939e+01
9.46062e-02,1.41297e+01
9.72969e-02,1.32241e+01
1.00064e-01,1.23739e+01
1.02910e-01,1.15756e+01
1.05837e-01,1.08262e+01
1.08847e-01,1.01228e+01
1.11943e-01,9.46279e+00
1.15126e-01,8.84351e+00
1.18401e-01,8.26258e+00
1.21768e-01,7.71772e+00
1.25231e-01,7.20679e+00
1.28793e-01,6.72777e+00
1.32456e-01,6.27875e+00
1.36223e-01,5.85796e+00
1.40097e-01,5.46369e+00
1.44082e-01,5.09437e+00
1.48180e-01,4.74850e+00
1.52394e-01,4.42466e+00
1.56728e-01,4.12152e+00
1.61186e-01,3.83784e+00
1.65770e-01,3.57244e+00
1.70485e-01,3.32421e+00
1.75333e-01,3.09210e+00
1.80320e-01,2.87513e+00
1.85448e-01,2.67237e+00
1.90723e-01,2.48295e+00
1.96147e-01,2.30605e+00
2.01726e-01,2.14089e+00
2.07463e-01,1.98675e+00
2.13363e-01,1.84294e+00
2.19432e-01,1.70882e+00
2.25672e-01,1.58377e+00
2.32091e-01,1.46724e+00
2.38692e-01,1.35867e+00
2.45480e-01,1.25757e+00
2.52462e-01,1.16346e+00
2.59642e-01,1.07588e+00
2.67026e-01,9.94430e-01
2.74621e-01,9.18702e-01
2.82431e-01,8.48327e-01
2.90464e-01,7.82956e-01
2.98725e-01,7.22259e-01
3.07221e-01,6.65929e-01
3.15959e-01,6.13674e-01
3.24945e-01,5.65225e-01
3.34186e-01,5.20324e-01
3.43691e-01,4.78732e-01
3.53466e-01,4.40224e-01
3.63519e-01,4.04589e-01
3.73858e-01,3.71630e-01
3.84490e-01,3.41161e-01
3.95426e-01,3.13007e-01
4.06672e-01,2.87008e-01
4.18238e-01,2.63009e-01
4.30133e-01,2.40870e-01
4.42366e-01,2.20456e-01
4.54948e-01,2.01643e-01
4.67887e-01,1.84315e-01
4.81194e-01,1.68362e-01
4.94879e-01,1.53684e-01
5.08954e-01,1.40186e-01
5.23429e-01,1.27779e-01
5.38316e-01,1.16382e-01
5.53626e-01,1.05917e-01
5.69372e-01,9.63138e-02
5.85565e-01,8.75054e-02
6.02219e-01,7.94304e-02
6.19347e-01,7.20315e-02
6.36962e-01,6.52556e-02
6.55077e-01,5.90533e-02
6.73708e-01,5.33789e-02
6.92869e-01,4.81900e-02
7.12575e-01,4.34474e-02
7.32841e-01,3.91148e-02
7.53684e-01,3.51586e-02
7.75119e-01,3.15477e-02
7.97164e-01,2.82536e-02
8.19836e-01,2.52498e-02
8.43153e-01,2.25118e-02
8.67133e-01,2.00174e-02
8.91795e-01,1.77457e-02
9.17159e-01,1.56777e-02
9.43243e-01,1.37960e-02
9.70070e-01,1.20844e-02
9.97660e-01,1.05281e-02
1.02603e+00,9.11365e-03
1.05522e+00,7.82852e-03
1.08523e+00,6.66132e-03
1.11609e+00,5.60160e-03
1.14783e+00,4.63979e-03
1.18048e+00,3.76713e-03
1.21405e+00,2.97561e-03
1.24858e+00,2.25791e-03
1.28409e+00,1.60735e-03
1.32061e+00,1.01781e-03
1.35817e+00,4.83719e-04
1.39680e+00,0.00000e+00
