m1=8644.643, m2=20.379, gsp=2.317, rhosp=910.074
fGW[Hz],dPh[rad]
4.26388e-03,1.26113e+04
4.36760e-03,1.19743e+04
4.47384e-03,1.13692e+04
4.58267e-03,1.07944e+04
4.69414e-03,1.02484e+04
4.80832e-03,9.72963e+03
4.92529e-03,9.23689e+03
5.04510e-03,8.76882e+03
5.16782e-03,8.32420e+03
5.29352e-03,7.90186e+03
5.42229e-03,7.50070e+03
5.55419e-03,7.11964e+03
5.68929e-03,6.75771e+03
5.82769e-03,6.41393e+03
5.96944e-03,6.08740e+03
6.11465e-03,5.77727e+03
6.26339e-03,5.48271e+03
6.41575e-03,5.20295e+03
6.57181e-03,4.93726e+03
6.73167e-03,4.68492e+03
6.89542e-03,4.44527e+03
7.06315e-03,4.21769e+03
7.23496e-03,4.00156e+03
7.41095e-03,3.79632e+03
7.59122e-03,3.60141e+03
7.77588e-03,3.41634e+03
7.96503e-03,3.24060e+03
8.15878e-03,3.07372e+03
8.35724e-03,2.91527e+03
8.56053e-03,2.76483e+03
8.76877e-03,2.62199e+03
8.98207e-03,2.48637e+03
9.20056e-03,2.35761e+03
9.42436e-03,2.23538e+03
9.65361e-03,2.11934e+03
9.88843e-03,2.00918e+03
1.01290e-02,1.90461e+03
1.03754e-02,1.80534e+03
1.06277e-02,1.71113e+03
1.08863e-02,1.62170e+03
1.11511e-02,1.53682e+03
1.14223e-02,1.45627e+03
1.17002e-02,1.37982e+03
1.19848e-02,1.30727e+03
1.22763e-02,1.23842e+03
1.25749e-02,1.17309e+03
1.28808e-02,1.11111e+03
1.31941e-02,1.05230e+03
1.35151e-02,9.96499e+02
1.38438e-02,9.43564e+02
1.41806e-02,8.93347e+02
1.45255e-02,8.45713e+02
1.48789e-02,8.00531e+02
1.52408e-02,7.57677e+02
1.56115e-02,7.17034e+02
1.59913e-02,6.78491e+02
1.63803e-02,6.41943e+02
1.67787e-02,6.07287e+02
1.71869e-02,5.74429e+02
1.76049e-02,5.43277e+02
1.80332e-02,5.13747e+02
1.84718e-02,4.85754e+02
1.89212e-02,4.59223e+02
1.93814e-02,4.34078e+02
1.98529e-02,4.10249e+02
2.03358e-02,3.87671e+02
2.08305e-02,3.66278e+02
2.13372e-02,3.46011e+02
2.18562e-02,3.26812e+02
2.23878e-02,3.08628e+02
2.29324e-02,2.91406e+02
2.34903e-02,2.75098e+02
2.40617e-02,2.59656e+02
2.46470e-02,2.45037e+02
2.52465e-02,2.31198e+02
2.58606e-02,2.18100e+02
2.64897e-02,2.05704e+02
2.71340e-02,1.93974e+02
2.77941e-02,1.82877e+02
2.84702e-02,1.72379e+02
2.91627e-02,1.62449e+02
2.98721e-02,1.53059e+02
3.05987e-02,1.44180e+02
3.13431e-02,1.35786e+02
3.21055e-02,1.27852e+02
3.28864e-02,1.20354e+02
3.36864e-02,1.13268e+02
3.45058e-02,1.06575e+02
3.53452e-02,1.00252e+02
3.62050e-02,9.42810e+01
3.70856e-02,8.86433e+01
3.79878e-02,8.33212e+01
3.89118e-02,7.82983e+01
3.98583e-02,7.35585e+01
4.08279e-02,6.90871e+01
4.18210e-02,6.48696e+01
4.28383e-02,6.08926e+01
4.38804e-02,5.71433e+01
4.49478e-02,5.36094e+01
4.60411e-02,5.02795e+01
4.71611e-02,4.71424e+01
4.83083e-02,4.41879e+01
4.94834e-02,4.14059e+01
5.06871e-02,3.87872e+01
5.19200e-02,3.63228e+01
5.31830e-02,3.40043e+01
5.44767e-02,3.18237e+01
5.58018e-02,2.97733e+01
5.71592e-02,2.78460e+01
5.85496e-02,2.60348e+01
5.99738e-02,2.43335e+01
6.14327e-02,2.27356e+01
6.29270e-02,2.12356e+01
6.44577e-02,1.98277e+01
6.60257e-02,1.85069e+01
6.76317e-02,1.72680e+01
6.92769e-02,1.61065e+01
7.09620e-02,1.50179e+01
7.26882e-02,1.39979e+01
7.44563e-02,1.30426e+01
7.62675e-02,1.21481e+01
7.81227e-02,1.13109e+01
8.00230e-02,1.05277e+01
8.19696e-02,9.79517e+00
8.39635e-02,9.11031e+00
8.60059e-02,8.47027e+00
8.80980e-02,7.87233e+00
9.02410e-02,7.31395e+00
9.24361e-02,6.79269e+00
9.46847e-02,6.30628e+00
9.69879e-02,5.85256e+00
9.93471e-02,5.42951e+00
1.01764e-01,5.03519e+00
1.04239e-01,4.66780e+00
1.06775e-01,4.32563e+00
1.09372e-01,4.00708e+00
1.12033e-01,3.71063e+00
1.14758e-01,3.43486e+00
1.17549e-01,3.17842e+00
1.20409e-01,2.94005e+00
1.23338e-01,2.71856e+00
1.26338e-01,2.51283e+00
1.29411e-01,2.32182e+00
1.32559e-01,2.14454e+00
1.35783e-01,1.98007e+00
1.39086e-01,1.82754e+00
1.42470e-01,1.68613e+00
1.45935e-01,1.55508e+00
1.49485e-01,1.43368e+00
1.53121e-01,1.32125e+00
1.56846e-01,1.21718e+00
1.60661e-01,1.12087e+00
1.64569e-01,1.03178e+00
1.68572e-01,9.49389e-01
1.72673e-01,8.73226e-01
1.76873e-01,8.02843e-01
1.81176e-01,7.37821e-01
1.85583e-01,6.77773e-01
1.90097e-01,6.22335e-01
1.94721e-01,5.71169e-01
1.99458e-01,5.23962e-01
2.04310e-01,4.80420e-01
2.09279e-01,4.40270e-01
2.14370e-01,4.03259e-01
2.19585e-01,3.69151e-01
2.24926e-01,3.37728e-01
2.30398e-01,3.08786e-01
2.36002e-01,2.82137e-01
2.41743e-01,2.57605e-01
2.47623e-01,2.35027e-01
2.53647e-01,2.14254e-01
2.59817e-01,1.95146e-01
2.66137e-01,1.77573e-01
2.72610e-01,1.61417e-01
2.79242e-01,1.46565e-01
2.86034e-01,1.32917e-01
2.92992e-01,1.20376e-01
3.00119e-01,1.08856e-01
3.07419e-01,9.82760e-02
3.14897e-01,8.85607e-02
3.22557e-01,7.96414e-02
3.30403e-01,7.14544e-02
3.38441e-01,6.39410e-02
3.46673e-01,5.70469e-02
3.55106e-01,5.07223e-02
3.63744e-01,4.49209e-02
3.72592e-01,3.96005e-02
3.81655e-01,3.47218e-02
3.90939e-01,3.02490e-02
4.00449e-01,2.61488e-02
4.10190e-01,2.23908e-02
4.20168e-01,1.89468e-02
4.30388e-01,1.57910e-02
4.40857e-01,1.28998e-02
4.51581e-01,1.02512e-02
4.62566e-01,7.82521e-03
4.73818e-01,5.60336e-03
4.85344e-01,3.56871e-03
4.97150e-01,1.70569e-03
5.09243e-01,0.00000e+00
