m1=6855.451, m2=39.068, gsp=2.050, rhosp=758.839
fGW[Hz],dPh[rad]
3.54141e-03,4.53754e+01
3.63520e-03,4.27164e+01
3.73148e-03,4.02129e+01
3.83031e-03,3.78557e+01
3.93176e-03,3.56363e+01
4.03589e-03,3.35466e+01
4.14278e-03,3.15792e+01
4.25250e-03,2.97267e+01
4.36513e-03,2.79826e+01
4.48074e-03,2.63404e+01
4.59941e-03,2.47943e+01
4.72123e-03,2.33387e+01
4.84627e-03,2.19681e+01
4.97463e-03,2.06778e+01
5.10638e-03,1.94629e+01
5.24162e-03,1.83192e+01
5.38045e-03,1.72423e+01
5.52295e-03,1.62285e+01
5.66923e-03,1.52741e+01
5.81938e-03,1.43755e+01
5.97351e-03,1.35295e+01
6.13172e-03,1.27331e+01
6.29411e-03,1.19833e+01
6.46082e-03,1.12774e+01
6.63193e-03,1.06128e+01
6.80758e-03,9.98726e+00
6.98788e-03,9.39833e+00
7.17295e-03,8.84392e+00
7.36293e-03,8.32201e+00
7.55794e-03,7.83070e+00
7.75811e-03,7.36820e+00
7.96359e-03,6.93283e+00
8.17450e-03,6.52300e+00
8.39101e-03,6.13723e+00
8.61324e-03,5.77409e+00
8.84137e-03,5.43227e+00
9.07553e-03,5.11053e+00
9.31590e-03,4.80768e+00
9.56263e-03,4.52262e+00
9.81590e-03,4.25432e+00
1.00759e-02,4.00178e+00
1.03427e-02,3.76410e+00
1.06167e-02,3.54039e+00
1.08979e-02,3.32985e+00
1.11865e-02,3.13170e+00
1.14828e-02,2.94521e+00
1.17869e-02,2.76970e+00
1.20991e-02,2.60454e+00
1.24195e-02,2.44911e+00
1.27484e-02,2.30284e+00
1.30861e-02,2.16520e+00
1.34327e-02,2.03568e+00
1.37884e-02,1.91380e+00
1.41536e-02,1.79913e+00
1.45285e-02,1.69122e+00
1.49133e-02,1.58970e+00
1.53083e-02,1.49418e+00
1.57137e-02,1.40431e+00
1.61299e-02,1.31976e+00
1.65571e-02,1.24022e+00
1.69956e-02,1.16540e+00
1.74457e-02,1.09501e+00
1.79078e-02,1.02879e+00
1.83821e-02,9.66513e-01
1.88689e-02,9.07932e-01
1.93687e-02,8.52833e-01
1.98817e-02,8.01013e-01
2.04082e-02,7.52277e-01
2.09487e-02,7.06445e-01
2.15036e-02,6.63346e-01
2.20731e-02,6.22818e-01
2.26577e-02,5.84711e-01
2.32578e-02,5.48882e-01
2.38738e-02,5.15196e-01
2.45061e-02,4.83527e-01
2.51551e-02,4.53756e-01
2.58214e-02,4.25772e-01
2.65052e-02,3.99468e-01
2.72072e-02,3.74745e-01
2.79278e-02,3.51511e-01
2.86675e-02,3.29676e-01
2.94268e-02,3.09158e-01
3.02061e-02,2.89880e-01
3.10062e-02,2.71767e-01
3.18274e-02,2.54751e-01
3.26703e-02,2.38767e-01
3.35356e-02,2.23753e-01
3.44238e-02,2.09652e-01
3.53355e-02,1.96409e-01
3.62714e-02,1.83974e-01
3.72320e-02,1.72298e-01
3.82181e-02,1.61337e-01
3.92303e-02,1.51047e-01
4.02694e-02,1.41388e-01
4.13359e-02,1.32324e-01
4.24307e-02,1.23817e-01
4.35545e-02,1.15836e-01
4.47080e-02,1.08348e-01
4.58921e-02,1.01325e-01
4.71076e-02,9.47367e-02
4.83552e-02,8.85588e-02
4.96359e-02,8.27660e-02
5.09505e-02,7.73353e-02
5.23000e-02,7.22447e-02
5.36852e-02,6.74737e-02
5.51070e-02,6.30030e-02
5.65665e-02,5.88145e-02
5.80647e-02,5.48909e-02
5.96026e-02,5.12162e-02
6.11811e-02,4.77753e-02
6.28015e-02,4.45538e-02
6.44648e-02,4.15384e-02
6.61722e-02,3.87165e-02
6.79248e-02,3.60763e-02
6.97238e-02,3.36065e-02
7.15704e-02,3.12967e-02
7.34660e-02,2.91369e-02
7.54117e-02,2.71180e-02
7.74090e-02,2.52312e-02
7.94592e-02,2.34683e-02
8.15637e-02,2.18216e-02
8.37239e-02,2.02838e-02
8.59414e-02,1.88481e-02
8.82176e-02,1.75081e-02
9.05540e-02,1.62578e-02
9.29524e-02,1.50915e-02
9.54142e-02,1.40039e-02
9.79413e-02,1.29899e-02
1.00535e-01,1.20450e-02
1.03198e-01,1.11646e-02
1.05931e-01,1.03447e-02
1.08737e-01,9.58128e-03
1.11617e-01,8.87076e-03
1.14573e-01,8.20969e-03
1.17607e-01,7.59484e-03
1.20722e-01,7.02318e-03
1.23920e-01,6.49189e-03
1.27202e-01,5.99829e-03
1.30571e-01,5.53988e-03
1.34029e-01,5.11432e-03
1.37578e-01,4.71941e-03
1.41222e-01,4.35309e-03
1.44963e-01,4.01343e-03
1.48802e-01,3.69861e-03
1.52743e-01,3.40695e-03
1.56788e-01,3.13684e-03
1.60941e-01,2.88681e-03
1.65204e-01,2.65546e-03
1.69579e-01,2.44149e-03
1.74070e-01,2.24368e-03
1.78681e-01,2.06089e-03
1.83413e-01,1.89205e-03
1.88271e-01,1.73617e-03
1.93257e-01,1.59233e-03
1.98376e-01,1.45964e-03
2.03630e-01,1.33730e-03
2.09023e-01,1.22456e-03
2.14559e-01,1.12070e-03
2.20241e-01,1.02508e-03
2.26074e-01,9.37075e-04
2.32062e-01,8.56121e-04
2.38208e-01,7.81685e-04
2.44517e-01,7.13273e-04
2.50993e-01,6.50427e-04
2.57641e-01,5.92719e-04
2.64465e-01,5.39753e-04
2.71469e-01,4.91161e-04
2.78659e-01,4.46602e-04
2.86039e-01,4.05758e-04
2.93615e-01,3.68336e-04
3.01391e-01,3.34065e-04
3.09374e-01,3.02691e-04
3.17568e-01,2.73983e-04
3.25978e-01,2.47724e-04
3.34612e-01,2.23716e-04
3.43474e-01,2.01774e-04
3.52571e-01,1.81728e-04
3.61909e-01,1.63423e-04
3.71494e-01,1.46712e-04
3.81334e-01,1.31464e-04
3.91433e-01,1.17554e-04
4.01800e-01,1.04871e-04
4.12442e-01,9.33101e-05
4.23366e-01,8.27757e-05
4.34579e-01,7.31802e-05
4.46089e-01,6.44426e-05
4.57903e-01,5.64889e-05
4.70031e-01,4.92510e-05
4.82480e-01,4.26667e-05
4.95258e-01,3.66787e-05
5.08375e-01,3.12347e-05
5.21840e-01,2.62866e-05
5.35661e-01,2.17905e-05
5.49848e-01,1.77063e-05
5.64411e-01,1.39972e-05
5.79359e-01,1.06297e-05
5.94703e-01,7.57299e-06
6.10454e-01,4.79916e-06
6.26622e-01,2.28261e-06
6.43218e-01,0.00000e+00
