m1=438942.000, m2=7.778, gsp=2.306, rhosp=202.625
fGW[Hz],dPh[rad]
2.29162e-03,4.20811e+03
2.30867e-03,4.09170e+03
2.32584e-03,3.97849e+03
2.34315e-03,3.86839e+03
2.36058e-03,3.76132e+03
2.37814e-03,3.65719e+03
2.39584e-03,3.55593e+03
2.41366e-03,3.45744e+03
2.43162e-03,3.36167e+03
2.44971e-03,3.26853e+03
2.46794e-03,3.17795e+03
2.48630e-03,3.08987e+03
2.50480e-03,3.00420e+03
2.52343e-03,2.92090e+03
2.54221e-03,2.83988e+03
2.56112e-03,2.76110e+03
2.58017e-03,2.68448e+03
2.59937e-03,2.60997e+03
2.61871e-03,2.53751e+03
2.63819e-03,2.46705e+03
2.65782e-03,2.39853e+03
2.67759e-03,2.33189e+03
2.69752e-03,2.26709e+03
2.71758e-03,2.20408e+03
2.73780e-03,2.14279e+03
2.75817e-03,2.08320e+03
2.77869e-03,2.02525e+03
2.79937e-03,1.96890e+03
2.82019e-03,1.91409e+03
2.84118e-03,1.86080e+03
2.86231e-03,1.80898e+03
2.88361e-03,1.75858e+03
2.90506e-03,1.70958e+03
2.92668e-03,1.66192e+03
2.94845e-03,1.61558e+03
2.97039e-03,1.57051e+03
2.99249e-03,1.52669e+03
3.01475e-03,1.48408e+03
3.03718e-03,1.44264e+03
3.05978e-03,1.40234e+03
3.08254e-03,1.36316e+03
3.10548e-03,1.32505e+03
3.12858e-03,1.28800e+03
3.15186e-03,1.25197e+03
3.17531e-03,1.21693e+03
3.19893e-03,1.18286e+03
3.22273e-03,1.14973e+03
3.24671e-03,1.11751e+03
3.27086e-03,1.08619e+03
3.29520e-03,1.05572e+03
3.31971e-03,1.02610e+03
3.34441e-03,9.97297e+02
3.36930e-03,9.69287e+02
3.39436e-03,9.42051e+02
3.41962e-03,9.15566e+02
3.44506e-03,8.89813e+02
3.47069e-03,8.64770e+02
3.49651e-03,8.40419e+02
3.52253e-03,8.16741e+02
3.54873e-03,7.93716e+02
3.57514e-03,7.71327e+02
3.60173e-03,7.49556e+02
3.62853e-03,7.28386e+02
3.65553e-03,7.07802e+02
3.68272e-03,6.87786e+02
3.71012e-03,6.68322e+02
3.73773e-03,6.49397e+02
3.76553e-03,6.30994e+02
3.79355e-03,6.13099e+02
3.82177e-03,5.95699e+02
3.85021e-03,5.78780e+02
3.87885e-03,5.62328e+02
3.90771e-03,5.46331e+02
3.93678e-03,5.30776e+02
3.96607e-03,5.15651e+02
3.99558e-03,5.00944e+02
4.02531e-03,4.86643e+02
4.05526e-03,4.72738e+02
4.08543e-03,4.59217e+02
4.11582e-03,4.46069e+02
4.14644e-03,4.33285e+02
4.17729e-03,4.20855e+02
4.20837e-03,4.08768e+02
4.23968e-03,3.97015e+02
4.27123e-03,3.85588e+02
4.30300e-03,3.74476e+02
4.33502e-03,3.63671e+02
4.36727e-03,3.53166e+02
4.39976e-03,3.42950e+02
4.43250e-03,3.33018e+02
4.46547e-03,3.23360e+02
4.49870e-03,3.13969e+02
4.53217e-03,3.04838e+02
4.56589e-03,2.95959e+02
4.59986e-03,2.87326e+02
4.63408e-03,2.78932e+02
4.66856e-03,2.70770e+02
4.70329e-03,2.62833e+02
4.73828e-03,2.55117e+02
4.77354e-03,2.47613e+02
4.80905e-03,2.40318e+02
4.84483e-03,2.33224e+02
4.88087e-03,2.26326e+02
4.91719e-03,2.19620e+02
4.95377e-03,2.13099e+02
4.99063e-03,2.06758e+02
5.02776e-03,2.00593e+02
5.06516e-03,1.94598e+02
5.10285e-03,1.88769e+02
5.14081e-03,1.83102e+02
5.17906e-03,1.77591e+02
5.21759e-03,1.72233e+02
5.25641e-03,1.67024e+02
5.29552e-03,1.61958e+02
5.33492e-03,1.57033e+02
5.37461e-03,1.52244e+02
5.41460e-03,1.47587e+02
5.45488e-03,1.43060e+02
5.49546e-03,1.38658e+02
5.53635e-03,1.34377e+02
5.57754e-03,1.30215e+02
5.61904e-03,1.26169e+02
5.66084e-03,1.22234e+02
5.70296e-03,1.18408e+02
5.74539e-03,1.14689e+02
5.78813e-03,1.11072e+02
5.83120e-03,1.07555e+02
5.87458e-03,1.04136e+02
5.91829e-03,1.00811e+02
5.96232e-03,9.75789e+01
6.00668e-03,9.44359e+01
6.05137e-03,9.13799e+01
6.09639e-03,8.84086e+01
6.14175e-03,8.55196e+01
6.18744e-03,8.27105e+01
6.23348e-03,7.99793e+01
6.27985e-03,7.73237e+01
6.32658e-03,7.47416e+01
6.37364e-03,7.22311e+01
6.42106e-03,6.97900e+01
6.46884e-03,6.74166e+01
6.51696e-03,6.51090e+01
6.56545e-03,6.28652e+01
6.61430e-03,6.06836e+01
6.66351e-03,5.85625e+01
6.71308e-03,5.65001e+01
6.76303e-03,5.44948e+01
6.81335e-03,5.25451e+01
6.86404e-03,5.06494e+01
6.91510e-03,4.88062e+01
6.96655e-03,4.70140e+01
7.01838e-03,4.52716e+01
7.07060e-03,4.35773e+01
7.12320e-03,4.19301e+01
7.17620e-03,4.03284e+01
7.22959e-03,3.87712e+01
7.28338e-03,3.72571e+01
7.33757e-03,3.57849e+01
7.39216e-03,3.43535e+01
7.44716e-03,3.29618e+01
7.50256e-03,3.16087e+01
7.55838e-03,3.02930e+01
7.61462e-03,2.90138e+01
7.67127e-03,2.77701e+01
7.72834e-03,2.65608e+01
7.78584e-03,2.53850e+01
7.84377e-03,2.42418e+01
7.90212e-03,2.31303e+01
7.96091e-03,2.20496e+01
8.02014e-03,2.09988e+01
8.07981e-03,1.99772e+01
8.13993e-03,1.89838e+01
8.20049e-03,1.80180e+01
8.26150e-03,1.70790e+01
8.32296e-03,1.61660e+01
8.38489e-03,1.52783e+01
8.44727e-03,1.44152e+01
8.51012e-03,1.35760e+01
8.57343e-03,1.27601e+01
8.63722e-03,1.19668e+01
8.70148e-03,1.11954e+01
8.76622e-03,1.04455e+01
8.83144e-03,9.71634e+00
8.89714e-03,9.00739e+00
8.96334e-03,8.31810e+00
9.03002e-03,7.64791e+00
9.09721e-03,6.99630e+00
9.16489e-03,6.36275e+00
9.23308e-03,5.74677e+00
9.30177e-03,5.14786e+00
9.37097e-03,4.56555e+00
9.44069e-03,3.99938e+00
9.51093e-03,3.44891e+00
9.58169e-03,2.91370e+00
9.65298e-03,2.39332e+00
9.72480e-03,1.88737e+00
9.79715e-03,1.39545e+00
9.87004e-03,9.17161e-01
9.94347e-03,4.52135e-01
1.00175e-02,0.00000e+00
