m1=6760.809, m2=17.758, gsp=2.218, rhosp=452.263
fGW[Hz],dPh[rad]
4.77453e-03,1.78055e+03
4.89394e-03,1.68578e+03
5.01633e-03,1.59601e+03
5.14178e-03,1.51099e+03
5.27037e-03,1.43047e+03
5.40218e-03,1.35420e+03
5.53728e-03,1.28197e+03
5.67576e-03,1.21356e+03
5.81771e-03,1.14877e+03
5.96320e-03,1.08741e+03
6.11234e-03,1.02930e+03
6.26520e-03,9.74261e+02
6.42188e-03,9.22141e+02
6.58249e-03,8.72782e+02
6.74711e-03,8.26039e+02
6.91585e-03,7.81773e+02
7.08881e-03,7.39855e+02
7.26609e-03,7.00160e+02
7.44781e-03,6.62570e+02
7.63407e-03,6.26975e+02
7.82499e-03,5.93270e+02
8.02068e-03,5.61355e+02
8.22127e-03,5.31134e+02
8.42687e-03,5.02520e+02
8.63762e-03,4.75427e+02
8.85364e-03,4.49774e+02
9.07506e-03,4.25486e+02
9.30202e-03,4.02490e+02
9.53465e-03,3.80719e+02
9.77310e-03,3.60108e+02
1.00175e-02,3.40594e+02
1.02680e-02,3.22121e+02
1.05248e-02,3.04633e+02
1.07881e-02,2.88078e+02
1.10578e-02,2.72408e+02
1.13344e-02,2.57574e+02
1.16179e-02,2.43533e+02
1.19084e-02,2.30243e+02
1.22062e-02,2.17663e+02
1.25115e-02,2.05758e+02
1.28244e-02,1.94490e+02
1.31451e-02,1.83826e+02
1.34739e-02,1.73734e+02
1.38108e-02,1.64184e+02
1.41562e-02,1.55147e+02
1.45102e-02,1.46596e+02
1.48731e-02,1.38504e+02
1.52451e-02,1.30849e+02
1.56264e-02,1.23605e+02
1.60171e-02,1.16753e+02
1.64177e-02,1.10270e+02
1.68283e-02,1.04137e+02
1.72492e-02,9.83364e+01
1.76806e-02,9.28493e+01
1.81227e-02,8.76596e+01
1.85760e-02,8.27513e+01
1.90405e-02,7.81094e+01
1.95167e-02,7.37198e+01
2.00048e-02,6.95691e+01
2.05051e-02,6.56444e+01
2.10179e-02,6.19338e+01
2.15435e-02,5.84257e+01
2.20823e-02,5.51095e+01
2.26346e-02,5.19748e+01
2.32006e-02,4.90120e+01
2.37809e-02,4.62118e+01
2.43756e-02,4.35655e+01
2.49852e-02,4.10650e+01
2.56101e-02,3.87023e+01
2.62505e-02,3.64701e+01
2.69070e-02,3.43614e+01
2.75799e-02,3.23695e+01
2.82697e-02,3.04882e+01
2.89767e-02,2.87116e+01
2.97014e-02,2.70338e+01
3.04442e-02,2.54498e+01
3.12055e-02,2.39543e+01
3.19859e-02,2.25426e+01
3.27859e-02,2.12102e+01
3.36058e-02,1.99528e+01
3.44463e-02,1.87663e+01
3.53077e-02,1.76469e+01
3.61907e-02,1.65909e+01
3.70958e-02,1.55948e+01
3.80236e-02,1.46555e+01
3.89745e-02,1.37697e+01
3.99492e-02,1.29347e+01
4.09483e-02,1.21476e+01
4.19723e-02,1.14057e+01
4.30220e-02,1.07067e+01
4.40980e-02,1.00480e+01
4.52008e-02,9.42765e+00
4.63312e-02,8.84337e+00
4.74899e-02,8.29321e+00
4.86776e-02,7.77526e+00
4.98950e-02,7.28775e+00
5.11428e-02,6.82899e+00
5.24218e-02,6.39736e+00
5.37328e-02,5.99135e+00
5.50766e-02,5.60954e+00
5.64540e-02,5.25055e+00
5.78659e-02,4.91311e+00
5.93130e-02,4.59600e+00
6.07964e-02,4.29806e+00
6.23169e-02,4.01822e+00
6.38753e-02,3.75543e+00
6.54728e-02,3.50873e+00
6.71102e-02,3.27719e+00
6.87885e-02,3.05995e+00
7.05089e-02,2.85618e+00
7.22722e-02,2.66509e+00
7.40797e-02,2.48596e+00
7.59323e-02,2.31808e+00
7.78313e-02,2.16080e+00
7.97778e-02,2.01350e+00
8.17729e-02,1.87558e+00
8.38180e-02,1.74649e+00
8.59142e-02,1.62571e+00
8.80628e-02,1.51274e+00
9.02652e-02,1.40710e+00
9.25226e-02,1.30837e+00
9.48365e-02,1.21611e+00
9.72082e-02,1.12995e+00
9.96393e-02,1.04949e+00
1.02131e-01,9.74403e-01
1.04685e-01,9.04344e-01
1.07303e-01,8.39004e-01
1.09987e-01,7.78088e-01
1.12738e-01,7.21320e-01
1.15557e-01,6.68436e-01
1.18447e-01,6.19191e-01
1.21409e-01,5.73352e-01
1.24446e-01,5.30701e-01
1.27558e-01,4.91032e-01
1.30748e-01,4.54151e-01
1.34018e-01,4.19877e-01
1.37369e-01,3.88037e-01
1.40805e-01,3.58472e-01
1.44326e-01,3.31029e-01
1.47936e-01,3.05567e-01
1.51635e-01,2.81953e-01
1.55428e-01,2.60061e-01
1.59315e-01,2.39775e-01
1.63299e-01,2.20983e-01
1.67383e-01,2.03583e-01
1.71569e-01,1.87479e-01
1.75860e-01,1.72580e-01
1.80258e-01,1.58801e-01
1.84766e-01,1.46063e-01
1.89387e-01,1.34292e-01
1.94123e-01,1.23420e-01
1.98978e-01,1.13381e-01
2.03954e-01,1.04115e-01
2.09055e-01,9.55653e-02
2.14283e-01,8.76804e-02
2.19642e-01,8.04111e-02
2.25135e-01,7.37116e-02
2.30765e-01,6.75396e-02
2.36537e-01,6.18556e-02
2.42452e-01,5.66228e-02
2.48516e-01,5.18072e-02
2.54731e-01,4.73770e-02
2.61101e-01,4.33027e-02
2.67631e-01,3.95570e-02
2.74324e-01,3.61144e-02
2.81185e-01,3.29516e-02
2.88217e-01,3.00466e-02
2.95425e-01,2.73793e-02
3.02813e-01,2.49309e-02
3.10386e-01,2.26842e-02
3.18149e-01,2.06231e-02
3.26105e-01,1.87328e-02
3.34261e-01,1.69997e-02
3.42620e-01,1.54111e-02
3.51189e-01,1.39553e-02
3.59972e-01,1.26217e-02
3.68974e-01,1.14001e-02
3.78202e-01,1.02816e-02
3.87660e-01,9.25761e-03
3.97355e-01,8.32040e-03
4.07292e-01,7.46280e-03
4.17478e-01,6.67822e-03
4.27919e-01,5.96059e-03
4.38621e-01,5.30435e-03
4.49590e-01,4.70436e-03
4.60834e-01,4.15590e-03
4.72359e-01,3.65464e-03
4.84172e-01,3.19661e-03
4.96281e-01,2.77816e-03
5.08692e-01,2.39592e-03
5.21414e-01,2.04682e-03
5.34454e-01,1.72805e-03
5.47820e-01,1.43700e-03
5.61521e-01,1.17132e-03
5.75564e-01,9.28825e-04
5.89958e-01,7.07524e-04
6.04712e-01,5.05592e-04
6.19835e-01,3.21359e-04
6.35337e-01,1.53295e-04
6.51226e-01,0.00000e+00
