m1=451592.891, m2=4.216, gsp=2.458, rhosp=1116.847
fGW[Hz],dPh[rad]
2.86280e-03,6.04297e+04
2.88047e-03,5.90604e+04
2.89824e-03,5.77218e+04
2.91612e-03,5.64132e+04
2.93411e-03,5.51339e+04
2.95222e-03,5.38832e+04
2.97043e-03,5.26605e+04
2.98876e-03,5.14652e+04
3.00720e-03,5.02966e+04
3.02576e-03,4.91543e+04
3.04443e-03,4.80374e+04
3.06321e-03,4.69456e+04
3.08212e-03,4.58783e+04
3.10113e-03,4.48348e+04
3.12027e-03,4.38148e+04
3.13952e-03,4.28175e+04
3.15889e-03,4.18426e+04
3.17838e-03,4.08896e+04
3.19800e-03,3.99578e+04
3.21773e-03,3.90470e+04
3.23758e-03,3.81565e+04
3.25756e-03,3.72860e+04
3.27766e-03,3.64350e+04
3.29788e-03,3.56031e+04
3.31823e-03,3.47898e+04
3.33871e-03,3.39947e+04
3.35931e-03,3.32174e+04
3.38003e-03,3.24576e+04
3.40089e-03,3.17147e+04
3.42187e-03,3.09885e+04
3.44299e-03,3.02786e+04
3.46423e-03,2.95846e+04
3.48561e-03,2.89061e+04
3.50711e-03,2.82429e+04
3.52875e-03,2.75945e+04
3.55053e-03,2.69606e+04
3.57244e-03,2.63410e+04
3.59448e-03,2.57352e+04
3.61666e-03,2.51430e+04
3.63897e-03,2.45641e+04
3.66143e-03,2.39981e+04
3.68402e-03,2.34448e+04
3.70675e-03,2.29040e+04
3.72962e-03,2.23752e+04
3.75263e-03,2.18583e+04
3.77579e-03,2.13530e+04
3.79909e-03,2.08591e+04
3.82253e-03,2.03762e+04
3.84611e-03,1.99041e+04
3.86985e-03,1.94426e+04
3.89372e-03,1.89914e+04
3.91775e-03,1.85504e+04
3.94192e-03,1.81192e+04
3.96625e-03,1.76978e+04
3.99072e-03,1.72857e+04
4.01534e-03,1.68829e+04
4.04012e-03,1.64892e+04
4.06505e-03,1.61042e+04
4.09013e-03,1.57279e+04
4.11537e-03,1.53601e+04
4.14076e-03,1.50004e+04
4.16631e-03,1.46489e+04
4.19202e-03,1.43052e+04
4.21788e-03,1.39692e+04
4.24391e-03,1.36408e+04
4.27009e-03,1.33197e+04
4.29644e-03,1.30059e+04
4.32295e-03,1.26991e+04
4.34962e-03,1.23991e+04
4.37646e-03,1.21059e+04
4.40347e-03,1.18193e+04
4.43064e-03,1.15390e+04
4.45798e-03,1.12651e+04
4.48548e-03,1.09973e+04
4.51316e-03,1.07356e+04
4.54101e-03,1.04796e+04
4.56903e-03,1.02295e+04
4.59722e-03,9.98493e+03
4.62558e-03,9.74586e+03
4.65412e-03,9.51215e+03
4.68284e-03,9.28369e+03
4.71174e-03,9.06035e+03
4.74081e-03,8.84202e+03
4.77006e-03,8.62859e+03
4.79949e-03,8.41995e+03
4.82911e-03,8.21599e+03
4.85890e-03,8.01660e+03
4.88889e-03,7.82169e+03
4.91905e-03,7.63115e+03
4.94940e-03,7.44489e+03
4.97994e-03,7.26280e+03
5.01067e-03,7.08480e+03
5.04159e-03,6.91079e+03
5.07269e-03,6.74069e+03
5.10399e-03,6.57440e+03
5.13549e-03,6.41185e+03
5.16717e-03,6.25294e+03
5.19906e-03,6.09760e+03
5.23114e-03,5.94574e+03
5.26341e-03,5.79729e+03
5.29589e-03,5.65217e+03
5.32857e-03,5.51031e+03
5.36145e-03,5.37164e+03
5.39453e-03,5.23607e+03
5.42781e-03,5.10355e+03
5.46131e-03,4.97400e+03
5.49500e-03,4.84735e+03
5.52891e-03,4.72355e+03
5.56302e-03,4.60253e+03
5.59735e-03,4.48422e+03
5.63189e-03,4.36857e+03
5.66664e-03,4.25552e+03
5.70160e-03,4.14500e+03
5.73678e-03,4.03696e+03
5.77218e-03,3.93135e+03
5.80779e-03,3.82810e+03
5.84363e-03,3.72718e+03
5.87969e-03,3.62852e+03
5.91597e-03,3.53207e+03
5.95247e-03,3.43779e+03
5.98920e-03,3.34563e+03
6.02615e-03,3.25553e+03
6.06334e-03,3.16746e+03
6.10075e-03,3.08136e+03
6.13839e-03,2.99719e+03
6.17627e-03,2.91492e+03
6.21438e-03,2.83449e+03
6.25272e-03,2.75587e+03
6.29130e-03,2.67901e+03
6.33012e-03,2.60387e+03
6.36918e-03,2.53043e+03
6.40848e-03,2.45863e+03
6.44802e-03,2.38844e+03
6.48781e-03,2.31983e+03
6.52784e-03,2.25276e+03
6.56812e-03,2.18720e+03
6.60864e-03,2.12311e+03
6.64942e-03,2.06045e+03
6.69045e-03,1.99921e+03
6.73173e-03,1.93933e+03
6.77327e-03,1.88080e+03
6.81506e-03,1.82359e+03
6.85711e-03,1.76766e+03
6.89942e-03,1.71299e+03
6.94199e-03,1.65954e+03
6.98483e-03,1.60729e+03
7.02793e-03,1.55622e+03
7.07129e-03,1.50629e+03
7.11492e-03,1.45749e+03
7.15882e-03,1.40978e+03
7.20299e-03,1.36314e+03
7.24744e-03,1.31755e+03
7.29216e-03,1.27298e+03
7.33715e-03,1.22941e+03
7.38242e-03,1.18682e+03
7.42798e-03,1.14519e+03
7.47381e-03,1.10449e+03
7.51992e-03,1.06470e+03
7.56632e-03,1.02581e+03
7.61301e-03,9.87796e+02
7.65998e-03,9.50631e+02
7.70725e-03,9.14302e+02
7.75480e-03,8.78788e+02
7.80265e-03,8.44071e+02
7.85080e-03,8.10134e+02
7.89924e-03,7.76959e+02
7.94798e-03,7.44529e+02
7.99702e-03,7.12828e+02
8.04636e-03,6.81838e+02
8.09601e-03,6.51544e+02
8.14597e-03,6.21930e+02
8.19623e-03,5.92981e+02
8.24680e-03,5.64683e+02
8.29769e-03,5.37019e+02
8.34889e-03,5.09977e+02
8.40040e-03,4.83543e+02
8.45223e-03,4.57702e+02
8.50439e-03,4.32441e+02
8.55686e-03,4.07748e+02
8.60966e-03,3.83609e+02
8.66278e-03,3.60012e+02
8.71623e-03,3.36945e+02
8.77002e-03,3.14396e+02
8.82413e-03,2.92353e+02
8.87858e-03,2.70806e+02
8.93336e-03,2.49742e+02
8.98848e-03,2.29152e+02
9.04394e-03,2.09024e+02
9.09975e-03,1.89348e+02
9.15589e-03,1.70114e+02
9.21239e-03,1.51312e+02
9.26923e-03,1.32932e+02
9.32642e-03,1.14965e+02
9.38397e-03,9.74009e+01
9.44187e-03,8.02318e+01
9.50013e-03,6.34483e+01
9.55875e-03,4.70417e+01
9.61773e-03,3.10036e+01
9.67707e-03,1.53258e+01
9.73678e-03,0.00000e+00
