m1=74533.962, m2=15.580, gsp=2.100, rhosp=131.228
fGW[Hz],dPh[rad]
2.75117e-03,5.39085e+02
2.79388e-03,5.14631e+02
2.83725e-03,4.91217e+02
2.88129e-03,4.68802e+02
2.92602e-03,4.47347e+02
2.97144e-03,4.26814e+02
3.01757e-03,4.07165e+02
3.06442e-03,3.88366e+02
3.11199e-03,3.70382e+02
3.16030e-03,3.53180e+02
3.20936e-03,3.36729e+02
3.25918e-03,3.20998e+02
3.30978e-03,3.05958e+02
3.36116e-03,2.91581e+02
3.41333e-03,2.77839e+02
3.46632e-03,2.64707e+02
3.52013e-03,2.52159e+02
3.57478e-03,2.40171e+02
3.63027e-03,2.28720e+02
3.68663e-03,2.17784e+02
3.74386e-03,2.07341e+02
3.80198e-03,1.97370e+02
3.86100e-03,1.87851e+02
3.92094e-03,1.78766e+02
3.98181e-03,1.70096e+02
4.04362e-03,1.61823e+02
4.10639e-03,1.53931e+02
4.17014e-03,1.46402e+02
4.23487e-03,1.39222e+02
4.30062e-03,1.32376e+02
4.36738e-03,1.25848e+02
4.43518e-03,1.19625e+02
4.50403e-03,1.13694e+02
4.57395e-03,1.08042e+02
4.64495e-03,1.02657e+02
4.71706e-03,9.75264e+01
4.79029e-03,9.26395e+01
4.86465e-03,8.79854e+01
4.94017e-03,8.35538e+01
5.01686e-03,7.93345e+01
5.09474e-03,7.53182e+01
5.17383e-03,7.14956e+01
5.25415e-03,6.78579e+01
5.33571e-03,6.43968e+01
5.41854e-03,6.11042e+01
5.50266e-03,5.79723e+01
5.58808e-03,5.49938e+01
5.67483e-03,5.21617e+01
5.76293e-03,4.94690e+01
5.85239e-03,4.69094e+01
5.94324e-03,4.44767e+01
6.03550e-03,4.21649e+01
6.12920e-03,3.99683e+01
6.22434e-03,3.78814e+01
6.32097e-03,3.58992e+01
6.41910e-03,3.40166e+01
6.51874e-03,3.22290e+01
6.61994e-03,3.05316e+01
6.72271e-03,2.89203e+01
6.82707e-03,2.73908e+01
6.93305e-03,2.59393e+01
7.04068e-03,2.45619e+01
7.14998e-03,2.32551e+01
7.26097e-03,2.20154e+01
7.37369e-03,2.08394e+01
7.48816e-03,1.97242e+01
7.60440e-03,1.86666e+01
7.72245e-03,1.76639e+01
7.84234e-03,1.67133e+01
7.96408e-03,1.58122e+01
8.08771e-03,1.49582e+01
8.21327e-03,1.41489e+01
8.34077e-03,1.33821e+01
8.47025e-03,1.26556e+01
8.60174e-03,1.19673e+01
8.73527e-03,1.13154e+01
8.87088e-03,1.06981e+01
9.00859e-03,1.01134e+01
9.14843e-03,9.55985e+00
9.29045e-03,9.03577e+00
9.43468e-03,8.53965e+00
9.58114e-03,8.07007e+00
9.72987e-03,7.62564e+00
9.88092e-03,7.20507e+00
1.00343e-02,6.80712e+00
1.01901e-02,6.43061e+00
1.03483e-02,6.07443e+00
1.05089e-02,5.73751e+00
1.06721e-02,5.41884e+00
1.08377e-02,5.11746e+00
1.10060e-02,4.83247e+00
1.11768e-02,4.56300e+00
1.13503e-02,4.30822e+00
1.15265e-02,4.06737e+00
1.17055e-02,3.83969e+00
1.18872e-02,3.62449e+00
1.20717e-02,3.42110e+00
1.22591e-02,3.22889e+00
1.24494e-02,3.04727e+00
1.26427e-02,2.87566e+00
1.28389e-02,2.71352e+00
1.30383e-02,2.56034e+00
1.32407e-02,2.41565e+00
1.34462e-02,2.27898e+00
1.36549e-02,2.14989e+00
1.38669e-02,2.02798e+00
1.40822e-02,1.91286e+00
1.43008e-02,1.80414e+00
1.45228e-02,1.70150e+00
1.47483e-02,1.60459e+00
1.49772e-02,1.51309e+00
1.52097e-02,1.42672e+00
1.54458e-02,1.34519e+00
1.56856e-02,1.26824e+00
1.59291e-02,1.19560e+00
1.61764e-02,1.12705e+00
1.64275e-02,1.06236e+00
1.66825e-02,1.00132e+00
1.69415e-02,9.43713e-01
1.72045e-02,8.89362e-01
1.74716e-02,8.38082e-01
1.77428e-02,7.89702e-01
1.80182e-02,7.44061e-01
1.82979e-02,7.01007e-01
1.85820e-02,6.60393e-01
1.88705e-02,6.22085e-01
1.91634e-02,5.85953e-01
1.94609e-02,5.51875e-01
1.97630e-02,5.19736e-01
2.00698e-02,4.89427e-01
2.03814e-02,4.60845e-01
2.06978e-02,4.33893e-01
2.10191e-02,4.08479e-01
2.13454e-02,3.84516e-01
2.16767e-02,3.61923e-01
2.20132e-02,3.40622e-01
2.23550e-02,3.20540e-01
2.27020e-02,3.01607e-01
2.30544e-02,2.83759e-01
2.34123e-02,2.66935e-01
2.37758e-02,2.51076e-01
2.41449e-02,2.36127e-01
2.45197e-02,2.22037e-01
2.49003e-02,2.08756e-01
2.52869e-02,1.96239e-01
2.56794e-02,1.84442e-01
2.60781e-02,1.73324e-01
2.64829e-02,1.62846e-01
2.68940e-02,1.52972e-01
2.73115e-02,1.43668e-01
2.77355e-02,1.34899e-01
2.81660e-02,1.26637e-01
2.86033e-02,1.18852e-01
2.90473e-02,1.11516e-01
2.94982e-02,1.04605e-01
2.99562e-02,9.80923e-02
3.04212e-02,9.19565e-02
3.08935e-02,8.61758e-02
3.13730e-02,8.07295e-02
3.18601e-02,7.55986e-02
3.23547e-02,7.07648e-02
3.28569e-02,6.62111e-02
3.33670e-02,6.19214e-02
3.38850e-02,5.78803e-02
3.44110e-02,5.40736e-02
3.49452e-02,5.04878e-02
3.54877e-02,4.71100e-02
3.60386e-02,4.39284e-02
3.65980e-02,4.09315e-02
3.71662e-02,3.81088e-02
3.77432e-02,3.54500e-02
3.83291e-02,3.29458e-02
3.89241e-02,3.05872e-02
3.95283e-02,2.83657e-02
4.01420e-02,2.62735e-02
4.07651e-02,2.43030e-02
4.13980e-02,2.24472e-02
4.20406e-02,2.06995e-02
4.26932e-02,1.90535e-02
4.33560e-02,1.75034e-02
4.40291e-02,1.60436e-02
4.47126e-02,1.46689e-02
4.54067e-02,1.33742e-02
4.61116e-02,1.21551e-02
4.68274e-02,1.10070e-02
4.75543e-02,9.92594e-03
4.82926e-02,8.90791e-03
4.90422e-02,7.94927e-03
4.98036e-02,7.04657e-03
5.05767e-02,6.19655e-03
5.13618e-02,5.39616e-03
5.21592e-02,4.64250e-03
5.29689e-02,3.93285e-03
5.37912e-02,3.26465e-03
5.46262e-02,2.63548e-03
5.54742e-02,2.04307e-03
5.63354e-02,1.48528e-03
5.72099e-02,9.60083e-04
5.80981e-02,4.65587e-04
5.90000e-02,0.00000e+00
