m1=8839.695, m2=6.493, gsp=2.468, rhosp=240.057
fGW[Hz],dPh[rad]
6.50987e-03,4.70585e+05
6.65329e-03,4.49075e+05
6.79986e-03,4.28516e+05
6.94967e-03,4.08867e+05
7.10277e-03,3.90089e+05
7.25925e-03,3.72145e+05
7.41918e-03,3.54997e+05
7.58262e-03,3.38611e+05
7.74967e-03,3.22954e+05
7.92040e-03,3.07995e+05
8.09489e-03,2.93702e+05
8.27323e-03,2.80048e+05
8.45549e-03,2.67003e+05
8.64177e-03,2.54542e+05
8.83215e-03,2.42639e+05
9.02673e-03,2.31269e+05
9.22559e-03,2.20410e+05
9.42884e-03,2.10039e+05
9.63656e-03,2.00134e+05
9.84886e-03,1.90676e+05
1.00658e-02,1.81645e+05
1.02876e-02,1.73022e+05
1.05142e-02,1.64789e+05
1.07459e-02,1.56929e+05
1.09826e-02,1.49426e+05
1.12246e-02,1.42264e+05
1.14718e-02,1.35428e+05
1.17246e-02,1.28904e+05
1.19829e-02,1.22679e+05
1.22469e-02,1.16738e+05
1.25167e-02,1.11070e+05
1.27924e-02,1.05662e+05
1.30742e-02,1.00503e+05
1.33623e-02,9.55817e+04
1.36566e-02,9.08881e+04
1.39575e-02,8.64119e+04
1.42650e-02,8.21434e+04
1.45793e-02,7.80735e+04
1.49005e-02,7.41933e+04
1.52287e-02,7.04945e+04
1.55642e-02,6.69688e+04
1.59071e-02,6.36087e+04
1.62575e-02,6.04067e+04
1.66157e-02,5.73558e+04
1.69818e-02,5.44492e+04
1.73559e-02,5.16804e+04
1.77382e-02,4.90434e+04
1.81290e-02,4.65321e+04
1.85284e-02,4.41409e+04
1.89366e-02,4.18644e+04
1.93538e-02,3.96975e+04
1.97802e-02,3.76351e+04
2.02159e-02,3.56725e+04
2.06613e-02,3.38052e+04
2.11165e-02,3.20289e+04
2.15817e-02,3.03394e+04
2.20571e-02,2.87328e+04
2.25431e-02,2.72053e+04
2.30397e-02,2.57531e+04
2.35473e-02,2.43730e+04
2.40660e-02,2.30615e+04
2.45962e-02,2.18154e+04
2.51381e-02,2.06318e+04
2.56919e-02,1.95078e+04
2.62579e-02,1.84405e+04
2.68364e-02,1.74273e+04
2.74276e-02,1.64657e+04
2.80319e-02,1.55533e+04
2.86494e-02,1.46877e+04
2.92806e-02,1.38667e+04
2.99256e-02,1.30882e+04
3.05849e-02,1.23502e+04
3.12587e-02,1.16507e+04
3.19474e-02,1.09879e+04
3.26512e-02,1.03601e+04
3.33705e-02,9.76543e+03
3.41057e-02,9.20242e+03
3.48570e-02,8.66948e+03
3.56250e-02,8.16515e+03
3.64098e-02,7.68801e+03
3.72119e-02,7.23673e+03
3.80317e-02,6.81002e+03
3.88696e-02,6.40666e+03
3.97259e-02,6.02547e+03
4.06011e-02,5.66535e+03
4.14955e-02,5.32523e+03
4.24097e-02,5.00408e+03
4.33440e-02,4.70095e+03
4.42989e-02,4.41491e+03
4.52748e-02,4.14507e+03
4.62723e-02,3.89060e+03
4.72917e-02,3.65069e+03
4.83335e-02,3.42458e+03
4.93983e-02,3.21155e+03
5.04866e-02,3.01089e+03
5.15989e-02,2.82196e+03
5.27356e-02,2.64412e+03
5.38974e-02,2.47677e+03
5.50848e-02,2.31935e+03
5.62983e-02,2.17131e+03
5.75386e-02,2.03214e+03
5.88062e-02,1.90135e+03
6.01018e-02,1.77847e+03
6.14258e-02,1.66307e+03
6.27791e-02,1.55472e+03
6.41621e-02,1.45303e+03
6.55757e-02,1.35761e+03
6.70203e-02,1.26811e+03
6.84968e-02,1.18419e+03
7.00059e-02,1.10552e+03
7.15481e-02,1.03181e+03
7.31244e-02,9.62748e+02
7.47353e-02,8.98075e+02
7.63818e-02,8.37529e+02
7.80645e-02,7.80862e+02
7.97843e-02,7.27843e+02
8.15420e-02,6.78252e+02
8.33384e-02,6.31881e+02
8.51744e-02,5.88534e+02
8.70509e-02,5.48027e+02
8.89686e-02,5.10183e+02
9.09287e-02,4.74839e+02
9.29319e-02,4.41838e+02
9.49792e-02,4.11035e+02
9.70717e-02,3.82289e+02
9.92102e-02,3.55473e+02
1.01396e-01,3.30462e+02
1.03630e-01,3.07142e+02
1.05913e-01,2.85403e+02
1.08246e-01,2.65145e+02
1.10631e-01,2.46271e+02
1.13068e-01,2.28691e+02
1.15559e-01,2.12319e+02
1.18105e-01,1.97078e+02
1.20707e-01,1.82892e+02
1.23366e-01,1.69691e+02
1.26084e-01,1.57410e+02
1.28861e-01,1.45987e+02
1.31700e-01,1.35364e+02
1.34602e-01,1.25488e+02
1.37567e-01,1.16308e+02
1.40598e-01,1.07777e+02
1.43695e-01,9.98503e+01
1.46861e-01,9.24867e+01
1.50096e-01,8.56476e+01
1.53403e-01,7.92968e+01
1.56783e-01,7.34006e+01
1.60237e-01,6.79273e+01
1.63767e-01,6.28476e+01
1.67374e-01,5.81340e+01
1.71062e-01,5.37608e+01
1.74830e-01,4.97041e+01
1.78682e-01,4.59416e+01
1.82618e-01,4.24525e+01
1.86642e-01,3.92174e+01
1.90753e-01,3.62183e+01
1.94956e-01,3.34384e+01
1.99251e-01,3.08619e+01
2.03640e-01,2.84745e+01
2.08127e-01,2.62623e+01
2.12712e-01,2.42130e+01
2.17398e-01,2.23146e+01
2.22187e-01,2.05564e+01
2.27082e-01,1.89281e+01
2.32085e-01,1.74204e+01
2.37198e-01,1.60244e+01
2.42424e-01,1.47320e+01
2.47764e-01,1.35356e+01
2.53223e-01,1.24283e+01
2.58801e-01,1.14035e+01
2.64503e-01,1.04552e+01
2.70330e-01,9.57765e+00
2.76286e-01,8.76572e+00
2.82372e-01,8.01457e+00
2.88593e-01,7.31970e+00
2.94951e-01,6.67695e+00
3.01449e-01,6.08245e+00
3.08090e-01,5.53262e+00
3.14877e-01,5.02416e+00
3.21814e-01,4.55397e+00
3.28904e-01,4.11921e+00
3.36150e-01,3.71724e+00
3.43556e-01,3.34560e+00
3.51124e-01,3.00204e+00
3.58860e-01,2.68444e+00
3.66766e-01,2.39087e+00
3.74846e-01,2.11952e+00
3.83104e-01,1.86873e+00
3.91544e-01,1.63695e+00
4.00170e-01,1.42274e+00
4.08986e-01,1.22480e+00
4.17996e-01,1.04188e+00
4.27204e-01,8.72869e-01
4.36616e-01,7.16704e-01
4.46235e-01,5.72418e-01
4.56066e-01,4.39113e-01
4.66113e-01,3.15959e-01
4.76382e-01,2.02187e-01
4.86877e-01,9.70863e-02
4.97603e-01,0.00000e+00
