m1=874408.757, m2=5.157, gsp=2.277, rhosp=916.097
fGW[Hz],dPh[rad]
2.25024e-03,1.28386e+03
2.25935e-03,1.26328e+03
2.26849e-03,1.24301e+03
2.27768e-03,1.22305e+03
2.28690e-03,1.20340e+03
2.29616e-03,1.18405e+03
2.30546e-03,1.16500e+03
2.31479e-03,1.14623e+03
2.32416e-03,1.12775e+03
2.33358e-03,1.10956e+03
2.34302e-03,1.09164e+03
2.35251e-03,1.07400e+03
2.36204e-03,1.05662e+03
2.37160e-03,1.03951e+03
2.38120e-03,1.02267e+03
2.39084e-03,1.00608e+03
2.40052e-03,9.89741e+02
2.41024e-03,9.73654e+02
2.42000e-03,9.57813e+02
2.42980e-03,9.42214e+02
2.43964e-03,9.26854e+02
2.44952e-03,9.11728e+02
2.45943e-03,8.96833e+02
2.46939e-03,8.82165e+02
2.47939e-03,8.67722e+02
2.48943e-03,8.53500e+02
2.49951e-03,8.39494e+02
2.50963e-03,8.25703e+02
2.51979e-03,8.12123e+02
2.52999e-03,7.98750e+02
2.54024e-03,7.85581e+02
2.55052e-03,7.72614e+02
2.56085e-03,7.59844e+02
2.57122e-03,7.47270e+02
2.58163e-03,7.34888e+02
2.59208e-03,7.22696e+02
2.60258e-03,7.10689e+02
2.61311e-03,6.98866e+02
2.62369e-03,6.87224e+02
2.63432e-03,6.75759e+02
2.64498e-03,6.64470e+02
2.65569e-03,6.53353e+02
2.66644e-03,6.42406e+02
2.67724e-03,6.31627e+02
2.68808e-03,6.21012e+02
2.69896e-03,6.10559e+02
2.70989e-03,6.00267e+02
2.72086e-03,5.90131e+02
2.73188e-03,5.80150e+02
2.74294e-03,5.70322e+02
2.75405e-03,5.60644e+02
2.76520e-03,5.51114e+02
2.77640e-03,5.41730e+02
2.78764e-03,5.32489e+02
2.79892e-03,5.23389e+02
2.81026e-03,5.14428e+02
2.82163e-03,5.05604e+02
2.83306e-03,4.96916e+02
2.84453e-03,4.88359e+02
2.85605e-03,4.79934e+02
2.86761e-03,4.71638e+02
2.87922e-03,4.63468e+02
2.89088e-03,4.55423e+02
2.90258e-03,4.47501e+02
2.91434e-03,4.39700e+02
2.92614e-03,4.32018e+02
2.93798e-03,4.24454e+02
2.94988e-03,4.17006e+02
2.96182e-03,4.09671e+02
2.97382e-03,4.02448e+02
2.98586e-03,3.95336e+02
2.99795e-03,3.88332e+02
3.01008e-03,3.81436e+02
3.02227e-03,3.74645e+02
3.03451e-03,3.67957e+02
3.04680e-03,3.61372e+02
3.05913e-03,3.54888e+02
3.07152e-03,3.48502e+02
3.08395e-03,3.42215e+02
3.09644e-03,3.36023e+02
3.10898e-03,3.29926e+02
3.12157e-03,3.23922e+02
3.13421e-03,3.18010e+02
3.14690e-03,3.12189e+02
3.15964e-03,3.06456e+02
3.17243e-03,3.00811e+02
3.18527e-03,2.95252e+02
3.19817e-03,2.89778e+02
3.21112e-03,2.84388e+02
3.22412e-03,2.79081e+02
3.23718e-03,2.73854e+02
3.25028e-03,2.68707e+02
3.26344e-03,2.63639e+02
3.27666e-03,2.58649e+02
3.28992e-03,2.53735e+02
3.30324e-03,2.48896e+02
3.31662e-03,2.44130e+02
3.33005e-03,2.39438e+02
3.34353e-03,2.34818e+02
3.35707e-03,2.30268e+02
3.37066e-03,2.25787e+02
3.38431e-03,2.21375e+02
3.39801e-03,2.17031e+02
3.41177e-03,2.12753e+02
3.42558e-03,2.08540e+02
3.43945e-03,2.04392e+02
3.45338e-03,2.00307e+02
3.46736e-03,1.96285e+02
3.48140e-03,1.92324e+02
3.49550e-03,1.88424e+02
3.50965e-03,1.84583e+02
3.52386e-03,1.80801e+02
3.53813e-03,1.77077e+02
3.55245e-03,1.73410e+02
3.56684e-03,1.69798e+02
3.58128e-03,1.66242e+02
3.59578e-03,1.62741e+02
3.61034e-03,1.59293e+02
3.62496e-03,1.55897e+02
3.63963e-03,1.52554e+02
3.65437e-03,1.49262e+02
3.66917e-03,1.46020e+02
3.68402e-03,1.42827e+02
3.69894e-03,1.39684e+02
3.71392e-03,1.36588e+02
3.72895e-03,1.33540e+02
3.74405e-03,1.30538e+02
3.75921e-03,1.27583e+02
3.77443e-03,1.24672e+02
3.78971e-03,1.21806e+02
3.80506e-03,1.18984e+02
3.82046e-03,1.16205e+02
3.83593e-03,1.13468e+02
3.85146e-03,1.10773e+02
3.86706e-03,1.08120e+02
3.88272e-03,1.05507e+02
3.89844e-03,1.02934e+02
3.91422e-03,1.00400e+02
3.93007e-03,9.79053e+01
3.94598e-03,9.54485e+01
3.96196e-03,9.30293e+01
3.97800e-03,9.06470e+01
3.99411e-03,8.83012e+01
4.01028e-03,8.59913e+01
4.02652e-03,8.37166e+01
4.04282e-03,8.14768e+01
4.05919e-03,7.92712e+01
4.07562e-03,7.70993e+01
4.09213e-03,7.49607e+01
4.10869e-03,7.28547e+01
4.12533e-03,7.07809e+01
4.14203e-03,6.87389e+01
4.15880e-03,6.67280e+01
4.17564e-03,6.47479e+01
4.19255e-03,6.27981e+01
4.20952e-03,6.08781e+01
4.22657e-03,5.89875e+01
4.24368e-03,5.71258e+01
4.26086e-03,5.52925e+01
4.27812e-03,5.34873e+01
4.29544e-03,5.17096e+01
4.31283e-03,4.99592e+01
4.33029e-03,4.82355e+01
4.34782e-03,4.65382e+01
4.36543e-03,4.48668e+01
4.38310e-03,4.32210e+01
4.40085e-03,4.16004e+01
4.41867e-03,4.00045e+01
4.43656e-03,3.84330e+01
4.45452e-03,3.68856e+01
4.47256e-03,3.53618e+01
4.49067e-03,3.38614e+01
4.50885e-03,3.23838e+01
4.52711e-03,3.09289e+01
4.54544e-03,2.94962e+01
4.56384e-03,2.80854e+01
4.58232e-03,2.66962e+01
4.60087e-03,2.53283e+01
4.61950e-03,2.39812e+01
4.63821e-03,2.26548e+01
4.65698e-03,2.13486e+01
4.67584e-03,2.00624e+01
4.69477e-03,1.87959e+01
4.71378e-03,1.75488e+01
4.73287e-03,1.63207e+01
4.75203e-03,1.51114e+01
4.77127e-03,1.39206e+01
4.79059e-03,1.27480e+01
4.80999e-03,1.15933e+01
4.82946e-03,1.04563e+01
4.84902e-03,9.33670e+00
4.86865e-03,8.23420e+00
4.88836e-03,7.14857e+00
4.90815e-03,6.07953e+00
4.92803e-03,5.02684e+00
4.94798e-03,3.99025e+00
4.96801e-03,2.96951e+00
4.98813e-03,1.96438e+00
5.00833e-03,9.74622e-01
5.02860e-03,0.00000e+00
