m1=734260.040, m2=14.165, gsp=2.131, rhosp=1354.503
fGW[Hz],dPh[rad]
1.60931e-03,2.36518e+02
1.61997e-03,2.30485e+02
1.63070e-03,2.24605e+02
1.64151e-03,2.18874e+02
1.65238e-03,2.13288e+02
1.66333e-03,2.07843e+02
1.67435e-03,2.02535e+02
1.68544e-03,1.97362e+02
1.69661e-03,1.92320e+02
1.70785e-03,1.87406e+02
1.71916e-03,1.82616e+02
1.73055e-03,1.77947e+02
1.74201e-03,1.73397e+02
1.75356e-03,1.68961e+02
1.76517e-03,1.64638e+02
1.77687e-03,1.60424e+02
1.78864e-03,1.56317e+02
1.80049e-03,1.52315e+02
1.81242e-03,1.48413e+02
1.82442e-03,1.44610e+02
1.83651e-03,1.40904e+02
1.84868e-03,1.37291e+02
1.86093e-03,1.33770e+02
1.87325e-03,1.30339e+02
1.88566e-03,1.26994e+02
1.89816e-03,1.23734e+02
1.91073e-03,1.20556e+02
1.92339e-03,1.17459e+02
1.93613e-03,1.14441e+02
1.94896e-03,1.11499e+02
1.96187e-03,1.08632e+02
1.97487e-03,1.05837e+02
1.98795e-03,1.03113e+02
2.00112e-03,1.00458e+02
2.01438e-03,9.78708e+01
2.02773e-03,9.53490e+01
2.04116e-03,9.28911e+01
2.05468e-03,9.04955e+01
2.06829e-03,8.81607e+01
2.08200e-03,8.58851e+01
2.09579e-03,8.36672e+01
2.10968e-03,8.15056e+01
2.12365e-03,7.93988e+01
2.13772e-03,7.73455e+01
2.15188e-03,7.53442e+01
2.16614e-03,7.33938e+01
2.18049e-03,7.14928e+01
2.19494e-03,6.96401e+01
2.20948e-03,6.78343e+01
2.22412e-03,6.60744e+01
2.23885e-03,6.43592e+01
2.25368e-03,6.26875e+01
2.26861e-03,6.10582e+01
2.28364e-03,5.94703e+01
2.29877e-03,5.79227e+01
2.31400e-03,5.64144e+01
2.32933e-03,5.49443e+01
2.34476e-03,5.35116e+01
2.36030e-03,5.21153e+01
2.37593e-03,5.07544e+01
2.39168e-03,4.94281e+01
2.40752e-03,4.81354e+01
2.42347e-03,4.68756e+01
2.43953e-03,4.56478e+01
2.45569e-03,4.44512e+01
2.47196e-03,4.32849e+01
2.48833e-03,4.21483e+01
2.50482e-03,4.10405e+01
2.52141e-03,3.99609e+01
2.53812e-03,3.89087e+01
2.55493e-03,3.78832e+01
2.57186e-03,3.68838e+01
2.58890e-03,3.59098e+01
2.60605e-03,3.49605e+01
2.62331e-03,3.40354e+01
2.64069e-03,3.31337e+01
2.65819e-03,3.22550e+01
2.67580e-03,3.13986e+01
2.69353e-03,3.05639e+01
2.71137e-03,2.97505e+01
2.72933e-03,2.89577e+01
2.74742e-03,2.81851e+01
2.76562e-03,2.74322e+01
2.78394e-03,2.66983e+01
2.80238e-03,2.59831e+01
2.82095e-03,2.52861e+01
2.83964e-03,2.46068e+01
2.85845e-03,2.39448e+01
2.87739e-03,2.32996e+01
2.89645e-03,2.26708e+01
2.91564e-03,2.20580e+01
2.93496e-03,2.14608e+01
2.95440e-03,2.08788e+01
2.97397e-03,2.03115e+01
2.99367e-03,1.97587e+01
3.01351e-03,1.92200e+01
3.03347e-03,1.86949e+01
3.05357e-03,1.81832e+01
3.07380e-03,1.76845e+01
3.09416e-03,1.71985e+01
3.11466e-03,1.67249e+01
3.13530e-03,1.62633e+01
3.15607e-03,1.58134e+01
3.17698e-03,1.53750e+01
3.19802e-03,1.49477e+01
3.21921e-03,1.45313e+01
3.24054e-03,1.41255e+01
3.26201e-03,1.37300e+01
3.28362e-03,1.33446e+01
3.30537e-03,1.29690e+01
3.32727e-03,1.26029e+01
3.34931e-03,1.22461e+01
3.37150e-03,1.18985e+01
3.39384e-03,1.15596e+01
3.41632e-03,1.12294e+01
3.43896e-03,1.09076e+01
3.46174e-03,1.05940e+01
3.48467e-03,1.02883e+01
3.50776e-03,9.99048e+00
3.53100e-03,9.70020e+00
3.55439e-03,9.41730e+00
3.57794e-03,9.14160e+00
3.60164e-03,8.87292e+00
3.62550e-03,8.61107e+00
3.64952e-03,8.35589e+00
3.67370e-03,8.10720e+00
3.69804e-03,7.86484e+00
3.72254e-03,7.62865e+00
3.74720e-03,7.39847e+00
3.77203e-03,7.17415e+00
3.79702e-03,6.95554e+00
3.82217e-03,6.74250e+00
3.84749e-03,6.53487e+00
3.87298e-03,6.33254e+00
3.89864e-03,6.13535e+00
3.92447e-03,5.94318e+00
3.95047e-03,5.75590e+00
3.97664e-03,5.57339e+00
4.00299e-03,5.39553e+00
4.02951e-03,5.22219e+00
4.05620e-03,5.05327e+00
4.08307e-03,4.88865e+00
4.11012e-03,4.72822e+00
4.13735e-03,4.57187e+00
4.16476e-03,4.41951e+00
4.19236e-03,4.27102e+00
4.22013e-03,4.12631e+00
4.24809e-03,3.98529e+00
4.27623e-03,3.84786e+00
4.30456e-03,3.71393e+00
4.33308e-03,3.58341e+00
4.36179e-03,3.45621e+00
4.39068e-03,3.33225e+00
4.41977e-03,3.21145e+00
4.44905e-03,3.09373e+00
4.47853e-03,2.97900e+00
4.50820e-03,2.86719e+00
4.53807e-03,2.75823e+00
4.56813e-03,2.65205e+00
4.59839e-03,2.54857e+00
4.62886e-03,2.44772e+00
4.65952e-03,2.34945e+00
4.69039e-03,2.25367e+00
4.72147e-03,2.16034e+00
4.75275e-03,2.06938e+00
4.78424e-03,1.98074e+00
4.81593e-03,1.89436e+00
4.84784e-03,1.81018e+00
4.87995e-03,1.72814e+00
4.91228e-03,1.64819e+00
4.94483e-03,1.57028e+00
4.97759e-03,1.49435e+00
5.01056e-03,1.42036e+00
5.04376e-03,1.34825e+00
5.07717e-03,1.27797e+00
5.11081e-03,1.20949e+00
5.14467e-03,1.14275e+00
5.17875e-03,1.07772e+00
5.21306e-03,1.01434e+00
5.24760e-03,9.52569e-01
5.28236e-03,8.92377e-01
5.31736e-03,8.33717e-01
5.35259e-03,7.76553e-01
5.38805e-03,7.20844e-01
5.42374e-03,6.66555e-01
5.45968e-03,6.13648e-01
5.49585e-03,5.62090e-01
5.53226e-03,5.11845e-01
5.56891e-03,4.62881e-01
5.60580e-03,4.15163e-01
5.64294e-03,3.68662e-01
5.68032e-03,3.23345e-01
5.71796e-03,2.79183e-01
5.75584e-03,2.36146e-01
5.79397e-03,1.94206e-01
5.83236e-03,1.53335e-01
5.87100e-03,1.13504e-01
5.90989e-03,7.46889e-02
5.94904e-03,3.68625e-02
5.98846e-03,0.00000e+00
