m1=1379.299, m2=58.192, gsp=2.289, rhosp=5759.020
fGW[Hz],dPh[rad]
4.57420e-03,8.07577e+02
4.72768e-03,7.52490e+02
4.88630e-03,7.01161e+02
5.05025e-03,6.53332e+02
5.21970e-03,6.08766e+02
5.39483e-03,5.67239e+02
5.57584e-03,5.28544e+02
5.76292e-03,4.92488e+02
5.95628e-03,4.58892e+02
6.15613e-03,4.27587e+02
6.36268e-03,3.98417e+02
6.57616e-03,3.71237e+02
6.79681e-03,3.45910e+02
7.02485e-03,3.22311e+02
7.26055e-03,3.00322e+02
7.50416e-03,2.79832e+02
7.75595e-03,2.60740e+02
8.01618e-03,2.42950e+02
8.28514e-03,2.26373e+02
8.56312e-03,2.10927e+02
8.85043e-03,1.96535e+02
9.14739e-03,1.83125e+02
9.45430e-03,1.70629e+02
9.77152e-03,1.58985e+02
1.00994e-02,1.48136e+02
1.04382e-02,1.38027e+02
1.07885e-02,1.28607e+02
1.11504e-02,1.19830e+02
1.15246e-02,1.11651e+02
1.19112e-02,1.04031e+02
1.23109e-02,9.69303e+01
1.27239e-02,9.03140e+01
1.31509e-02,8.41491e+01
1.35921e-02,7.84047e+01
1.40481e-02,7.30523e+01
1.45195e-02,6.80649e+01
1.50067e-02,6.34178e+01
1.55102e-02,5.90878e+01
1.60306e-02,5.50531e+01
1.65684e-02,5.12938e+01
1.71243e-02,4.77909e+01
1.76989e-02,4.45270e+01
1.82927e-02,4.14859e+01
1.89065e-02,3.86522e+01
1.95409e-02,3.60119e+01
2.01965e-02,3.35517e+01
2.08741e-02,3.12594e+01
2.15745e-02,2.91236e+01
2.22984e-02,2.71335e+01
2.30466e-02,2.52792e+01
2.38198e-02,2.35514e+01
2.46190e-02,2.19416e+01
2.54451e-02,2.04417e+01
2.62988e-02,1.90441e+01
2.71812e-02,1.77419e+01
2.80932e-02,1.65286e+01
2.90358e-02,1.53982e+01
3.00100e-02,1.43449e+01
3.10169e-02,1.33635e+01
3.20576e-02,1.24491e+01
3.31332e-02,1.15972e+01
3.42449e-02,1.08034e+01
3.53939e-02,1.00638e+01
3.65814e-02,9.37473e+00
3.78088e-02,8.73272e+00
3.90774e-02,8.13456e+00
4.03885e-02,7.57726e+00
4.17436e-02,7.05803e+00
4.31442e-02,6.57427e+00
4.45918e-02,6.12356e+00
4.60880e-02,5.70364e+00
4.76343e-02,5.31242e+00
4.92326e-02,4.94794e+00
5.08845e-02,4.60837e+00
5.25917e-02,4.29201e+00
5.43563e-02,3.99728e+00
5.61801e-02,3.72270e+00
5.80651e-02,3.46690e+00
6.00133e-02,3.22859e+00
6.20269e-02,3.00658e+00
6.41080e-02,2.79976e+00
6.62590e-02,2.60709e+00
6.84821e-02,2.42760e+00
7.07799e-02,2.26040e+00
7.31547e-02,2.10465e+00
7.56092e-02,1.95956e+00
7.81461e-02,1.82440e+00
8.07681e-02,1.69850e+00
8.34780e-02,1.58123e+00
8.62789e-02,1.47200e+00
8.91737e-02,1.37025e+00
9.21657e-02,1.27548e+00
9.52581e-02,1.18720e+00
9.84542e-02,1.10499e+00
1.01758e-01,1.02841e+00
1.05172e-01,9.57090e-01
1.08701e-01,8.90666e-01
1.12348e-01,8.28805e-01
1.16117e-01,7.71194e-01
1.20013e-01,7.17542e-01
1.24040e-01,6.67580e-01
1.28202e-01,6.21054e-01
1.32503e-01,5.77730e-01
1.36949e-01,5.37388e-01
1.41544e-01,4.99825e-01
1.46293e-01,4.64850e-01
1.51202e-01,4.32286e-01
1.56275e-01,4.01969e-01
1.61518e-01,3.73744e-01
1.66937e-01,3.47468e-01
1.72539e-01,3.23008e-01
1.78328e-01,3.00240e-01
1.84311e-01,2.79046e-01
1.90495e-01,2.59320e-01
1.96887e-01,2.40961e-01
2.03493e-01,2.23874e-01
2.10320e-01,2.07974e-01
2.17377e-01,1.93178e-01
2.24670e-01,1.79410e-01
2.32209e-01,1.66600e-01
2.40000e-01,1.54683e-01
2.48052e-01,1.43596e-01
2.56375e-01,1.33283e-01
2.64977e-01,1.23691e-01
2.73868e-01,1.14769e-01
2.83057e-01,1.06473e-01
2.92554e-01,9.87576e-02
3.02370e-01,9.15842e-02
3.12515e-01,8.49151e-02
3.23000e-01,7.87156e-02
3.33838e-01,7.29532e-02
3.45039e-01,6.75977e-02
3.56616e-01,6.26211e-02
3.68581e-01,5.79970e-02
3.80948e-01,5.37012e-02
3.93729e-01,4.97108e-02
4.06940e-01,4.60048e-02
4.20594e-01,4.25633e-02
4.34706e-01,3.93680e-02
4.49291e-01,3.64018e-02
4.64366e-01,3.36487e-02
4.79946e-01,3.10939e-02
4.96050e-01,2.87236e-02
5.12693e-01,2.65249e-02
5.29895e-01,2.44858e-02
5.47674e-01,2.25951e-02
5.66050e-01,2.08424e-02
5.85042e-01,1.92180e-02
6.04672e-01,1.77129e-02
6.24960e-01,1.63187e-02
6.45929e-01,1.50276e-02
6.67601e-01,1.38322e-02
6.90001e-01,1.27259e-02
7.13152e-01,1.17022e-02
7.37080e-01,1.07553e-02
7.61811e-01,9.87974e-03
7.87371e-01,9.07038e-03
8.13789e-01,8.32249e-03
8.41094e-01,7.63166e-03
8.69315e-01,6.99376e-03
8.98482e-01,6.40498e-03
9.28628e-01,5.86175e-03
9.59786e-01,5.36075e-03
9.91989e-01,4.89891e-03
1.02527e+00,4.47334e-03
1.05967e+00,4.08139e-03
1.09523e+00,3.72057e-03
1.13197e+00,3.38856e-03
1.16995e+00,3.08323e-03
1.20921e+00,2.80257e-03
1.24978e+00,2.54473e-03
1.29171e+00,2.30798e-03
1.33505e+00,2.09072e-03
1.37985e+00,1.89147e-03
1.42615e+00,1.70882e-03
1.47400e+00,1.54152e-03
1.52345e+00,1.38835e-03
1.57457e+00,1.24821e-03
1.62740e+00,1.12008e-03
1.68200e+00,1.00300e-03
1.73844e+00,8.96101e-04
1.79676e+00,7.98551e-04
1.85705e+00,7.09598e-04
1.91936e+00,6.28540e-04
1.98376e+00,5.54728e-04
2.05032e+00,4.87562e-04
2.11911e+00,4.26488e-04
2.19021e+00,3.70992e-04
2.26370e+00,3.20603e-04
2.33965e+00,2.74883e-04
2.41815e+00,2.33430e-04
2.49928e+00,1.95874e-04
2.58314e+00,1.61872e-04
2.66981e+00,1.31112e-04
2.75939e+00,1.03304e-04
2.85197e+00,7.81827e-05
2.94766e+00,5.55058e-05
3.04657e+00,3.50497e-05
3.14879e+00,1.66102e-05
3.25443e+00,0.00000e+00
