m1=5361.564, m2=41.675, gsp=2.381, rhosp=879.524
fGW[Hz],dPh[rad]
3.67667e-03,1.17474e+04
3.77802e-03,1.10994e+04
3.88216e-03,1.04872e+04
3.98917e-03,9.90860e+03
4.09914e-03,9.36186e+03
4.21213e-03,8.84522e+03
4.32824e-03,8.35701e+03
4.44755e-03,7.89567e+03
4.57015e-03,7.45973e+03
4.69613e-03,7.04779e+03
4.82558e-03,6.65853e+03
4.95860e-03,6.29070e+03
5.09529e-03,5.94312e+03
5.23574e-03,5.61469e+03
5.38007e-03,5.30433e+03
5.52837e-03,5.01107e+03
5.68077e-03,4.73397e+03
5.83736e-03,4.47212e+03
5.99827e-03,4.22470e+03
6.16361e-03,3.99092e+03
6.33352e-03,3.77001e+03
6.50810e-03,3.56127e+03
6.68750e-03,3.36404e+03
6.87185e-03,3.17768e+03
7.06127e-03,3.00159e+03
7.25592e-03,2.83521e+03
7.45594e-03,2.67800e+03
7.66146e-03,2.52946e+03
7.87266e-03,2.38911e+03
8.08967e-03,2.25650e+03
8.31267e-03,2.13121e+03
8.54181e-03,2.01283e+03
8.77727e-03,1.90098e+03
9.01922e-03,1.79530e+03
9.26784e-03,1.69546e+03
9.52331e-03,1.60112e+03
9.78583e-03,1.51200e+03
1.00556e-02,1.42780e+03
1.03328e-02,1.34825e+03
1.06176e-02,1.27309e+03
1.09103e-02,1.20209e+03
1.12110e-02,1.13501e+03
1.15201e-02,1.07164e+03
1.18376e-02,1.01178e+03
1.21639e-02,9.55223e+02
1.24992e-02,9.01797e+02
1.28438e-02,8.51327e+02
1.31978e-02,8.03651e+02
1.35616e-02,7.58615e+02
1.39355e-02,7.16073e+02
1.43196e-02,6.75888e+02
1.47143e-02,6.37930e+02
1.51199e-02,6.02077e+02
1.55367e-02,5.68211e+02
1.59650e-02,5.36224e+02
1.64051e-02,5.06013e+02
1.68573e-02,4.77479e+02
1.73220e-02,4.50529e+02
1.77995e-02,4.25077e+02
1.82901e-02,4.01040e+02
1.87943e-02,3.78340e+02
1.93124e-02,3.56903e+02
1.98447e-02,3.36659e+02
2.03918e-02,3.17542e+02
2.09539e-02,2.99491e+02
2.15315e-02,2.82447e+02
2.21250e-02,2.66353e+02
2.27349e-02,2.51157e+02
2.33616e-02,2.36811e+02
2.40056e-02,2.23266e+02
2.46673e-02,2.10478e+02
2.53473e-02,1.98406e+02
2.60460e-02,1.87011e+02
2.67639e-02,1.76254e+02
2.75017e-02,1.66100e+02
2.82598e-02,1.56517e+02
2.90388e-02,1.47471e+02
2.98393e-02,1.38935e+02
3.06618e-02,1.30879e+02
3.15070e-02,1.23277e+02
3.23755e-02,1.16103e+02
3.32680e-02,1.09334e+02
3.41850e-02,1.02948e+02
3.51273e-02,9.69229e+01
3.60956e-02,9.12390e+01
3.70906e-02,8.58774e+01
3.81131e-02,8.08201e+01
3.91637e-02,7.60503e+01
4.02432e-02,7.15518e+01
4.13526e-02,6.73097e+01
4.24925e-02,6.33096e+01
4.36638e-02,5.95381e+01
4.48674e-02,5.59825e+01
4.61042e-02,5.26306e+01
4.73751e-02,4.94712e+01
4.86810e-02,4.64934e+01
5.00229e-02,4.36872e+01
5.14018e-02,4.10429e+01
5.28188e-02,3.85515e+01
5.42747e-02,3.62043e+01
5.57708e-02,3.39934e+01
5.73082e-02,3.19111e+01
5.88879e-02,2.99501e+01
6.05112e-02,2.81036e+01
6.21792e-02,2.63652e+01
6.38932e-02,2.47288e+01
6.56545e-02,2.31887e+01
6.74643e-02,2.17393e+01
6.93240e-02,2.03756e+01
7.12349e-02,1.90927e+01
7.31986e-02,1.78861e+01
7.52163e-02,1.67513e+01
7.72897e-02,1.56844e+01
7.94202e-02,1.46814e+01
8.16095e-02,1.37388e+01
8.38591e-02,1.28530e+01
8.61707e-02,1.20208e+01
8.85460e-02,1.12391e+01
9.09869e-02,1.05051e+01
9.34950e-02,9.81589e+00
9.60722e-02,9.16902e+00
9.87205e-02,8.56199e+00
1.01442e-01,7.99249e+00
1.04238e-01,7.45835e+00
1.07111e-01,6.95750e+00
1.10064e-01,6.48799e+00
1.13098e-01,6.04800e+00
1.16216e-01,5.63577e+00
1.19419e-01,5.24969e+00
1.22711e-01,4.88820e+00
1.26094e-01,4.54983e+00
1.29569e-01,4.23322e+00
1.33141e-01,3.93707e+00
1.36811e-01,3.66014e+00
1.40582e-01,3.40128e+00
1.44458e-01,3.15940e+00
1.48440e-01,2.93347e+00
1.52532e-01,2.72250e+00
1.56736e-01,2.52560e+00
1.61057e-01,2.34188e+00
1.65496e-01,2.17054e+00
1.70058e-01,2.01081e+00
1.74746e-01,1.86196e+00
1.79563e-01,1.72331e+00
1.84513e-01,1.59422e+00
1.89599e-01,1.47407e+00
1.94825e-01,1.36230e+00
2.00196e-01,1.25838e+00
2.05714e-01,1.16179e+00
2.11385e-01,1.07205e+00
2.17212e-01,9.88727e-01
2.23199e-01,9.11391e-01
2.29352e-01,8.39647e-01
2.35674e-01,7.73123e-01
2.42171e-01,7.11469e-01
2.48846e-01,6.54356e-01
2.55706e-01,6.01476e-01
2.62755e-01,5.52538e-01
2.69998e-01,5.07273e-01
2.77440e-01,4.65424e-01
2.85088e-01,4.26753e-01
2.92947e-01,3.91037e-01
3.01022e-01,3.58066e-01
3.09320e-01,3.27644e-01
3.17846e-01,2.99589e-01
3.26608e-01,2.73729e-01
3.35611e-01,2.49904e-01
3.44862e-01,2.27965e-01
3.54368e-01,2.07773e-01
3.64137e-01,1.89196e-01
3.74174e-01,1.72115e-01
3.84489e-01,1.56417e-01
3.95087e-01,1.41996e-01
4.05978e-01,1.28755e-01
4.17169e-01,1.16602e-01
4.28669e-01,1.05454e-01
4.40485e-01,9.52320e-02
4.52627e-01,8.58631e-02
4.65104e-01,7.72802e-02
4.77925e-01,6.94205e-02
4.91099e-01,6.22263e-02
5.04637e-01,5.56439e-02
5.18547e-01,4.96238e-02
5.32841e-01,4.41201e-02
5.47530e-01,3.90905e-02
5.62622e-01,3.44961e-02
5.78131e-01,3.03006e-02
5.94068e-01,2.64709e-02
6.10444e-01,2.29764e-02
6.27271e-01,1.97888e-02
6.44562e-01,1.68822e-02
6.62330e-01,1.42327e-02
6.80587e-01,1.18183e-02
6.99348e-01,9.61889e-03
7.18626e-01,7.61595e-03
7.38435e-01,5.79246e-03
7.58790e-01,4.13282e-03
7.79707e-01,2.62275e-03
8.01200e-01,1.24914e-03
8.23285e-01,0.00000e+00
