m1=95778.301, m2=3.030, gsp=2.242, rhosp=2211.152
fGW[Hz],dPh[rad]
4.77487e-03,1.23293e+04
4.82948e-03,1.18210e+04
4.88472e-03,1.13334e+04
4.94060e-03,1.08656e+04
4.99711e-03,1.04169e+04
5.05427e-03,9.98639e+03
5.11208e-03,9.57347e+03
5.17055e-03,9.17739e+03
5.22969e-03,8.79748e+03
5.28951e-03,8.43309e+03
5.35002e-03,8.08361e+03
5.41121e-03,7.74842e+03
5.47311e-03,7.42696e+03
5.53571e-03,7.11868e+03
5.59903e-03,6.82303e+03
5.66307e-03,6.53952e+03
5.72785e-03,6.26766e+03
5.79336e-03,6.00696e+03
5.85963e-03,5.75699e+03
5.92666e-03,5.51730e+03
5.99445e-03,5.28748e+03
6.06301e-03,5.06714e+03
6.13236e-03,4.85587e+03
6.20251e-03,4.65332e+03
6.27345e-03,4.45914e+03
6.34521e-03,4.27297e+03
6.41779e-03,4.09450e+03
6.49120e-03,3.92341e+03
6.56545e-03,3.75940e+03
6.64054e-03,3.60218e+03
6.71650e-03,3.45147e+03
6.79332e-03,3.30701e+03
6.87103e-03,3.16853e+03
6.94962e-03,3.03581e+03
7.02911e-03,2.90859e+03
7.10951e-03,2.78666e+03
7.19084e-03,2.66979e+03
7.27309e-03,2.55778e+03
7.35628e-03,2.45043e+03
7.44042e-03,2.34755e+03
7.52553e-03,2.24895e+03
7.61161e-03,2.15446e+03
7.69867e-03,2.06391e+03
7.78673e-03,1.97713e+03
7.87580e-03,1.89397e+03
7.96588e-03,1.81428e+03
8.05700e-03,1.73791e+03
8.14916e-03,1.66474e+03
8.24237e-03,1.59462e+03
8.33665e-03,1.52744e+03
8.43200e-03,1.46306e+03
8.52845e-03,1.40137e+03
8.62600e-03,1.34227e+03
8.72467e-03,1.28564e+03
8.82447e-03,1.23138e+03
8.92540e-03,1.17939e+03
9.02749e-03,1.12959e+03
9.13075e-03,1.08187e+03
9.23519e-03,1.03615e+03
9.34083e-03,9.92347e+02
9.44767e-03,9.50383e+02
9.55574e-03,9.10182e+02
9.66504e-03,8.71668e+02
9.77559e-03,8.34772e+02
9.88741e-03,7.99426e+02
1.00005e-02,7.65565e+02
1.01149e-02,7.33128e+02
1.02306e-02,7.02055e+02
1.03476e-02,6.72289e+02
1.04660e-02,6.43775e+02
1.05857e-02,6.16461e+02
1.07068e-02,5.90298e+02
1.08292e-02,5.65235e+02
1.09531e-02,5.41229e+02
1.10784e-02,5.18234e+02
1.12051e-02,4.96208e+02
1.13333e-02,4.75110e+02
1.14629e-02,4.54902e+02
1.15940e-02,4.35546e+02
1.17266e-02,4.17007e+02
1.18608e-02,3.99250e+02
1.19964e-02,3.82242e+02
1.21336e-02,3.65952e+02
1.22724e-02,3.50350e+02
1.24128e-02,3.35406e+02
1.25548e-02,3.21094e+02
1.26984e-02,3.07387e+02
1.28436e-02,2.94259e+02
1.29906e-02,2.81685e+02
1.31391e-02,2.69643e+02
1.32894e-02,2.58111e+02
1.34414e-02,2.47065e+02
1.35952e-02,2.36488e+02
1.37507e-02,2.26357e+02
1.39080e-02,2.16655e+02
1.40671e-02,2.07364e+02
1.42280e-02,1.98466e+02
1.43907e-02,1.89945e+02
1.45553e-02,1.81784e+02
1.47218e-02,1.73970e+02
1.48902e-02,1.66486e+02
1.50605e-02,1.59319e+02
1.52328e-02,1.52455e+02
1.54070e-02,1.45883e+02
1.55833e-02,1.39589e+02
1.57615e-02,1.33562e+02
1.59418e-02,1.27790e+02
1.61241e-02,1.22263e+02
1.63086e-02,1.16971e+02
1.64951e-02,1.11903e+02
1.66838e-02,1.07050e+02
1.68746e-02,1.02402e+02
1.70676e-02,9.79524e+01
1.72629e-02,9.36911e+01
1.74603e-02,8.96107e+01
1.76600e-02,8.57035e+01
1.78620e-02,8.19621e+01
1.80663e-02,7.83795e+01
1.82730e-02,7.49491e+01
1.84820e-02,7.16643e+01
1.86934e-02,6.85190e+01
1.89072e-02,6.55073e+01
1.91235e-02,6.26235e+01
1.93422e-02,5.98623e+01
1.95635e-02,5.72183e+01
1.97872e-02,5.46867e+01
2.00136e-02,5.22626e+01
2.02425e-02,4.99416e+01
2.04740e-02,4.77192e+01
2.07082e-02,4.55913e+01
2.09451e-02,4.35538e+01
2.11847e-02,4.16030e+01
2.14270e-02,3.97351e+01
2.16721e-02,3.79466e+01
2.19200e-02,3.62342e+01
2.21707e-02,3.45946e+01
2.24243e-02,3.30248e+01
2.26808e-02,3.15217e+01
2.29402e-02,3.00825e+01
2.32026e-02,2.87046e+01
2.34680e-02,2.73853e+01
2.37364e-02,2.61221e+01
2.40079e-02,2.49127e+01
2.42826e-02,2.37548e+01
2.45603e-02,2.26461e+01
2.48412e-02,2.15846e+01
2.51254e-02,2.05683e+01
2.54128e-02,1.95953e+01
2.57034e-02,1.86636e+01
2.59974e-02,1.77717e+01
2.62948e-02,1.69177e+01
2.65956e-02,1.61001e+01
2.68998e-02,1.53172e+01
2.72075e-02,1.45678e+01
2.75187e-02,1.38502e+01
2.78335e-02,1.31632e+01
2.81518e-02,1.25054e+01
2.84738e-02,1.18757e+01
2.87995e-02,1.12728e+01
2.91289e-02,1.06956e+01
2.94621e-02,1.01429e+01
2.97991e-02,9.61385e+00
3.01400e-02,9.10730e+00
3.04847e-02,8.62233e+00
3.08334e-02,8.15802e+00
3.11861e-02,7.71350e+00
3.15428e-02,7.28791e+00
3.19036e-02,6.88047e+00
3.22685e-02,6.49038e+00
3.26376e-02,6.11692e+00
3.30109e-02,5.75938e+00
3.33885e-02,5.41708e+00
3.37704e-02,5.08936e+00
3.41567e-02,4.77562e+00
3.45474e-02,4.47525e+00
3.49426e-02,4.18768e+00
3.53423e-02,3.91237e+00
3.57465e-02,3.64880e+00
3.61554e-02,3.39646e+00
3.65689e-02,3.15489e+00
3.69872e-02,2.92361e+00
3.74103e-02,2.70219e+00
3.78382e-02,2.49022e+00
3.82710e-02,2.28728e+00
3.87088e-02,2.09300e+00
3.91515e-02,1.90700e+00
3.95994e-02,1.72893e+00
4.00523e-02,1.55846e+00
4.05104e-02,1.39526e+00
4.09738e-02,1.23902e+00
4.14425e-02,1.08944e+00
4.19165e-02,9.46240e-01
4.23960e-02,8.09149e-01
4.28809e-02,6.77906e-01
4.33714e-02,5.52260e-01
4.38675e-02,4.31975e-01
4.43693e-02,3.16820e-01
4.48768e-02,2.06577e-01
4.53901e-02,1.01037e-01
4.59093e-02,0.00000e+00
