m1=51315.420, m2=27.166, gsp=2.113, rhosp=3995.217
fGW[Hz],dPh[rad]
2.45198e-03,1.25873e+03
2.49617e-03,1.20210e+03
2.54115e-03,1.14790e+03
2.58694e-03,1.09602e+03
2.63356e-03,1.04636e+03
2.68102e-03,9.98836e+02
2.72933e-03,9.53360e+02
2.77851e-03,9.09846e+02
2.82858e-03,8.68214e+02
2.87955e-03,8.28386e+02
2.93144e-03,7.90286e+02
2.98427e-03,7.53844e+02
3.03804e-03,7.18991e+02
3.09279e-03,6.85661e+02
3.14852e-03,6.53790e+02
3.20526e-03,6.23317e+02
3.26301e-03,5.94185e+02
3.32181e-03,5.66337e+02
3.38167e-03,5.39720e+02
3.44261e-03,5.14282e+02
3.50465e-03,4.89973e+02
3.56780e-03,4.66746e+02
3.63209e-03,4.44556e+02
3.69754e-03,4.23358e+02
3.76417e-03,4.03112e+02
3.83200e-03,3.83775e+02
3.90106e-03,3.65311e+02
3.97135e-03,3.47681e+02
4.04292e-03,3.30851e+02
4.11577e-03,3.14786e+02
4.18994e-03,2.99454e+02
4.26544e-03,2.84822e+02
4.34231e-03,2.70862e+02
4.42055e-03,2.57543e+02
4.50021e-03,2.44839e+02
4.58131e-03,2.32723e+02
4.66386e-03,2.21169e+02
4.74790e-03,2.10153e+02
4.83346e-03,1.99651e+02
4.92056e-03,1.89641e+02
5.00923e-03,1.80102e+02
5.09950e-03,1.71013e+02
5.19139e-03,1.62353e+02
5.28494e-03,1.54105e+02
5.38017e-03,1.46249e+02
5.47713e-03,1.38769e+02
5.57582e-03,1.31647e+02
5.67630e-03,1.24868e+02
5.77859e-03,1.18417e+02
5.88272e-03,1.12277e+02
5.98872e-03,1.06437e+02
6.09664e-03,1.00881e+02
6.20650e-03,9.55971e+01
6.31834e-03,9.05729e+01
6.43220e-03,8.57965e+01
6.54811e-03,8.12566e+01
6.66611e-03,7.69422e+01
6.78623e-03,7.28429e+01
6.90852e-03,6.89487e+01
7.03301e-03,6.52501e+01
7.15975e-03,6.17381e+01
7.28877e-03,5.84037e+01
7.42011e-03,5.52388e+01
7.55382e-03,5.22352e+01
7.68994e-03,4.93853e+01
7.82851e-03,4.66818e+01
7.96958e-03,4.41178e+01
8.11320e-03,4.16865e+01
8.25940e-03,3.93815e+01
8.40823e-03,3.71968e+01
8.55975e-03,3.51265e+01
8.71399e-03,3.31649e+01
8.87102e-03,3.13069e+01
9.03088e-03,2.95472e+01
9.19361e-03,2.78811e+01
9.35928e-03,2.63039e+01
9.52794e-03,2.48112e+01
9.69963e-03,2.33987e+01
9.87442e-03,2.20625e+01
1.00524e-02,2.07986e+01
1.02335e-02,1.96034e+01
1.04179e-02,1.84735e+01
1.06056e-02,1.74054e+01
1.07968e-02,1.63961e+01
1.09913e-02,1.54425e+01
1.11894e-02,1.45416e+01
1.13910e-02,1.36908e+01
1.15963e-02,1.28875e+01
1.18052e-02,1.21291e+01
1.20180e-02,1.14133e+01
1.22345e-02,1.07379e+01
1.24550e-02,1.01006e+01
1.26794e-02,9.49956e+00
1.29079e-02,8.93271e+00
1.31405e-02,8.39825e+00
1.33773e-02,7.89443e+00
1.36184e-02,7.41958e+00
1.38638e-02,6.97214e+00
1.41136e-02,6.55060e+00
1.43679e-02,6.15354e+00
1.46269e-02,5.77961e+00
1.48904e-02,5.42754e+00
1.51588e-02,5.09610e+00
1.54319e-02,4.78415e+00
1.57100e-02,4.49060e+00
1.59931e-02,4.21442e+00
1.62813e-02,3.95462e+00
1.65747e-02,3.71027e+00
1.68734e-02,3.48050e+00
1.71774e-02,3.26448e+00
1.74870e-02,3.06142e+00
1.78021e-02,2.87058e+00
1.81229e-02,2.69124e+00
1.84494e-02,2.52275e+00
1.87819e-02,2.36448e+00
1.91203e-02,2.21583e+00
1.94649e-02,2.07623e+00
1.98157e-02,1.94517e+00
2.01727e-02,1.82213e+00
2.05363e-02,1.70664e+00
2.09063e-02,1.59825e+00
2.12830e-02,1.49655e+00
2.16666e-02,1.40114e+00
2.20570e-02,1.31163e+00
2.24545e-02,1.22768e+00
2.28591e-02,1.14895e+00
2.32710e-02,1.07513e+00
2.36904e-02,1.00592e+00
2.41173e-02,9.41036e-01
2.45519e-02,8.80224e-01
2.49943e-02,8.23232e-01
2.54447e-02,7.69827e-01
2.59032e-02,7.19789e-01
2.63700e-02,6.72913e-01
2.68452e-02,6.29002e-01
2.73289e-02,5.87875e-01
2.78214e-02,5.49359e-01
2.83227e-02,5.13293e-01
2.88331e-02,4.79524e-01
2.93527e-02,4.47909e-01
2.98816e-02,4.18315e-01
3.04201e-02,3.90614e-01
3.09683e-02,3.64689e-01
3.15263e-02,3.40428e-01
3.20944e-02,3.17725e-01
3.26728e-02,2.96484e-01
3.32615e-02,2.76612e-01
3.38609e-02,2.58022e-01
3.44711e-02,2.40633e-01
3.50922e-02,2.24369e-01
3.57246e-02,2.09158e-01
3.63684e-02,1.94934e-01
3.70237e-02,1.81633e-01
3.76909e-02,1.69196e-01
3.83701e-02,1.57569e-01
3.90615e-02,1.46699e-01
3.97654e-02,1.36538e-01
4.04820e-02,1.27040e-01
4.12115e-02,1.18162e-01
4.19541e-02,1.09865e-01
4.27101e-02,1.02111e-01
4.34798e-02,9.48651e-02
4.42633e-02,8.80943e-02
4.50609e-02,8.17680e-02
4.58729e-02,7.58572e-02
4.66995e-02,7.03350e-02
4.75410e-02,6.51761e-02
4.83977e-02,6.03569e-02
4.92699e-02,5.58553e-02
5.01577e-02,5.16506e-02
5.10616e-02,4.77234e-02
5.19817e-02,4.40555e-02
5.29184e-02,4.06300e-02
5.38720e-02,3.74311e-02
5.48428e-02,3.44438e-02
5.58310e-02,3.16543e-02
5.68371e-02,2.90497e-02
5.78613e-02,2.66177e-02
5.89040e-02,2.43471e-02
5.99654e-02,2.22272e-02
6.10460e-02,2.02481e-02
6.21461e-02,1.84004e-02
6.32659e-02,1.66756e-02
6.44060e-02,1.50656e-02
6.55666e-02,1.35626e-02
6.67481e-02,1.21598e-02
6.79509e-02,1.08503e-02
6.91754e-02,9.62819e-03
7.04219e-02,8.48752e-03
7.16909e-02,7.42292e-03
7.29828e-02,6.42937e-03
7.42980e-02,5.50214e-03
7.56368e-02,4.63683e-03
7.69998e-02,3.82933e-03
7.83873e-02,3.07579e-03
7.97999e-02,2.37264e-03
8.12379e-02,1.71651e-03
8.27018e-02,1.10427e-03
8.41921e-02,5.33015e-04
8.57092e-02,0.00000e+00
