m1=61413.766, m2=10.715, gsp=2.096, rhosp=22.889
fGW[Hz],dPh[rad]
3.32287e-03,3.49750e+02
3.37453e-03,3.33608e+02
3.42700e-03,3.18165e+02
3.48028e-03,3.03394e+02
3.53440e-03,2.89268e+02
3.58935e-03,2.75759e+02
3.64516e-03,2.62843e+02
3.70183e-03,2.50497e+02
3.75939e-03,2.38695e+02
3.81784e-03,2.27417e+02
3.87721e-03,2.16641e+02
3.93749e-03,2.06345e+02
3.99871e-03,1.96510e+02
4.06088e-03,1.87117e+02
4.12402e-03,1.78147e+02
4.18815e-03,1.69582e+02
4.25326e-03,1.61406e+02
4.31940e-03,1.53602e+02
4.38656e-03,1.46154e+02
4.45476e-03,1.39048e+02
4.52402e-03,1.32268e+02
4.59436e-03,1.25800e+02
4.66580e-03,1.19632e+02
4.73834e-03,1.13749e+02
4.81202e-03,1.08141e+02
4.88684e-03,1.02795e+02
4.96282e-03,9.76988e+01
5.03998e-03,9.28424e+01
5.11835e-03,8.82151e+01
5.19793e-03,8.38067e+01
5.27875e-03,7.96076e+01
5.36082e-03,7.56083e+01
5.44417e-03,7.18001e+01
5.52882e-03,6.81744e+01
5.61479e-03,6.47230e+01
5.70209e-03,6.14379e+01
5.79075e-03,5.83118e+01
5.88078e-03,5.53373e+01
5.97222e-03,5.25076e+01
6.06508e-03,4.98160e+01
6.15938e-03,4.72562e+01
6.25515e-03,4.48221e+01
6.35240e-03,4.25079e+01
6.45117e-03,4.03080e+01
6.55148e-03,3.82171e+01
6.65334e-03,3.62301e+01
6.75679e-03,3.43421e+01
6.86185e-03,3.25485e+01
6.96854e-03,3.08448e+01
7.07689e-03,2.92267e+01
7.18692e-03,2.76902e+01
7.29867e-03,2.62313e+01
7.41215e-03,2.48464e+01
7.52740e-03,2.35318e+01
7.64443e-03,2.22842e+01
7.76329e-03,2.11003e+01
7.88400e-03,1.99771e+01
8.00658e-03,1.89116e+01
8.13107e-03,1.79009e+01
8.25750e-03,1.69424e+01
8.38589e-03,1.60334e+01
8.51627e-03,1.51717e+01
8.64869e-03,1.43547e+01
8.78316e-03,1.35803e+01
8.91972e-03,1.28464e+01
9.05841e-03,1.21509e+01
9.19925e-03,1.14919e+01
9.34229e-03,1.08675e+01
9.48754e-03,1.02761e+01
9.63506e-03,9.71593e+00
9.78487e-03,9.18543e+00
9.93701e-03,8.68308e+00
1.00915e-02,8.20745e+00
1.02484e-02,7.75716e+00
1.04078e-02,7.33091e+00
1.05696e-02,6.92748e+00
1.07339e-02,6.54567e+00
1.09008e-02,6.18438e+00
1.10703e-02,5.84253e+00
1.12424e-02,5.51911e+00
1.14172e-02,5.21317e+00
1.15948e-02,4.92378e+00
1.17750e-02,4.65009e+00
1.19581e-02,4.39126e+00
1.21440e-02,4.14652e+00
1.23329e-02,3.91511e+00
1.25246e-02,3.69634e+00
1.27194e-02,3.48953e+00
1.29171e-02,3.29405e+00
1.31180e-02,3.10929e+00
1.33219e-02,2.93469e+00
1.35291e-02,2.76969e+00
1.37394e-02,2.61379e+00
1.39530e-02,2.46649e+00
1.41700e-02,2.32733e+00
1.43903e-02,2.19588e+00
1.46141e-02,2.07171e+00
1.48413e-02,1.95443e+00
1.50720e-02,1.84368e+00
1.53064e-02,1.73908e+00
1.55444e-02,1.64032e+00
1.57861e-02,1.54706e+00
1.60315e-02,1.45902e+00
1.62808e-02,1.37590e+00
1.65339e-02,1.29743e+00
1.67910e-02,1.22336e+00
1.70521e-02,1.15345e+00
1.73172e-02,1.08747e+00
1.75864e-02,1.02520e+00
1.78599e-02,9.66437e-01
1.81376e-02,9.10986e-01
1.84196e-02,8.58663e-01
1.87060e-02,8.09296e-01
1.89968e-02,7.62721e-01
1.92922e-02,7.18781e-01
1.95922e-02,6.77330e-01
1.98968e-02,6.38229e-01
2.02061e-02,6.01348e-01
2.05203e-02,5.66561e-01
2.08394e-02,5.33752e-01
2.11634e-02,5.02810e-01
2.14924e-02,4.73629e-01
2.18266e-02,4.46112e-01
2.21660e-02,4.20164e-01
2.25106e-02,3.95698e-01
2.28606e-02,3.72629e-01
2.32161e-02,3.50879e-01
2.35770e-02,3.30372e-01
2.39436e-02,3.11040e-01
2.43159e-02,2.92816e-01
2.46940e-02,2.75636e-01
2.50779e-02,2.59441e-01
2.54679e-02,2.44177e-01
2.58638e-02,2.29789e-01
2.62660e-02,2.16227e-01
2.66744e-02,2.03446e-01
2.70891e-02,1.91400e-01
2.75103e-02,1.80048e-01
2.79380e-02,1.69349e-01
2.83724e-02,1.59268e-01
2.88136e-02,1.49767e-01
2.92616e-02,1.40815e-01
2.97165e-02,1.32380e-01
3.01786e-02,1.24431e-01
3.06478e-02,1.16942e-01
3.11243e-02,1.09886e-01
3.16083e-02,1.03238e-01
3.20997e-02,9.69752e-02
3.25988e-02,9.10746e-02
3.31057e-02,8.55157e-02
3.36204e-02,8.02789e-02
3.41432e-02,7.53456e-02
3.46740e-02,7.06984e-02
3.52132e-02,6.63208e-02
3.57607e-02,6.21972e-02
3.63167e-02,5.83130e-02
3.68814e-02,5.46544e-02
3.74548e-02,5.12084e-02
3.80372e-02,4.79626e-02
3.86286e-02,4.49055e-02
3.92292e-02,4.20262e-02
3.98391e-02,3.93144e-02
4.04586e-02,3.67604e-02
4.10876e-02,3.43551e-02
4.17265e-02,3.20898e-02
4.23752e-02,2.99565e-02
4.30341e-02,2.79474e-02
4.37032e-02,2.60555e-02
4.43827e-02,2.42738e-02
4.50728e-02,2.25960e-02
4.57736e-02,2.10161e-02
4.64853e-02,1.95284e-02
4.72081e-02,1.81274e-02
4.79421e-02,1.68083e-02
4.86875e-02,1.55661e-02
4.94445e-02,1.43965e-02
5.02133e-02,1.32952e-02
5.09940e-02,1.22582e-02
5.17869e-02,1.12819e-02
5.25921e-02,1.03626e-02
5.34098e-02,9.49699e-03
5.42403e-02,8.68204e-03
5.50836e-02,7.91474e-03
5.59401e-02,7.19232e-03
5.68099e-02,6.51217e-03
5.76932e-02,5.87181e-03
5.85902e-02,5.26892e-03
5.95012e-02,4.70133e-03
6.04263e-02,4.16696e-03
6.13658e-02,3.66388e-03
6.23200e-02,3.19027e-03
6.32890e-02,2.74439e-03
6.42730e-02,2.32463e-03
6.52723e-02,1.92946e-03
6.62872e-02,1.55745e-03
6.73179e-02,1.20724e-03
6.83645e-02,8.77554e-04
6.94275e-02,5.67196e-04
7.05070e-02,2.75032e-04
7.16033e-02,0.00000e+00
