m1=139271.756, m2=38.645, gsp=2.307, rhosp=13.690
fGW[Hz],dPh[rad]
1.67379e-03,7.38218e+03
1.69868e-03,7.07206e+03
1.72394e-03,6.77409e+03
1.74957e-03,6.48783e+03
1.77559e-03,6.21285e+03
1.80199e-03,5.94875e+03
1.82878e-03,5.69512e+03
1.85598e-03,5.45159e+03
1.88358e-03,5.21779e+03
1.91159e-03,4.99336e+03
1.94001e-03,4.77794e+03
1.96886e-03,4.57122e+03
1.99813e-03,4.37286e+03
2.02785e-03,4.18256e+03
2.05800e-03,4.00000e+03
2.08860e-03,3.82491e+03
2.11966e-03,3.65700e+03
2.15118e-03,3.49599e+03
2.18317e-03,3.34163e+03
2.21563e-03,3.19367e+03
2.24857e-03,3.05185e+03
2.28201e-03,2.91595e+03
2.31594e-03,2.78573e+03
2.35038e-03,2.66098e+03
2.38533e-03,2.54148e+03
2.42080e-03,2.42702e+03
2.45680e-03,2.31742e+03
2.49333e-03,2.21249e+03
2.53041e-03,2.11203e+03
2.56803e-03,2.01587e+03
2.60622e-03,1.92384e+03
2.64497e-03,1.83577e+03
2.68430e-03,1.75151e+03
2.72422e-03,1.67091e+03
2.76473e-03,1.59382e+03
2.80584e-03,1.52009e+03
2.84756e-03,1.44958e+03
2.88990e-03,1.38218e+03
2.93287e-03,1.31775e+03
2.97649e-03,1.25616e+03
3.02075e-03,1.19731e+03
3.06566e-03,1.14107e+03
3.11125e-03,1.08734e+03
3.15751e-03,1.03602e+03
3.20446e-03,9.87003e+02
3.25211e-03,9.40193e+02
3.30047e-03,8.95497e+02
3.34955e-03,8.52826e+02
3.39936e-03,8.12094e+02
3.44991e-03,7.73218e+02
3.50120e-03,7.36119e+02
3.55327e-03,7.00721e+02
3.60610e-03,6.66950e+02
3.65973e-03,6.34736e+02
3.71414e-03,6.04010e+02
3.76937e-03,5.74710e+02
3.82542e-03,5.46771e+02
3.88231e-03,5.20135e+02
3.94004e-03,4.94744e+02
3.99862e-03,4.70542e+02
4.05808e-03,4.47478e+02
4.11843e-03,4.25500e+02
4.17967e-03,4.04561e+02
4.24182e-03,3.84613e+02
4.30489e-03,3.65612e+02
4.36890e-03,3.47515e+02
4.43387e-03,3.30282e+02
4.49980e-03,3.13873e+02
4.56671e-03,2.98251e+02
4.63462e-03,2.83379e+02
4.70353e-03,2.69224e+02
4.77347e-03,2.55752e+02
4.84445e-03,2.42932e+02
4.91649e-03,2.30734e+02
4.98960e-03,2.19129e+02
5.06379e-03,2.08089e+02
5.13909e-03,1.97588e+02
5.21551e-03,1.87601e+02
5.29306e-03,1.78103e+02
5.37177e-03,1.69072e+02
5.45165e-03,1.60486e+02
5.53271e-03,1.52323e+02
5.61498e-03,1.44564e+02
5.69847e-03,1.37188e+02
5.78321e-03,1.30179e+02
5.86921e-03,1.23518e+02
5.95648e-03,1.17189e+02
6.04505e-03,1.11176e+02
6.13494e-03,1.05463e+02
6.22617e-03,1.00036e+02
6.31875e-03,9.48811e+01
6.41271e-03,8.99854e+01
6.50806e-03,8.53361e+01
6.60484e-03,8.09211e+01
6.70305e-03,7.67290e+01
6.80272e-03,7.27489e+01
6.90388e-03,6.89704e+01
7.00654e-03,6.53836e+01
7.11072e-03,6.19790e+01
7.21646e-03,5.87476e+01
7.32376e-03,5.56808e+01
7.43267e-03,5.27705e+01
7.54319e-03,5.00090e+01
7.65536e-03,4.73887e+01
7.76919e-03,4.49027e+01
7.88472e-03,4.25442e+01
8.00196e-03,4.03068e+01
8.12095e-03,3.81846e+01
8.24171e-03,3.61716e+01
8.36426e-03,3.42624e+01
8.48863e-03,3.24518e+01
8.61486e-03,3.07348e+01
8.74296e-03,2.91066e+01
8.87296e-03,2.75627e+01
9.00490e-03,2.60990e+01
9.13881e-03,2.47112e+01
9.27470e-03,2.33955e+01
9.41261e-03,2.21483e+01
9.55257e-03,2.09661e+01
9.69462e-03,1.98455e+01
9.83878e-03,1.87833e+01
9.98508e-03,1.77767e+01
1.01336e-02,1.68226e+01
1.02842e-02,1.59185e+01
1.04372e-02,1.50618e+01
1.05924e-02,1.42500e+01
1.07499e-02,1.34807e+01
1.09097e-02,1.27519e+01
1.10719e-02,1.20614e+01
1.12366e-02,1.14072e+01
1.14037e-02,1.07874e+01
1.15732e-02,1.02003e+01
1.17453e-02,9.64415e+00
1.19200e-02,9.11734e+00
1.20972e-02,8.61835e+00
1.22771e-02,8.14573e+00
1.24597e-02,7.69810e+00
1.26449e-02,7.27416e+00
1.28330e-02,6.87266e+00
1.30238e-02,6.49244e+00
1.32175e-02,6.13238e+00
1.34140e-02,5.79142e+00
1.36135e-02,5.46856e+00
1.38159e-02,5.16285e+00
1.40213e-02,4.87338e+00
1.42298e-02,4.59931e+00
1.44414e-02,4.33983e+00
1.46562e-02,4.09416e+00
1.48741e-02,3.86157e+00
1.50953e-02,3.64138e+00
1.53197e-02,3.43293e+00
1.55475e-02,3.23560e+00
1.57787e-02,3.04881e+00
1.60134e-02,2.87199e+00
1.62515e-02,2.70461e+00
1.64931e-02,2.54618e+00
1.67384e-02,2.39623e+00
1.69873e-02,2.25430e+00
1.72399e-02,2.11996e+00
1.74962e-02,1.99281e+00
1.77564e-02,1.87248e+00
1.80204e-02,1.75859e+00
1.82884e-02,1.65081e+00
1.85603e-02,1.54881e+00
1.88363e-02,1.45228e+00
1.91164e-02,1.36094e+00
1.94007e-02,1.27449e+00
1.96892e-02,1.19269e+00
1.99819e-02,1.11528e+00
2.02791e-02,1.04204e+00
2.05806e-02,9.72728e-01
2.08866e-02,9.07146e-01
2.11972e-02,8.45092e-01
2.15124e-02,7.86377e-01
2.18323e-02,7.30822e-01
2.21569e-02,6.78259e-01
2.24864e-02,6.28526e-01
2.28208e-02,5.81472e-01
2.31601e-02,5.36954e-01
2.35045e-02,4.94835e-01
2.38540e-02,4.54987e-01
2.42087e-02,4.17288e-01
2.45687e-02,3.81622e-01
2.49340e-02,3.47880e-01
2.53048e-02,3.15960e-01
2.56811e-02,2.85762e-01
2.60629e-02,2.57195e-01
2.64505e-02,2.30170e-01
2.68438e-02,2.04605e-01
2.72430e-02,1.80421e-01
2.76481e-02,1.57544e-01
2.80592e-02,1.35903e-01
2.84764e-02,1.15432e-01
2.88999e-02,9.60682e-02
2.93296e-02,7.77511e-02
2.97657e-02,6.04248e-02
3.02083e-02,4.40357e-02
3.06575e-02,2.85333e-02
3.11134e-02,1.38699e-02
3.15760e-02,0.00000e+00
