m1=1883.964, m2=12.331, gsp=2.481, rhosp=193.996
fGW[Hz],dPh[rad]
7.53818e-03,9.43631e+04
7.75872e-03,8.90278e+04
7.98572e-03,8.39935e+04
8.21936e-03,7.92434e+04
8.45983e-03,7.47614e+04
8.70734e-03,7.05324e+04
8.96209e-03,6.65421e+04
9.22429e-03,6.27771e+04
9.49417e-03,5.92245e+04
9.77194e-03,5.58726e+04
1.00578e-02,5.27099e+04
1.03521e-02,4.97257e+04
1.06550e-02,4.69101e+04
1.09667e-02,4.42534e+04
1.12875e-02,4.17467e+04
1.16178e-02,3.93816e+04
1.19577e-02,3.71501e+04
1.23075e-02,3.50446e+04
1.26676e-02,3.30581e+04
1.30382e-02,3.11837e+04
1.34197e-02,2.94152e+04
1.38123e-02,2.77467e+04
1.42164e-02,2.61724e+04
1.46323e-02,2.46871e+04
1.50604e-02,2.32857e+04
1.55011e-02,2.19635e+04
1.59546e-02,2.07160e+04
1.64214e-02,1.95391e+04
1.69018e-02,1.84287e+04
1.73963e-02,1.73810e+04
1.79053e-02,1.63926e+04
1.84291e-02,1.54601e+04
1.89683e-02,1.45804e+04
1.95232e-02,1.37504e+04
2.00944e-02,1.29674e+04
2.06823e-02,1.22286e+04
2.12874e-02,1.15317e+04
2.19102e-02,1.08742e+04
2.25513e-02,1.02539e+04
2.32111e-02,9.66880e+03
2.38901e-02,9.11678e+03
2.45891e-02,8.59603e+03
2.53085e-02,8.10478e+03
2.60489e-02,7.64137e+03
2.68111e-02,7.20421e+03
2.75955e-02,6.79184e+03
2.84028e-02,6.40284e+03
2.92338e-02,6.03590e+03
3.00891e-02,5.68978e+03
3.09694e-02,5.36329e+03
3.18755e-02,5.05534e+03
3.28081e-02,4.76486e+03
3.37679e-02,4.49088e+03
3.47559e-02,4.23246e+03
3.57727e-02,3.98872e+03
3.68193e-02,3.75884e+03
3.78966e-02,3.54203e+03
3.90053e-02,3.33755e+03
4.01465e-02,3.14470e+03
4.13210e-02,2.96283e+03
4.25300e-02,2.79132e+03
4.37743e-02,2.62958e+03
4.50550e-02,2.47705e+03
4.63731e-02,2.33323e+03
4.77299e-02,2.19760e+03
4.91263e-02,2.06972e+03
5.05636e-02,1.94914e+03
5.20429e-02,1.83545e+03
5.35655e-02,1.72826e+03
5.51327e-02,1.62720e+03
5.67457e-02,1.53192e+03
5.84059e-02,1.44210e+03
6.01147e-02,1.35743e+03
6.18735e-02,1.27761e+03
6.36837e-02,1.20238e+03
6.55469e-02,1.13146e+03
6.74646e-02,1.06462e+03
6.94384e-02,1.00163e+03
7.14700e-02,9.42260e+02
7.35610e-02,8.86314e+02
7.57131e-02,8.33594e+02
7.79283e-02,7.83918e+02
8.02082e-02,7.37113e+02
8.25548e-02,6.93015e+02
8.49702e-02,6.51471e+02
8.74561e-02,6.12335e+02
9.00148e-02,5.75471e+02
9.26484e-02,5.40749e+02
9.53590e-02,5.08048e+02
9.81489e-02,4.77252e+02
1.01020e-01,4.48252e+02
1.03976e-01,4.20947e+02
1.07018e-01,3.95239e+02
1.10149e-01,3.71038e+02
1.13372e-01,3.48257e+02
1.16689e-01,3.26816e+02
1.20103e-01,3.06637e+02
1.23616e-01,2.87649e+02
1.27233e-01,2.69783e+02
1.30955e-01,2.52975e+02
1.34787e-01,2.37164e+02
1.38730e-01,2.22293e+02
1.42789e-01,2.08309e+02
1.46967e-01,1.95159e+02
1.51266e-01,1.82797e+02
1.55692e-01,1.71176e+02
1.60247e-01,1.60254e+02
1.64935e-01,1.49991e+02
1.69761e-01,1.40348e+02
1.74728e-01,1.31290e+02
1.79840e-01,1.22783e+02
1.85101e-01,1.14794e+02
1.90517e-01,1.07294e+02
1.96091e-01,1.00254e+02
2.01828e-01,9.36472e+01
2.07733e-01,8.74486e+01
2.13810e-01,8.16340e+01
2.20066e-01,7.61811e+01
2.26504e-01,7.10685e+01
2.33131e-01,6.62763e+01
2.39952e-01,6.17854e+01
2.46972e-01,5.75782e+01
2.54197e-01,5.36377e+01
2.61634e-01,4.99482e+01
2.69289e-01,4.64946e+01
2.77168e-01,4.32628e+01
2.85277e-01,4.02397e+01
2.93623e-01,3.74125e+01
3.02214e-01,3.47696e+01
3.11055e-01,3.22997e+01
3.20156e-01,2.99923e+01
3.29523e-01,2.78375e+01
3.39164e-01,2.58260e+01
3.49087e-01,2.39490e+01
3.59300e-01,2.21982e+01
3.69812e-01,2.05657e+01
3.80631e-01,1.90442e+01
3.91767e-01,1.76267e+01
4.03229e-01,1.63068e+01
4.15027e-01,1.50781e+01
4.27169e-01,1.39350e+01
4.39667e-01,1.28720e+01
4.52530e-01,1.18839e+01
4.65770e-01,1.09659e+01
4.79397e-01,1.01134e+01
4.93422e-01,9.32212e+00
5.07858e-01,8.58809e+00
5.22717e-01,7.90749e+00
5.38010e-01,7.27675e+00
5.53750e-01,6.69253e+00
5.69951e-01,6.15168e+00
5.86627e-01,5.65126e+00
6.03789e-01,5.18849e+00
6.21454e-01,4.76078e+00
6.39636e-01,4.36569e+00
6.58350e-01,4.00093e+00
6.77611e-01,3.66435e+00
6.97436e-01,3.35397e+00
7.17841e-01,3.06789e+00
7.38843e-01,2.80437e+00
7.60459e-01,2.56177e+00
7.82708e-01,2.33854e+00
8.05608e-01,2.13325e+00
8.29177e-01,1.94458e+00
8.53437e-01,1.77127e+00
8.78405e-01,1.61216e+00
9.04105e-01,1.46616e+00
9.30556e-01,1.33228e+00
9.57782e-01,1.20957e+00
9.85803e-01,1.09715e+00
1.01464e+00,9.94232e-01
1.04433e+00,9.00050e-01
1.07488e+00,8.13911e-01
1.10633e+00,7.35167e-01
1.13870e+00,6.63220e-01
1.17201e+00,5.97517e-01
1.20630e+00,5.37545e-01
1.24160e+00,4.82831e-01
1.27792e+00,4.32936e-01
1.31531e+00,3.87459e-01
1.35379e+00,3.46026e-01
1.39340e+00,3.08295e-01
1.43417e+00,2.73950e-01
1.47613e+00,2.42700e-01
1.51931e+00,2.14279e-01
1.56376e+00,1.88440e-01
1.60952e+00,1.64959e-01
1.65660e+00,1.43628e-01
1.70507e+00,1.24258e-01
1.75496e+00,1.06674e-01
1.80630e+00,9.07189e-02
1.85915e+00,7.62453e-02
1.91354e+00,6.31205e-02
1.96953e+00,5.12225e-02
2.02715e+00,4.04401e-02
2.08646e+00,3.06715e-02
2.14750e+00,2.18242e-02
2.21033e+00,1.38134e-02
2.27500e+00,6.56212e-03
2.34156e+00,0.00000e+00
