m1=1202.076, m2=30.170, gsp=2.490, rhosp=7237.104
fGW[Hz],dPh[rad]
6.04414e-03,4.85960e+04
6.24224e-03,4.55494e+04
6.44684e-03,4.26938e+04
6.65815e-03,4.00171e+04
6.87638e-03,3.75082e+04
7.10177e-03,3.51565e+04
7.33454e-03,3.29522e+04
7.57494e-03,3.08860e+04
7.82322e-03,2.89494e+04
8.07964e-03,2.71342e+04
8.34447e-03,2.54327e+04
8.61797e-03,2.38378e+04
8.90044e-03,2.23430e+04
9.19216e-03,2.09418e+04
9.49345e-03,1.96284e+04
9.80462e-03,1.83974e+04
1.01260e-02,1.72435e+04
1.04579e-02,1.61620e+04
1.08006e-02,1.51482e+04
1.11547e-02,1.41980e+04
1.15203e-02,1.33074e+04
1.18979e-02,1.24725e+04
1.22878e-02,1.16901e+04
1.26906e-02,1.09566e+04
1.31065e-02,1.02692e+04
1.35361e-02,9.62481e+03
1.39798e-02,9.02085e+03
1.44380e-02,8.45474e+03
1.49112e-02,7.92413e+03
1.54000e-02,7.42678e+03
1.59048e-02,6.96062e+03
1.64261e-02,6.52368e+03
1.69644e-02,6.11413e+03
1.75205e-02,5.73027e+03
1.80947e-02,5.37047e+03
1.86878e-02,5.03323e+03
1.93004e-02,4.71714e+03
1.99330e-02,4.42087e+03
2.05863e-02,4.14318e+03
2.12610e-02,3.88290e+03
2.19579e-02,3.63895e+03
2.26776e-02,3.41029e+03
2.34209e-02,3.19598e+03
2.41886e-02,2.99511e+03
2.49814e-02,2.80683e+03
2.58002e-02,2.63037e+03
2.66458e-02,2.46497e+03
2.75192e-02,2.30995e+03
2.84212e-02,2.16466e+03
2.93527e-02,2.02848e+03
3.03148e-02,1.90085e+03
3.13085e-02,1.78122e+03
3.23346e-02,1.66910e+03
3.33945e-02,1.56402e+03
3.44890e-02,1.46553e+03
3.56195e-02,1.37322e+03
3.67869e-02,1.28671e+03
3.79927e-02,1.20563e+03
3.92380e-02,1.12963e+03
4.05241e-02,1.05841e+03
4.18523e-02,9.91663e+02
4.32241e-02,9.29105e+02
4.46408e-02,8.70476e+02
4.61040e-02,8.15529e+02
4.76151e-02,7.64034e+02
4.91758e-02,7.15774e+02
5.07876e-02,6.70546e+02
5.24523e-02,6.28160e+02
5.41715e-02,5.88438e+02
5.59470e-02,5.51212e+02
5.77808e-02,5.16327e+02
5.96747e-02,4.83636e+02
6.16306e-02,4.53000e+02
6.36506e-02,4.24291e+02
6.57369e-02,3.97388e+02
6.78915e-02,3.72178e+02
7.01168e-02,3.48555e+02
7.24150e-02,3.26418e+02
7.47885e-02,3.05675e+02
7.72398e-02,2.86239e+02
7.97715e-02,2.68027e+02
8.23861e-02,2.50962e+02
8.50865e-02,2.34973e+02
8.78753e-02,2.19991e+02
9.07556e-02,2.05955e+02
9.37302e-02,1.92804e+02
9.68024e-02,1.80482e+02
9.99753e-02,1.68939e+02
1.03252e-01,1.58124e+02
1.06636e-01,1.47992e+02
1.10132e-01,1.38501e+02
1.13741e-01,1.29609e+02
1.17469e-01,1.21280e+02
1.21320e-01,1.13478e+02
1.25296e-01,1.06170e+02
1.29403e-01,9.93245e+01
1.33644e-01,9.29128e+01
1.38025e-01,8.69076e+01
1.42549e-01,8.12834e+01
1.47221e-01,7.60161e+01
1.52046e-01,7.10833e+01
1.57030e-01,6.64640e+01
1.62177e-01,6.21385e+01
1.67492e-01,5.80882e+01
1.72982e-01,5.42959e+01
1.78652e-01,5.07453e+01
1.84508e-01,4.74212e+01
1.90555e-01,4.43093e+01
1.96801e-01,4.13962e+01
2.03252e-01,3.86695e+01
2.09913e-01,3.61173e+01
2.16794e-01,3.37287e+01
2.23899e-01,3.14933e+01
2.31238e-01,2.94015e+01
2.38817e-01,2.74442e+01
2.46645e-01,2.56129e+01
2.54729e-01,2.38996e+01
2.63078e-01,2.22969e+01
2.71701e-01,2.07979e+01
2.80607e-01,1.93958e+01
2.89804e-01,1.80847e+01
2.99303e-01,1.68586e+01
3.09113e-01,1.57124e+01
3.19245e-01,1.46408e+01
3.29708e-01,1.36391e+01
3.40515e-01,1.27030e+01
3.51676e-01,1.18281e+01
3.63203e-01,1.10108e+01
3.75107e-01,1.02472e+01
3.87402e-01,9.53391e+00
4.00100e-01,8.86780e+00
4.13214e-01,8.24583e+00
4.26758e-01,7.66517e+00
4.40745e-01,7.12317e+00
4.55192e-01,6.61737e+00
4.70111e-01,6.14544e+00
4.85520e-01,5.70521e+00
5.01434e-01,5.29464e+00
5.17869e-01,4.91181e+00
5.34843e-01,4.55494e+00
5.52373e-01,4.22235e+00
5.70478e-01,3.91248e+00
5.89177e-01,3.62383e+00
6.08488e-01,3.35505e+00
6.28432e-01,3.10483e+00
6.49030e-01,2.87196e+00
6.70303e-01,2.65531e+00
6.92273e-01,2.45381e+00
7.14964e-01,2.26648e+00
7.38398e-01,2.09236e+00
7.62600e-01,1.93060e+00
7.87596e-01,1.78036e+00
8.13410e-01,1.64089e+00
8.40071e-01,1.51147e+00
8.67606e-01,1.39141e+00
8.96043e-01,1.28010e+00
9.25412e-01,1.17694e+00
9.55744e-01,1.08137e+00
9.87071e-01,9.92887e-01
1.01942e+00,9.10998e-01
1.05284e+00,8.35251e-01
1.08735e+00,7.65222e-01
1.12298e+00,7.00513e-01
1.15979e+00,6.40752e-01
1.19781e+00,5.85593e-01
1.23707e+00,5.34709e-01
1.27761e+00,4.87796e-01
1.31949e+00,4.44571e-01
1.36274e+00,4.04768e-01
1.40740e+00,3.68138e-01
1.45353e+00,3.34450e-01
1.50118e+00,3.03487e-01
1.55038e+00,2.75048e-01
1.60120e+00,2.48943e-01
1.65368e+00,2.24998e-01
1.70788e+00,2.03048e-01
1.76386e+00,1.82941e-01
1.82167e+00,1.64534e-01
1.88138e+00,1.47697e-01
1.94305e+00,1.32305e-01
2.00673e+00,1.18245e-01
2.07251e+00,1.05410e-01
2.14044e+00,9.37013e-02
2.21059e+00,8.30284e-02
2.28305e+00,7.33061e-02
2.35788e+00,6.44560e-02
2.43516e+00,5.64055e-02
2.51498e+00,4.90875e-02
2.59741e+00,4.24398e-02
2.68255e+00,3.64053e-02
2.77047e+00,3.09311e-02
2.86128e+00,2.59685e-02
2.95506e+00,2.14728e-02
3.05192e+00,1.74025e-02
3.15195e+00,1.37200e-02
3.25526e+00,1.03902e-02
3.36196e+00,7.38141e-03
3.47215e+00,4.66425e-03
3.58596e+00,2.21195e-03
3.70349e+00,0.00000e+00
