m1=790035.186, m2=8.775, gsp=2.496, rhosp=12.800
fGW[Hz],dPh[rad]
1.89098e-03,3.07847e+04
1.90126e-03,3.01676e+04
1.91160e-03,2.95627e+04
1.92200e-03,2.89696e+04
1.93246e-03,2.83882e+04
1.94297e-03,2.78182e+04
1.95354e-03,2.72593e+04
1.96416e-03,2.67115e+04
1.97485e-03,2.61744e+04
1.98559e-03,2.56479e+04
1.99639e-03,2.51317e+04
2.00725e-03,2.46257e+04
2.01817e-03,2.41296e+04
2.02914e-03,2.36433e+04
2.04018e-03,2.31665e+04
2.05128e-03,2.26990e+04
2.06244e-03,2.22408e+04
2.07366e-03,2.17916e+04
2.08494e-03,2.13512e+04
2.09628e-03,2.09194e+04
2.10768e-03,2.04961e+04
2.11914e-03,2.00812e+04
2.13067e-03,1.96744e+04
2.14226e-03,1.92756e+04
2.15391e-03,1.88846e+04
2.16563e-03,1.85013e+04
2.17741e-03,1.81256e+04
2.18925e-03,1.77572e+04
2.20116e-03,1.73961e+04
2.21313e-03,1.70421e+04
2.22517e-03,1.66950e+04
2.23728e-03,1.63548e+04
2.24945e-03,1.60212e+04
2.26168e-03,1.56942e+04
2.27398e-03,1.53736e+04
2.28635e-03,1.50594e+04
2.29879e-03,1.47513e+04
2.31129e-03,1.44492e+04
2.32387e-03,1.41531e+04
2.33651e-03,1.38629e+04
2.34922e-03,1.35783e+04
2.36200e-03,1.32993e+04
2.37484e-03,1.30258e+04
2.38776e-03,1.27577e+04
2.40075e-03,1.24949e+04
2.41381e-03,1.22372e+04
2.42694e-03,1.19846e+04
2.44014e-03,1.17369e+04
2.45341e-03,1.14942e+04
2.46676e-03,1.12562e+04
2.48018e-03,1.10229e+04
2.49367e-03,1.07941e+04
2.50723e-03,1.05699e+04
2.52087e-03,1.03501e+04
2.53458e-03,1.01346e+04
2.54837e-03,9.92333e+03
2.56223e-03,9.71623e+03
2.57617e-03,9.51319e+03
2.59018e-03,9.31416e+03
2.60427e-03,9.11903e+03
2.61844e-03,8.92775e+03
2.63268e-03,8.74022e+03
2.64700e-03,8.55639e+03
2.66140e-03,8.37617e+03
2.67587e-03,8.19949e+03
2.69043e-03,8.02629e+03
2.70506e-03,7.85650e+03
2.71978e-03,7.69005e+03
2.73457e-03,7.52687e+03
2.74945e-03,7.36690e+03
2.76440e-03,7.21008e+03
2.77944e-03,7.05635e+03
2.79456e-03,6.90563e+03
2.80976e-03,6.75789e+03
2.82504e-03,6.61305e+03
2.84041e-03,6.47106e+03
2.85586e-03,6.33186e+03
2.87139e-03,6.19540e+03
2.88701e-03,6.06163e+03
2.90272e-03,5.93048e+03
2.91851e-03,5.80192e+03
2.93438e-03,5.67589e+03
2.95034e-03,5.55234e+03
2.96639e-03,5.43122e+03
2.98253e-03,5.31248e+03
2.99875e-03,5.19607e+03
3.01506e-03,5.08196e+03
3.03146e-03,4.97010e+03
3.04795e-03,4.86043e+03
3.06453e-03,4.75292e+03
3.08120e-03,4.64753e+03
3.09796e-03,4.54422e+03
3.11481e-03,4.44293e+03
3.13175e-03,4.34364e+03
3.14879e-03,4.24630e+03
3.16592e-03,4.15088e+03
3.18314e-03,4.05734e+03
3.20045e-03,3.96563e+03
3.21786e-03,3.87574e+03
3.23536e-03,3.78761e+03
3.25296e-03,3.70121e+03
3.27066e-03,3.61652e+03
3.28845e-03,3.53349e+03
3.30634e-03,3.45210e+03
3.32432e-03,3.37231e+03
3.34240e-03,3.29408e+03
3.36058e-03,3.21740e+03
3.37886e-03,3.14223e+03
3.39724e-03,3.06854e+03
3.41572e-03,2.99630e+03
3.43430e-03,2.92548e+03
3.45298e-03,2.85605e+03
3.47177e-03,2.78799e+03
3.49065e-03,2.72127e+03
3.50964e-03,2.65586e+03
3.52873e-03,2.59174e+03
3.54792e-03,2.52889e+03
3.56722e-03,2.46727e+03
3.58662e-03,2.40686e+03
3.60613e-03,2.34764e+03
3.62575e-03,2.28959e+03
3.64547e-03,2.23268e+03
3.66530e-03,2.17689e+03
3.68524e-03,2.12220e+03
3.70528e-03,2.06859e+03
3.72544e-03,2.01603e+03
3.74570e-03,1.96451e+03
3.76608e-03,1.91400e+03
3.78656e-03,1.86448e+03
3.80716e-03,1.81594e+03
3.82787e-03,1.76836e+03
3.84869e-03,1.72171e+03
3.86963e-03,1.67598e+03
3.89068e-03,1.63115e+03
3.91184e-03,1.58720e+03
3.93312e-03,1.54412e+03
3.95451e-03,1.50189e+03
3.97602e-03,1.46049e+03
3.99765e-03,1.41990e+03
4.01939e-03,1.38011e+03
4.04126e-03,1.34111e+03
4.06324e-03,1.30287e+03
4.08534e-03,1.26539e+03
4.10756e-03,1.22865e+03
4.12991e-03,1.19263e+03
4.15237e-03,1.15731e+03
4.17496e-03,1.12270e+03
4.19767e-03,1.08876e+03
4.22050e-03,1.05549e+03
4.24346e-03,1.02288e+03
4.26654e-03,9.90911e+02
4.28975e-03,9.59571e+02
4.31308e-03,9.28848e+02
4.33654e-03,8.98729e+02
4.36013e-03,8.69204e+02
4.38385e-03,8.40260e+02
4.40769e-03,8.11887e+02
4.43167e-03,7.84071e+02
4.45578e-03,7.56804e+02
4.48001e-03,7.30074e+02
4.50438e-03,7.03870e+02
4.52888e-03,6.78182e+02
4.55352e-03,6.52999e+02
4.57829e-03,6.28313e+02
4.60319e-03,6.04113e+02
4.62823e-03,5.80390e+02
4.65340e-03,5.57133e+02
4.67872e-03,5.34335e+02
4.70417e-03,5.11986e+02
4.72975e-03,4.90076e+02
4.75548e-03,4.68599e+02
4.78135e-03,4.47544e+02
4.80736e-03,4.26904e+02
4.83351e-03,4.06670e+02
4.85980e-03,3.86835e+02
4.88623e-03,3.67391e+02
4.91281e-03,3.48329e+02
4.93953e-03,3.29643e+02
4.96640e-03,3.11325e+02
4.99342e-03,2.93368e+02
5.02058e-03,2.75764e+02
5.04789e-03,2.58507e+02
5.07535e-03,2.41590e+02
5.10295e-03,2.25006e+02
5.13071e-03,2.08749e+02
5.15862e-03,1.92812e+02
5.18668e-03,1.77189e+02
5.21489e-03,1.61874e+02
5.24326e-03,1.46860e+02
5.27178e-03,1.32142e+02
5.30046e-03,1.17714e+02
5.32929e-03,1.03570e+02
5.35828e-03,8.97045e+01
5.38742e-03,7.61123e+01
5.41673e-03,6.27877e+01
5.44619e-03,4.97257e+01
5.47582e-03,3.69209e+01
5.50560e-03,2.43683e+01
5.53555e-03,1.20629e+01
5.56566e-03,0.00000e+00
