m1=119910.547, m2=95.066, gsp=2.482, rhosp=208.104
fGW[Hz],dPh[rad]
1.23988e-03,1.44435e+05
1.26117e-03,1.38747e+05
1.28282e-03,1.33269e+05
1.30484e-03,1.27994e+05
1.32724e-03,1.22913e+05
1.35003e-03,1.18022e+05
1.37320e-03,1.13312e+05
1.39678e-03,1.08777e+05
1.42076e-03,1.04412e+05
1.44515e-03,1.00211e+05
1.46996e-03,9.61667e+04
1.49519e-03,9.22747e+04
1.52086e-03,8.85294e+04
1.54697e-03,8.49255e+04
1.57353e-03,8.14582e+04
1.60054e-03,7.81225e+04
1.62802e-03,7.49138e+04
1.65597e-03,7.18275e+04
1.68440e-03,6.88594e+04
1.71331e-03,6.60051e+04
1.74273e-03,6.32606e+04
1.77264e-03,6.06220e+04
1.80307e-03,5.80854e+04
1.83403e-03,5.56472e+04
1.86551e-03,5.33039e+04
1.89754e-03,5.10521e+04
1.93012e-03,4.88883e+04
1.96325e-03,4.68095e+04
1.99696e-03,4.48125e+04
2.03124e-03,4.28943e+04
2.06611e-03,4.10522e+04
2.10158e-03,3.92832e+04
2.13766e-03,3.75848e+04
2.17436e-03,3.59543e+04
2.21168e-03,3.43892e+04
2.24965e-03,3.28871e+04
2.28827e-03,3.14457e+04
2.32756e-03,3.00627e+04
2.36752e-03,2.87359e+04
2.40816e-03,2.74633e+04
2.44950e-03,2.62428e+04
2.49155e-03,2.50725e+04
2.53433e-03,2.39504e+04
2.57783e-03,2.28748e+04
2.62209e-03,2.18439e+04
2.66710e-03,2.08559e+04
2.71289e-03,1.99093e+04
2.75946e-03,1.90024e+04
2.80684e-03,1.81338e+04
2.85502e-03,1.73019e+04
2.90404e-03,1.65053e+04
2.95389e-03,1.57428e+04
3.00460e-03,1.50128e+04
3.05618e-03,1.43143e+04
3.10865e-03,1.36458e+04
3.16202e-03,1.30063e+04
3.21630e-03,1.23946e+04
3.27152e-03,1.18096e+04
3.32768e-03,1.12503e+04
3.38481e-03,1.07155e+04
3.44292e-03,1.02044e+04
3.50202e-03,9.71590e+03
3.56214e-03,9.24918e+03
3.62330e-03,8.80331e+03
3.68550e-03,8.37746e+03
3.74877e-03,7.97080e+03
3.81313e-03,7.58253e+03
3.87859e-03,7.21190e+03
3.94517e-03,6.85817e+03
4.01290e-03,6.52064e+03
4.08179e-03,6.19863e+03
4.15187e-03,5.89148e+03
4.22314e-03,5.59856e+03
4.29564e-03,5.31928e+03
4.36939e-03,5.05304e+03
4.44440e-03,4.79929e+03
4.52070e-03,4.55749e+03
4.59831e-03,4.32712e+03
4.67725e-03,4.10769e+03
4.75754e-03,3.89871e+03
4.83922e-03,3.69973e+03
4.92229e-03,3.51030e+03
5.00680e-03,3.33001e+03
5.09275e-03,3.15844e+03
5.18018e-03,2.99521e+03
5.26911e-03,2.83994e+03
5.35957e-03,2.69227e+03
5.45158e-03,2.55186e+03
5.54517e-03,2.41837e+03
5.64036e-03,2.29149e+03
5.73719e-03,2.17091e+03
5.83569e-03,2.05635e+03
5.93587e-03,1.94752e+03
6.03777e-03,1.84416e+03
6.14143e-03,1.74600e+03
6.24686e-03,1.65282e+03
6.35410e-03,1.56436e+03
6.46319e-03,1.48041e+03
6.57414e-03,1.40074e+03
6.68700e-03,1.32517e+03
6.80180e-03,1.25348e+03
6.91857e-03,1.18549e+03
7.03734e-03,1.12103e+03
7.15816e-03,1.05991e+03
7.28104e-03,1.00198e+03
7.40604e-03,9.47074e+02
7.53318e-03,8.95051e+02
7.66251e-03,8.45763e+02
7.79405e-03,7.99077e+02
7.92786e-03,7.54861e+02
8.06396e-03,7.12991e+02
8.20240e-03,6.73351e+02
8.34321e-03,6.35826e+02
8.48644e-03,6.00309e+02
8.63213e-03,5.66699e+02
8.78032e-03,5.34898e+02
8.93106e-03,5.04812e+02
9.08438e-03,4.76354e+02
9.24034e-03,4.49440e+02
9.39897e-03,4.23990e+02
9.56033e-03,3.99926e+02
9.72445e-03,3.77178e+02
9.89140e-03,3.55676e+02
1.00612e-02,3.35354e+02
1.02339e-02,3.16151e+02
1.04096e-02,2.98007e+02
1.05883e-02,2.80866e+02
1.07701e-02,2.64675e+02
1.09550e-02,2.49382e+02
1.11431e-02,2.34941e+02
1.13344e-02,2.21305e+02
1.15289e-02,2.08430e+02
1.17269e-02,1.96276e+02
1.19282e-02,1.84804e+02
1.21330e-02,1.73976e+02
1.23413e-02,1.63758e+02
1.25531e-02,1.54117e+02
1.27686e-02,1.45020e+02
1.29878e-02,1.36438e+02
1.32108e-02,1.28342e+02
1.34376e-02,1.20707e+02
1.36683e-02,1.13505e+02
1.39029e-02,1.06714e+02
1.41416e-02,1.00311e+02
1.43844e-02,9.42736e+01
1.46313e-02,8.85818e+01
1.48825e-02,8.32163e+01
1.51380e-02,7.81588e+01
1.53979e-02,7.33920e+01
1.56622e-02,6.88997e+01
1.59311e-02,6.46663e+01
1.62046e-02,6.06773e+01
1.64828e-02,5.69188e+01
1.67658e-02,5.33778e+01
1.70536e-02,5.00420e+01
1.73463e-02,4.68997e+01
1.76441e-02,4.39399e+01
1.79470e-02,4.11522e+01
1.82551e-02,3.85268e+01
1.85685e-02,3.60543e+01
1.88873e-02,3.37261e+01
1.92116e-02,3.15338e+01
1.95414e-02,2.94696e+01
1.98768e-02,2.75263e+01
2.02181e-02,2.56967e+01
2.05652e-02,2.39744e+01
2.09182e-02,2.23532e+01
2.12773e-02,2.08271e+01
2.16426e-02,1.93908e+01
2.20142e-02,1.80389e+01
2.23921e-02,1.67667e+01
2.27765e-02,1.55694e+01
2.31675e-02,1.44427e+01
2.35652e-02,1.33826e+01
2.39698e-02,1.23850e+01
2.43813e-02,1.14464e+01
2.47999e-02,1.05633e+01
2.52256e-02,9.73246e+00
2.56587e-02,8.95084e+00
2.60992e-02,8.21554e+00
2.65472e-02,7.52385e+00
2.70030e-02,6.87320e+00
2.74665e-02,6.26119e+00
2.79381e-02,5.68554e+00
2.84177e-02,5.14411e+00
2.89055e-02,4.63488e+00
2.94018e-02,4.15596e+00
2.99065e-02,3.70555e+00
3.04199e-02,3.28198e+00
3.09422e-02,2.88365e+00
3.14734e-02,2.50908e+00
3.20137e-02,2.15686e+00
3.25633e-02,1.82566e+00
3.31223e-02,1.51424e+00
3.36909e-02,1.22143e+00
3.42693e-02,9.46118e-01
3.48576e-02,6.87269e-01
3.54561e-02,4.43904e-01
3.60647e-02,2.15103e-01
3.66839e-02,0.00000e+00
