m1=662563.921, m2=4.043, gsp=2.061, rhosp=181.529
fGW[Hz],dPh[rad]
2.64244e-03,2.74080e+01
2.65470e-03,2.68977e+01
2.66701e-03,2.63967e+01
2.67938e-03,2.59048e+01
2.69181e-03,2.54218e+01
2.70429e-03,2.49475e+01
2.71684e-03,2.44818e+01
2.72944e-03,2.40246e+01
2.74210e-03,2.35757e+01
2.75482e-03,2.31349e+01
2.76759e-03,2.27020e+01
2.78043e-03,2.22771e+01
2.79333e-03,2.18598e+01
2.80628e-03,2.14501e+01
2.81930e-03,2.10478e+01
2.83237e-03,2.06528e+01
2.84551e-03,2.02649e+01
2.85871e-03,1.98841e+01
2.87197e-03,1.95102e+01
2.88529e-03,1.91431e+01
2.89867e-03,1.87826e+01
2.91212e-03,1.84287e+01
2.92562e-03,1.80811e+01
2.93919e-03,1.77399e+01
2.95283e-03,1.74048e+01
2.96652e-03,1.70759e+01
2.98028e-03,1.67529e+01
2.99410e-03,1.64357e+01
3.00799e-03,1.61243e+01
3.02194e-03,1.58185e+01
3.03596e-03,1.55183e+01
3.05004e-03,1.52235e+01
3.06419e-03,1.49341e+01
3.07840e-03,1.46499e+01
3.09268e-03,1.43709e+01
3.10702e-03,1.40969e+01
3.12143e-03,1.38279e+01
3.13591e-03,1.35638e+01
3.15046e-03,1.33044e+01
3.16507e-03,1.30498e+01
3.17975e-03,1.27997e+01
3.19450e-03,1.25542e+01
3.20931e-03,1.23132e+01
3.22420e-03,1.20765e+01
3.23915e-03,1.18441e+01
3.25418e-03,1.16160e+01
3.26927e-03,1.13919e+01
3.28444e-03,1.11720e+01
3.29967e-03,1.09560e+01
3.31497e-03,1.07439e+01
3.33035e-03,1.05357e+01
3.34580e-03,1.03312e+01
3.36132e-03,1.01305e+01
3.37691e-03,9.93338e+00
3.39257e-03,9.73985e+00
3.40830e-03,9.54983e+00
3.42411e-03,9.36326e+00
3.43999e-03,9.18006e+00
3.45595e-03,9.00019e+00
3.47198e-03,8.82359e+00
3.48808e-03,8.65018e+00
3.50426e-03,8.47992e+00
3.52051e-03,8.31274e+00
3.53684e-03,8.14860e+00
3.55325e-03,7.98743e+00
3.56973e-03,7.82919e+00
3.58629e-03,7.67381e+00
3.60292e-03,7.52125e+00
3.61963e-03,7.37146e+00
3.63642e-03,7.22439e+00
3.65329e-03,7.07998e+00
3.67023e-03,6.93819e+00
3.68725e-03,6.79897e+00
3.70436e-03,6.66228e+00
3.72154e-03,6.52806e+00
3.73880e-03,6.39628e+00
3.75614e-03,6.26689e+00
3.77356e-03,6.13985e+00
3.79107e-03,6.01511e+00
3.80865e-03,5.89263e+00
3.82631e-03,5.77237e+00
3.84406e-03,5.65430e+00
3.86189e-03,5.53836e+00
3.87980e-03,5.42453e+00
3.89780e-03,5.31276e+00
3.91588e-03,5.20302e+00
3.93404e-03,5.09527e+00
3.95229e-03,4.98948e+00
3.97062e-03,4.88560e+00
3.98904e-03,4.78361e+00
4.00754e-03,4.68346e+00
4.02613e-03,4.58513e+00
4.04480e-03,4.48859e+00
4.06356e-03,4.39380e+00
4.08241e-03,4.30072e+00
4.10134e-03,4.20934e+00
4.12037e-03,4.11961e+00
4.13948e-03,4.03151e+00
4.15868e-03,3.94501e+00
4.17797e-03,3.86007e+00
4.19734e-03,3.77668e+00
4.21681e-03,3.69480e+00
4.23637e-03,3.61441e+00
4.25602e-03,3.53547e+00
4.27576e-03,3.45796e+00
4.29559e-03,3.38186e+00
4.31552e-03,3.30715e+00
4.33553e-03,3.23378e+00
4.35564e-03,3.16175e+00
4.37584e-03,3.09102e+00
4.39614e-03,3.02158e+00
4.41653e-03,2.95340e+00
4.43701e-03,2.88645e+00
4.45759e-03,2.82072e+00
4.47827e-03,2.75618e+00
4.49904e-03,2.69281e+00
4.51991e-03,2.63059e+00
4.54087e-03,2.56949e+00
4.56193e-03,2.50951e+00
4.58309e-03,2.45062e+00
4.60435e-03,2.39279e+00
4.62571e-03,2.33601e+00
4.64716e-03,2.28027e+00
4.66872e-03,2.22553e+00
4.69037e-03,2.17179e+00
4.71213e-03,2.11902e+00
4.73398e-03,2.06721e+00
4.75594e-03,2.01634e+00
4.77800e-03,1.96639e+00
4.80016e-03,1.91734e+00
4.82242e-03,1.86919e+00
4.84479e-03,1.82191e+00
4.86726e-03,1.77549e+00
4.88984e-03,1.72991e+00
4.91252e-03,1.68516e+00
4.93530e-03,1.64122e+00
4.95819e-03,1.59808e+00
4.98119e-03,1.55572e+00
5.00429e-03,1.51413e+00
5.02751e-03,1.47329e+00
5.05082e-03,1.43319e+00
5.07425e-03,1.39382e+00
5.09779e-03,1.35517e+00
5.12143e-03,1.31721e+00
5.14519e-03,1.27995e+00
5.16905e-03,1.24336e+00
5.19302e-03,1.20744e+00
5.21711e-03,1.17216e+00
5.24131e-03,1.13753e+00
5.26562e-03,1.10353e+00
5.29004e-03,1.07014e+00
5.31458e-03,1.03736e+00
5.33923e-03,1.00517e+00
5.36399e-03,9.73565e-01
5.38887e-03,9.42535e-01
5.41387e-03,9.12068e-01
5.43898e-03,8.82154e-01
5.46421e-03,8.52782e-01
5.48955e-03,8.23944e-01
5.51501e-03,7.95629e-01
5.54059e-03,7.67827e-01
5.56629e-03,7.40530e-01
5.59211e-03,7.13728e-01
5.61804e-03,6.87413e-01
5.64410e-03,6.61575e-01
5.67028e-03,6.36206e-01
5.69658e-03,6.11297e-01
5.72300e-03,5.86840e-01
5.74955e-03,5.62827e-01
5.77621e-03,5.39249e-01
5.80301e-03,5.16100e-01
5.82992e-03,4.93370e-01
5.85696e-03,4.71053e-01
5.88413e-03,4.49141e-01
5.91142e-03,4.27626e-01
5.93884e-03,4.06502e-01
5.96638e-03,3.85761e-01
5.99406e-03,3.65397e-01
6.02186e-03,3.45402e-01
6.04979e-03,3.25770e-01
6.07785e-03,3.06494e-01
6.10604e-03,2.87567e-01
6.13436e-03,2.68985e-01
6.16281e-03,2.50739e-01
6.19140e-03,2.32825e-01
6.22012e-03,2.15235e-01
6.24897e-03,1.97965e-01
6.27795e-03,1.81008e-01
6.30707e-03,1.64359e-01
6.33632e-03,1.48012e-01
6.36571e-03,1.31962e-01
6.39524e-03,1.16202e-01
6.42490e-03,1.00729e-01
6.45470e-03,8.55368e-02
6.48464e-03,7.06201e-02
6.51471e-03,5.59741e-02
6.54493e-03,4.15939e-02
6.57529e-03,2.74746e-02
6.60579e-03,1.36115e-02
6.63642e-03,0.00000e+00
