m1=384414.365, m2=17.513, gsp=2.099, rhosp=262.113
fGW[Hz],dPh[rad]
1.74725e-03,1.97344e+02
1.76383e-03,1.90336e+02
1.78056e-03,1.83574e+02
1.79745e-03,1.77050e+02
1.81451e-03,1.70755e+02
1.83172e-03,1.64681e+02
1.84910e-03,1.58821e+02
1.86664e-03,1.53167e+02
1.88435e-03,1.47712e+02
1.90222e-03,1.42450e+02
1.92027e-03,1.37373e+02
1.93848e-03,1.32475e+02
1.95687e-03,1.27750e+02
1.97544e-03,1.23192e+02
1.99418e-03,1.18795e+02
2.01310e-03,1.14553e+02
2.03219e-03,1.10461e+02
2.05147e-03,1.06514e+02
2.07093e-03,1.02706e+02
2.09058e-03,9.90336e+01
2.11041e-03,9.54910e+01
2.13043e-03,9.20739e+01
2.15064e-03,8.87779e+01
2.17105e-03,8.55988e+01
2.19164e-03,8.25325e+01
2.21243e-03,7.95750e+01
2.23342e-03,7.67225e+01
2.25461e-03,7.39714e+01
2.27600e-03,7.13179e+01
2.29759e-03,6.87588e+01
2.31939e-03,6.62907e+01
2.34139e-03,6.39105e+01
2.36360e-03,6.16149e+01
2.38602e-03,5.94010e+01
2.40866e-03,5.72660e+01
2.43151e-03,5.52070e+01
2.45458e-03,5.32214e+01
2.47786e-03,5.13066e+01
2.50137e-03,4.94600e+01
2.52510e-03,4.76794e+01
2.54905e-03,4.59623e+01
2.57324e-03,4.43064e+01
2.59765e-03,4.27097e+01
2.62229e-03,4.11701e+01
2.64717e-03,3.96854e+01
2.67228e-03,3.82538e+01
2.69763e-03,3.68734e+01
2.72322e-03,3.55424e+01
2.74906e-03,3.42589e+01
2.77514e-03,3.30214e+01
2.80146e-03,3.18282e+01
2.82804e-03,3.06777e+01
2.85487e-03,2.95684e+01
2.88195e-03,2.84989e+01
2.90929e-03,2.74677e+01
2.93689e-03,2.64734e+01
2.96475e-03,2.55148e+01
2.99288e-03,2.45905e+01
3.02127e-03,2.36994e+01
3.04993e-03,2.28403e+01
3.07886e-03,2.20120e+01
3.10807e-03,2.12135e+01
3.13756e-03,2.04436e+01
3.16732e-03,1.97013e+01
3.19737e-03,1.89858e+01
3.22770e-03,1.82959e+01
3.25832e-03,1.76308e+01
3.28923e-03,1.69897e+01
3.32044e-03,1.63715e+01
3.35194e-03,1.57757e+01
3.38374e-03,1.52012e+01
3.41584e-03,1.46474e+01
3.44824e-03,1.41136e+01
3.48095e-03,1.35989e+01
3.51397e-03,1.31028e+01
3.54731e-03,1.26245e+01
3.58096e-03,1.21635e+01
3.61493e-03,1.17191e+01
3.64923e-03,1.12906e+01
3.68385e-03,1.08777e+01
3.71879e-03,1.04796e+01
3.75407e-03,1.00958e+01
3.78969e-03,9.72589e+00
3.82564e-03,9.36931e+00
3.86193e-03,9.02559e+00
3.89857e-03,8.69427e+00
3.93555e-03,8.37491e+00
3.97289e-03,8.06706e+00
4.01058e-03,7.77033e+00
4.04862e-03,7.48431e+00
4.08703e-03,7.20861e+00
4.12580e-03,6.94286e+00
4.16494e-03,6.68671e+00
4.20445e-03,6.43982e+00
4.24434e-03,6.20184e+00
4.28461e-03,5.97245e+00
4.32525e-03,5.75136e+00
4.36628e-03,5.53826e+00
4.40771e-03,5.33285e+00
4.44952e-03,5.13488e+00
4.49173e-03,4.94405e+00
4.53434e-03,4.76013e+00
4.57736e-03,4.58286e+00
4.62078e-03,4.41200e+00
4.66462e-03,4.24732e+00
4.70887e-03,4.08860e+00
4.75354e-03,3.93562e+00
4.79864e-03,3.78818e+00
4.84416e-03,3.64607e+00
4.89011e-03,3.50910e+00
4.93650e-03,3.37709e+00
4.98333e-03,3.24986e+00
5.03061e-03,3.12724e+00
5.07833e-03,3.00906e+00
5.12651e-03,2.89515e+00
5.17514e-03,2.78538e+00
5.22424e-03,2.67957e+00
5.27380e-03,2.57760e+00
5.32383e-03,2.47933e+00
5.37433e-03,2.38461e+00
5.42532e-03,2.29333e+00
5.47679e-03,2.20536e+00
5.52874e-03,2.12057e+00
5.58119e-03,2.03886e+00
5.63414e-03,1.96010e+00
5.68759e-03,1.88421e+00
5.74154e-03,1.81106e+00
5.79601e-03,1.74057e+00
5.85100e-03,1.67263e+00
5.90650e-03,1.60716e+00
5.96254e-03,1.54406e+00
6.01910e-03,1.48325e+00
6.07620e-03,1.42465e+00
6.13384e-03,1.36817e+00
6.19203e-03,1.31374e+00
6.25078e-03,1.26129e+00
6.31007e-03,1.21074e+00
6.36994e-03,1.16202e+00
6.43037e-03,1.11507e+00
6.49137e-03,1.06983e+00
6.55295e-03,1.02623e+00
6.61511e-03,9.84208e-01
6.67787e-03,9.43714e-01
6.74122e-03,9.04690e-01
6.80517e-03,8.67082e-01
6.86973e-03,8.30841e-01
6.93490e-03,7.95915e-01
7.00069e-03,7.62258e-01
7.06710e-03,7.29823e-01
7.13415e-03,6.98565e-01
7.20183e-03,6.68444e-01
7.27015e-03,6.39416e-01
7.33912e-03,6.11443e-01
7.40874e-03,5.84486e-01
7.47902e-03,5.58508e-01
7.54997e-03,5.33474e-01
7.62160e-03,5.09350e-01
7.69390e-03,4.86102e-01
7.76689e-03,4.63699e-01
7.84057e-03,4.42110e-01
7.91495e-03,4.21306e-01
7.99004e-03,4.01257e-01
8.06584e-03,3.81938e-01
8.14236e-03,3.63321e-01
8.21960e-03,3.45380e-01
8.29758e-03,3.28092e-01
8.37629e-03,3.11432e-01
8.45575e-03,2.95377e-01
8.53597e-03,2.79907e-01
8.61695e-03,2.64999e-01
8.69870e-03,2.50632e-01
8.78122e-03,2.36789e-01
8.86452e-03,2.23448e-01
8.94862e-03,2.10593e-01
9.03351e-03,1.98205e-01
9.11921e-03,1.86268e-01
9.20572e-03,1.74765e-01
9.29305e-03,1.63680e-01
9.38121e-03,1.52999e-01
9.47020e-03,1.42706e-01
9.56004e-03,1.32787e-01
9.65074e-03,1.23230e-01
9.74229e-03,1.14019e-01
9.83471e-03,1.05144e-01
9.92801e-03,9.65923e-02
1.00222e-02,8.83513e-02
1.01173e-02,8.04101e-02
1.02132e-02,7.27578e-02
1.03101e-02,6.53840e-02
1.04079e-02,5.82785e-02
1.05067e-02,5.14315e-02
1.06064e-02,4.48337e-02
1.07070e-02,3.84760e-02
1.08085e-02,3.23497e-02
1.09111e-02,2.64463e-02
1.10146e-02,2.07577e-02
1.11191e-02,1.52762e-02
1.12246e-02,9.99424e-03
1.13311e-02,4.90449e-03
1.14385e-02,0.00000e+00
