m1=22102.844, m2=35.893, gsp=2.073, rhosp=8365.171
fGW[Hz],dPh[rad]
2.72683e-03,3.80360e+02
2.78626e-03,3.61501e+02
2.84699e-03,3.43563e+02
2.90904e-03,3.26499e+02
2.97244e-03,3.10269e+02
3.03723e-03,2.94832e+02
3.10342e-03,2.80149e+02
3.17106e-03,2.66184e+02
3.24018e-03,2.52903e+02
3.31080e-03,2.40271e+02
3.38296e-03,2.28258e+02
3.45669e-03,2.16834e+02
3.53203e-03,2.05970e+02
3.60901e-03,1.95639e+02
3.68767e-03,1.85815e+02
3.76804e-03,1.76474e+02
3.85017e-03,1.67592e+02
3.93408e-03,1.59147e+02
4.01982e-03,1.51117e+02
4.10744e-03,1.43483e+02
4.19696e-03,1.36226e+02
4.28843e-03,1.29326e+02
4.38190e-03,1.22767e+02
4.47741e-03,1.16532e+02
4.57499e-03,1.10606e+02
4.67470e-03,1.04973e+02
4.77659e-03,9.96183e+01
4.88070e-03,9.45296e+01
4.98707e-03,8.96935e+01
5.09577e-03,8.50975e+01
5.20683e-03,8.07301e+01
5.32031e-03,7.65800e+01
5.43627e-03,7.26367e+01
5.55476e-03,6.88901e+01
5.67582e-03,6.53306e+01
5.79953e-03,6.19489e+01
5.92593e-03,5.87365e+01
6.05509e-03,5.56851e+01
6.18706e-03,5.27867e+01
6.32191e-03,5.00338e+01
6.45969e-03,4.74194e+01
6.60048e-03,4.49367e+01
6.74434e-03,4.25791e+01
6.89134e-03,4.03406e+01
7.04154e-03,3.82153e+01
7.19501e-03,3.61975e+01
7.35182e-03,3.42821e+01
7.51206e-03,3.24640e+01
7.67578e-03,3.07384e+01
7.84308e-03,2.91007e+01
8.01402e-03,2.75466e+01
8.18869e-03,2.60719e+01
8.36716e-03,2.46727e+01
8.54953e-03,2.33453e+01
8.73586e-03,2.20862e+01
8.92626e-03,2.08919e+01
9.12081e-03,1.97592e+01
9.31960e-03,1.86850e+01
9.52273e-03,1.76665e+01
9.73028e-03,1.67008e+01
9.94235e-03,1.57854e+01
1.01590e-02,1.49177e+01
1.03805e-02,1.40953e+01
1.06067e-02,1.33160e+01
1.08379e-02,1.25776e+01
1.10741e-02,1.18780e+01
1.13155e-02,1.12153e+01
1.15621e-02,1.05877e+01
1.18141e-02,9.99327e+00
1.20716e-02,9.43045e+00
1.23347e-02,8.89762e+00
1.26035e-02,8.39325e+00
1.28782e-02,7.91589e+00
1.31589e-02,7.46417e+00
1.34457e-02,7.03679e+00
1.37387e-02,6.63249e+00
1.40382e-02,6.25010e+00
1.43441e-02,5.88849e+00
1.46568e-02,5.54660e+00
1.49762e-02,5.22340e+00
1.53026e-02,4.91793e+00
1.56362e-02,4.62928e+00
1.59769e-02,4.35657e+00
1.63252e-02,4.09896e+00
1.66810e-02,3.85568e+00
1.70445e-02,3.62598e+00
1.74160e-02,3.40913e+00
1.77956e-02,3.20447e+00
1.81835e-02,3.01136e+00
1.85798e-02,2.82917e+00
1.89847e-02,2.65734e+00
1.93985e-02,2.49530e+00
1.98213e-02,2.34255e+00
2.02533e-02,2.19857e+00
2.06947e-02,2.06290e+00
2.11458e-02,1.93510e+00
2.16067e-02,1.81472e+00
2.20776e-02,1.70138e+00
2.25588e-02,1.59469e+00
2.30504e-02,1.49427e+00
2.35528e-02,1.39980e+00
2.40662e-02,1.31094e+00
2.45907e-02,1.22738e+00
2.51267e-02,1.14882e+00
2.56743e-02,1.07499e+00
2.62339e-02,1.00562e+00
2.68056e-02,9.40466e-01
2.73899e-02,8.79279e-01
2.79869e-02,8.21840e-01
2.85968e-02,7.67933e-01
2.92201e-02,7.17356e-01
2.98570e-02,6.69918e-01
3.05077e-02,6.25437e-01
3.11726e-02,5.83742e-01
3.18520e-02,5.44669e-01
3.25463e-02,5.08065e-01
3.32556e-02,4.73784e-01
3.39804e-02,4.41688e-01
3.47210e-02,4.11648e-01
3.54778e-02,3.83541e-01
3.62510e-02,3.57250e-01
3.70411e-02,3.32666e-01
3.78484e-02,3.09684e-01
3.86734e-02,2.88208e-01
3.95162e-02,2.68144e-01
4.03775e-02,2.49406e-01
4.12575e-02,2.31911e-01
4.21568e-02,2.15583e-01
4.30756e-02,2.00347e-01
4.40144e-02,1.86136e-01
4.49737e-02,1.72884e-01
4.59539e-02,1.60530e-01
4.69555e-02,1.49017e-01
4.79789e-02,1.38291e-01
4.90246e-02,1.28302e-01
5.00931e-02,1.19001e-01
5.11849e-02,1.10343e-01
5.23005e-02,1.02287e-01
5.34404e-02,9.47927e-02
5.46051e-02,8.78229e-02
5.57953e-02,8.13429e-02
5.70113e-02,7.53199e-02
5.82539e-02,6.97233e-02
5.95236e-02,6.45244e-02
6.08209e-02,5.96961e-02
6.21465e-02,5.52133e-02
6.35010e-02,5.10524e-02
6.48850e-02,4.71912e-02
6.62992e-02,4.36092e-02
6.77442e-02,4.02869e-02
6.92207e-02,3.72063e-02
7.07294e-02,3.43506e-02
7.22709e-02,3.17039e-02
7.38461e-02,2.92516e-02
7.54556e-02,2.69799e-02
7.71001e-02,2.48760e-02
7.87806e-02,2.29279e-02
8.04976e-02,2.11245e-02
8.22521e-02,1.94555e-02
8.40448e-02,1.79111e-02
8.58765e-02,1.64823e-02
8.77482e-02,1.51608e-02
8.96607e-02,1.39388e-02
9.16149e-02,1.28089e-02
9.36116e-02,1.17644e-02
9.56519e-02,1.07991e-02
9.77367e-02,9.90718e-03
9.98669e-02,9.08311e-03
1.02043e-01,8.32191e-03
1.04268e-01,7.61890e-03
1.06540e-01,6.96974e-03
1.08862e-01,6.37041e-03
1.11235e-01,5.81716e-03
1.13659e-01,5.30654e-03
1.16136e-01,4.83533e-03
1.18668e-01,4.40056e-03
1.21254e-01,3.99946e-03
1.23897e-01,3.62949e-03
1.26597e-01,3.28826e-03
1.29356e-01,2.97359e-03
1.32176e-01,2.68345e-03
1.35056e-01,2.41597e-03
1.38000e-01,2.16939e-03
1.41008e-01,1.94212e-03
1.44081e-01,1.73267e-03
1.47221e-01,1.53967e-03
1.50430e-01,1.36183e-03
1.53709e-01,1.19799e-03
1.57059e-01,1.04706e-03
1.60482e-01,9.08038e-04
1.63980e-01,7.79996e-04
1.67554e-01,6.62078e-04
1.71206e-01,5.53494e-04
1.74937e-01,4.53513e-04
1.78750e-01,3.61463e-04
1.82646e-01,2.76720e-04
1.86626e-01,1.98712e-04
1.90694e-01,1.26909e-04
1.94850e-01,6.08215e-05
1.99097e-01,0.00000e+00
