m1=21870.513, m2=35.818, gsp=2.169, rhosp=19.056
fGW[Hz],dPh[rad]
2.73618e-03,3.49349e+02
2.79592e-03,3.32450e+02
2.85696e-03,3.16353e+02
2.91933e-03,3.01023e+02
2.98307e-03,2.86421e+02
3.04819e-03,2.72515e+02
3.11474e-03,2.59271e+02
3.18274e-03,2.46658e+02
3.25223e-03,2.34646e+02
3.32323e-03,2.23207e+02
3.39578e-03,2.12314e+02
3.46992e-03,2.01942e+02
3.54567e-03,1.92065e+02
3.62308e-03,1.82660e+02
3.70218e-03,1.73706e+02
3.78300e-03,1.65180e+02
3.86559e-03,1.57062e+02
3.94999e-03,1.49334e+02
4.03622e-03,1.41977e+02
4.12434e-03,1.34972e+02
4.21438e-03,1.28305e+02
4.30639e-03,1.21958e+02
4.40041e-03,1.15916e+02
4.49648e-03,1.10166e+02
4.59465e-03,1.04692e+02
4.69496e-03,9.94831e+01
4.79745e-03,9.45255e+01
4.90219e-03,8.98074e+01
5.00922e-03,8.53177e+01
5.11858e-03,8.10454e+01
5.23033e-03,7.69803e+01
5.34451e-03,7.31124e+01
5.46119e-03,6.94324e+01
5.58042e-03,6.59314e+01
5.70225e-03,6.26009e+01
5.82674e-03,5.94328e+01
5.95395e-03,5.64192e+01
6.08394e-03,5.35530e+01
6.21676e-03,5.08269e+01
6.35249e-03,4.82345e+01
6.49117e-03,4.57691e+01
6.63289e-03,4.34249e+01
6.77770e-03,4.11960e+01
6.92567e-03,3.90769e+01
7.07687e-03,3.70624e+01
7.23137e-03,3.51474e+01
7.38924e-03,3.33271e+01
7.55057e-03,3.15971e+01
7.71541e-03,2.99530e+01
7.88385e-03,2.83906e+01
8.05597e-03,2.69060e+01
8.23185e-03,2.54956e+01
8.41156e-03,2.41556e+01
8.59520e-03,2.28828e+01
8.78285e-03,2.16738e+01
8.97460e-03,2.05256e+01
9.17053e-03,1.94353e+01
9.37074e-03,1.84000e+01
9.57533e-03,1.74171e+01
9.78437e-03,1.64840e+01
9.99798e-03,1.55984e+01
1.02163e-02,1.47578e+01
1.04393e-02,1.39602e+01
1.06672e-02,1.32033e+01
1.09001e-02,1.24853e+01
1.11381e-02,1.18042e+01
1.13812e-02,1.11582e+01
1.16297e-02,1.05455e+01
1.18836e-02,9.96466e+00
1.21430e-02,9.41395e+00
1.24081e-02,8.89194e+00
1.26790e-02,8.39720e+00
1.29559e-02,7.92838e+00
1.32387e-02,7.48419e+00
1.35277e-02,7.06341e+00
1.38231e-02,6.66488e+00
1.41248e-02,6.28748e+00
1.44332e-02,5.93015e+00
1.47483e-02,5.59190e+00
1.50703e-02,5.27175e+00
1.53993e-02,4.96880e+00
1.57355e-02,4.68219e+00
1.60791e-02,4.41107e+00
1.64301e-02,4.15468e+00
1.67888e-02,3.91224e+00
1.71553e-02,3.68307e+00
1.75299e-02,3.46647e+00
1.79126e-02,3.26180e+00
1.83036e-02,3.06844e+00
1.87032e-02,2.88582e+00
1.91116e-02,2.71337e+00
1.95288e-02,2.55057e+00
1.99552e-02,2.39691e+00
2.03908e-02,2.25192e+00
2.08360e-02,2.11514e+00
2.12909e-02,1.98613e+00
2.17557e-02,1.86449e+00
2.22307e-02,1.74983e+00
2.27160e-02,1.64177e+00
2.32119e-02,1.53995e+00
2.37187e-02,1.44406e+00
2.42365e-02,1.35375e+00
2.47656e-02,1.26874e+00
2.53063e-02,1.18873e+00
2.58588e-02,1.11346e+00
2.64234e-02,1.04265e+00
2.70002e-02,9.76067e-01
2.75897e-02,9.13476e-01
2.81920e-02,8.54653e-01
2.88075e-02,7.99389e-01
2.94364e-02,7.47482e-01
3.00791e-02,6.98745e-01
3.07358e-02,6.52996e-01
3.14068e-02,6.10067e-01
3.20925e-02,5.69794e-01
3.27931e-02,5.32027e-01
3.35090e-02,4.96619e-01
3.42406e-02,4.63433e-01
3.49881e-02,4.32340e-01
3.57520e-02,4.03217e-01
3.65325e-02,3.75947e-01
3.73301e-02,3.50421e-01
3.81451e-02,3.26534e-01
3.89779e-02,3.04188e-01
3.98288e-02,2.83290e-01
4.06984e-02,2.63753e-01
4.15869e-02,2.45494e-01
4.24948e-02,2.28434e-01
4.34226e-02,2.12499e-01
4.43706e-02,1.97620e-01
4.53393e-02,1.83732e-01
4.63291e-02,1.70771e-01
4.73406e-02,1.58681e-01
4.83741e-02,1.47405e-01
4.94302e-02,1.36892e-01
5.05093e-02,1.27094e-01
5.16121e-02,1.17965e-01
5.27388e-02,1.09460e-01
5.38902e-02,1.01541e-01
5.50668e-02,9.41685e-02
5.62690e-02,8.73069e-02
5.74974e-02,8.09227e-02
5.87527e-02,7.49843e-02
6.00354e-02,6.94621e-02
6.13461e-02,6.43283e-02
6.26854e-02,5.95569e-02
6.40539e-02,5.51235e-02
6.54523e-02,5.10052e-02
6.68813e-02,4.71806e-02
6.83414e-02,4.36297e-02
6.98335e-02,4.03336e-02
7.13581e-02,3.72749e-02
7.29159e-02,3.44371e-02
7.45078e-02,3.18050e-02
7.61345e-02,2.93641e-02
7.77966e-02,2.71011e-02
7.94951e-02,2.50035e-02
8.12306e-02,2.30596e-02
8.30040e-02,2.12586e-02
8.48162e-02,1.95904e-02
8.66679e-02,1.80453e-02
8.85600e-02,1.66147e-02
9.04934e-02,1.52904e-02
9.24691e-02,1.40646e-02
9.44879e-02,1.29303e-02
9.65507e-02,1.18807e-02
9.86586e-02,1.09099e-02
1.00812e-01,1.00120e-02
1.03013e-01,9.18163e-03
1.05262e-01,8.41392e-03
1.07560e-01,7.70423e-03
1.09909e-01,7.04830e-03
1.12308e-01,6.44213e-03
1.14760e-01,5.88203e-03
1.17266e-01,5.36460e-03
1.19826e-01,4.88663e-03
1.22442e-01,4.44520e-03
1.25115e-01,4.03755e-03
1.27846e-01,3.66116e-03
1.30637e-01,3.31367e-03
1.33490e-01,2.99290e-03
1.36404e-01,2.69684e-03
1.39382e-01,2.42362e-03
1.42425e-01,2.17150e-03
1.45534e-01,1.93888e-03
1.48712e-01,1.72428e-03
1.51958e-01,1.52632e-03
1.55276e-01,1.34373e-03
1.58666e-01,1.17533e-03
1.62130e-01,1.02004e-03
1.65669e-01,8.76844e-04
1.69286e-01,7.44820e-04
1.72982e-01,6.23104e-04
1.76758e-01,5.10902e-04
1.80617e-01,4.07478e-04
1.84561e-01,3.12153e-04
1.88590e-01,2.24301e-04
1.92707e-01,1.43341e-04
1.96914e-01,6.87391e-05
2.01213e-01,0.00000e+00
