m1=27289.076, m2=10.348, gsp=2.393, rhosp=7519.776
fGW[Hz],dPh[rad]
4.12340e-03,2.69035e+05
4.20006e-03,2.57230e+05
4.27815e-03,2.45912e+05
4.35768e-03,2.35061e+05
4.43870e-03,2.24658e+05
4.52122e-03,2.14687e+05
4.60527e-03,2.05130e+05
4.69089e-03,1.95971e+05
4.77810e-03,1.87194e+05
4.86693e-03,1.78785e+05
4.95742e-03,1.70728e+05
5.04958e-03,1.63011e+05
5.14346e-03,1.55619e+05
5.23909e-03,1.48540e+05
5.33649e-03,1.41761e+05
5.43570e-03,1.35271e+05
5.53676e-03,1.29057e+05
5.63969e-03,1.23110e+05
5.74454e-03,1.17417e+05
5.85134e-03,1.11970e+05
5.96013e-03,1.06757e+05
6.07093e-03,1.01770e+05
6.18380e-03,9.70002e+04
6.29876e-03,9.24380e+04
6.41587e-03,8.80751e+04
6.53515e-03,8.39036e+04
6.65664e-03,7.99156e+04
6.78040e-03,7.61037e+04
6.90646e-03,7.24606e+04
7.03486e-03,6.89795e+04
7.16565e-03,6.56536e+04
7.29887e-03,6.24767e+04
7.43456e-03,5.94424e+04
7.57278e-03,5.65449e+04
7.71357e-03,5.37786e+04
7.85697e-03,5.11379e+04
8.00305e-03,4.86175e+04
8.15183e-03,4.62125e+04
8.30339e-03,4.39179e+04
8.45776e-03,4.17292e+04
8.61500e-03,3.96417e+04
8.77516e-03,3.76513e+04
8.93831e-03,3.57537e+04
9.10448e-03,3.39449e+04
9.27375e-03,3.22212e+04
9.44616e-03,3.05789e+04
9.62178e-03,2.90145e+04
9.80066e-03,2.75245e+04
9.98287e-03,2.61057e+04
1.01685e-02,2.47550e+04
1.03575e-02,2.34693e+04
1.05501e-02,2.22459e+04
1.07462e-02,2.10819e+04
1.09460e-02,1.99747e+04
1.11495e-02,1.89218e+04
1.13568e-02,1.79206e+04
1.15679e-02,1.69690e+04
1.17830e-02,1.60645e+04
1.20020e-02,1.52051e+04
1.22252e-02,1.43888e+04
1.24525e-02,1.36134e+04
1.26840e-02,1.28772e+04
1.29198e-02,1.21783e+04
1.31600e-02,1.15149e+04
1.34046e-02,1.08855e+04
1.36538e-02,1.02883e+04
1.39077e-02,9.72199e+03
1.41663e-02,9.18495e+03
1.44296e-02,8.67581e+03
1.46979e-02,8.19326e+03
1.49711e-02,7.73599e+03
1.52495e-02,7.30278e+03
1.55330e-02,6.89247e+03
1.58218e-02,6.50393e+03
1.61159e-02,6.13609e+03
1.64155e-02,5.78792e+03
1.67207e-02,5.45846e+03
1.70316e-02,5.14675e+03
1.73482e-02,4.85193e+03
1.76707e-02,4.57312e+03
1.79993e-02,4.30953e+03
1.83339e-02,4.06038e+03
1.86748e-02,3.82493e+03
1.90219e-02,3.60247e+03
1.93756e-02,3.39233e+03
1.97358e-02,3.19388e+03
2.01027e-02,3.00650e+03
2.04765e-02,2.82963e+03
2.08571e-02,2.66269e+03
2.12449e-02,2.50517e+03
2.16399e-02,2.35657e+03
2.20422e-02,2.21641e+03
2.24520e-02,2.08424e+03
2.28694e-02,1.95963e+03
2.32946e-02,1.84217e+03
2.37277e-02,1.73148e+03
2.41688e-02,1.62718e+03
2.46181e-02,1.52892e+03
2.50758e-02,1.43637e+03
2.55420e-02,1.34923e+03
2.60169e-02,1.26717e+03
2.65005e-02,1.18993e+03
2.69932e-02,1.11724e+03
2.74951e-02,1.04884e+03
2.80062e-02,9.84478e+02
2.85269e-02,9.23940e+02
2.90573e-02,8.67004e+02
2.95975e-02,8.13465e+02
3.01477e-02,7.63129e+02
3.07082e-02,7.15812e+02
3.12791e-02,6.71340e+02
3.18607e-02,6.29549e+02
3.24530e-02,5.90283e+02
3.30563e-02,5.53396e+02
3.36709e-02,5.18749e+02
3.42969e-02,4.86210e+02
3.49345e-02,4.55656e+02
3.55840e-02,4.26970e+02
3.62455e-02,4.00041e+02
3.69194e-02,3.74765e+02
3.76058e-02,3.51045e+02
3.83049e-02,3.28786e+02
3.90171e-02,3.07903e+02
3.97425e-02,2.88312e+02
4.04813e-02,2.69936e+02
4.12339e-02,2.52702e+02
4.20005e-02,2.36540e+02
4.27814e-02,2.21385e+02
4.35767e-02,2.07178e+02
4.43869e-02,1.93859e+02
4.52121e-02,1.81374e+02
4.60526e-02,1.69674e+02
4.69088e-02,1.58708e+02
4.77809e-02,1.48434e+02
4.86692e-02,1.38807e+02
4.95741e-02,1.29788e+02
5.04957e-02,1.21339e+02
5.14345e-02,1.13426e+02
5.23907e-02,1.06014e+02
5.33648e-02,9.90727e+01
5.43569e-02,9.25729e+01
5.53674e-02,8.64869e+01
5.63968e-02,8.07888e+01
5.74453e-02,7.54543e+01
5.85133e-02,7.04606e+01
5.96011e-02,6.57864e+01
6.07092e-02,6.14114e+01
6.18379e-02,5.73169e+01
6.29875e-02,5.34851e+01
6.41585e-02,4.98995e+01
6.53513e-02,4.65444e+01
6.65663e-02,4.34052e+01
6.78039e-02,4.04683e+01
6.90644e-02,3.77208e+01
7.03484e-02,3.51505e+01
7.16563e-02,3.27463e+01
7.29885e-02,3.04976e+01
7.43455e-02,2.83943e+01
7.57276e-02,2.64272e+01
7.71355e-02,2.45876e+01
7.85696e-02,2.28673e+01
8.00303e-02,2.12587e+01
8.15182e-02,1.97545e+01
8.30337e-02,1.83481e+01
8.45774e-02,1.70332e+01
8.61498e-02,1.58038e+01
8.77515e-02,1.46545e+01
8.93829e-02,1.35801e+01
9.10446e-02,1.25758e+01
9.27373e-02,1.16370e+01
9.44614e-02,1.07594e+01
9.62176e-02,9.93920e+00
9.80064e-02,9.17258e+00
9.98284e-02,8.45608e+00
1.01684e-01,7.78646e+00
1.03575e-01,7.16066e+00
1.05500e-01,6.57584e+00
1.07462e-01,6.02933e+00
1.09460e-01,5.51865e+00
1.11495e-01,5.04144e+00
1.13568e-01,4.59555e+00
1.15679e-01,4.17891e+00
1.17830e-01,3.78963e+00
1.20020e-01,3.42592e+00
1.22252e-01,3.08610e+00
1.24524e-01,2.76862e+00
1.26839e-01,2.47202e+00
1.29198e-01,2.19492e+00
1.31599e-01,1.93606e+00
1.34046e-01,1.69423e+00
1.36538e-01,1.46833e+00
1.39077e-01,1.25730e+00
1.41662e-01,1.06018e+00
1.44296e-01,8.76045e-01
1.46979e-01,7.04050e-01
1.49711e-01,5.43396e-01
1.52494e-01,3.93338e-01
1.55330e-01,2.53179e-01
1.58217e-01,1.22269e-01
1.61159e-01,0.00000e+00
