m1=1631.326, m2=26.463, gsp=2.302, rhosp=3230.384
fGW[Hz],dPh[rad]
5.87568e-03,2.61628e+03
6.05969e-03,2.44969e+03
6.24946e-03,2.29371e+03
6.44518e-03,2.14766e+03
6.64702e-03,2.01090e+03
6.85519e-03,1.88285e+03
7.06987e-03,1.76294e+03
7.29128e-03,1.65067e+03
7.51963e-03,1.54554e+03
7.75512e-03,1.44710e+03
7.99799e-03,1.35493e+03
8.24846e-03,1.26863e+03
8.50678e-03,1.18781e+03
8.77319e-03,1.11215e+03
9.04794e-03,1.04129e+03
9.33129e-03,9.74952e+02
9.62352e-03,9.12833e+02
9.92490e-03,8.54668e+02
1.02357e-02,8.00205e+02
1.05563e-02,7.49210e+02
1.08869e-02,7.01461e+02
1.12278e-02,6.56752e+02
1.15794e-02,6.14889e+02
1.19421e-02,5.75691e+02
1.23161e-02,5.38989e+02
1.27018e-02,5.04623e+02
1.30996e-02,4.72446e+02
1.35098e-02,4.42318e+02
1.39329e-02,4.14107e+02
1.43692e-02,3.87694e+02
1.48192e-02,3.62962e+02
1.52833e-02,3.39805e+02
1.57620e-02,3.18123e+02
1.62556e-02,2.97822e+02
1.67646e-02,2.78814e+02
1.72897e-02,2.61017e+02
1.78311e-02,2.44353e+02
1.83896e-02,2.28751e+02
1.89655e-02,2.14143e+02
1.95594e-02,2.00465e+02
2.01719e-02,1.87659e+02
2.08037e-02,1.75669e+02
2.14552e-02,1.64442e+02
2.21271e-02,1.53932e+02
2.28201e-02,1.44091e+02
2.35347e-02,1.34877e+02
2.42718e-02,1.26250e+02
2.50319e-02,1.18174e+02
2.58158e-02,1.10612e+02
2.66243e-02,1.03533e+02
2.74581e-02,9.69045e+01
2.83180e-02,9.06990e+01
2.92048e-02,8.48892e+01
3.01194e-02,7.94501e+01
3.10627e-02,7.43579e+01
3.20355e-02,6.95906e+01
3.30388e-02,6.51274e+01
3.40734e-02,6.09491e+01
3.51405e-02,5.70374e+01
3.62410e-02,5.33755e+01
3.73760e-02,4.99473e+01
3.85465e-02,4.67381e+01
3.97537e-02,4.37337e+01
4.09986e-02,4.09213e+01
4.22826e-02,3.82886e+01
4.36068e-02,3.58241e+01
4.49724e-02,3.35171e+01
4.63808e-02,3.13575e+01
4.78333e-02,2.93361e+01
4.93313e-02,2.74439e+01
5.08762e-02,2.56728e+01
5.24695e-02,2.40149e+01
5.41127e-02,2.24632e+01
5.58074e-02,2.10108e+01
5.75551e-02,1.96515e+01
5.93576e-02,1.83792e+01
6.12165e-02,1.71884e+01
6.31336e-02,1.60739e+01
6.51108e-02,1.50309e+01
6.71499e-02,1.40548e+01
6.92528e-02,1.31413e+01
7.14216e-02,1.22865e+01
7.36583e-02,1.14865e+01
7.59651e-02,1.07380e+01
7.83441e-02,1.00375e+01
8.07976e-02,9.38210e+00
8.33280e-02,8.76885e+00
8.59376e-02,8.19506e+00
8.86289e-02,7.65823e+00
9.14045e-02,7.15598e+00
9.42670e-02,6.68610e+00
9.72192e-02,6.24654e+00
1.00264e-01,5.83535e+00
1.03404e-01,5.45072e+00
1.06642e-01,5.09094e+00
1.09982e-01,4.75443e+00
1.13426e-01,4.43970e+00
1.16978e-01,4.14536e+00
1.20642e-01,3.87010e+00
1.24420e-01,3.61270e+00
1.28316e-01,3.37201e+00
1.32335e-01,3.14696e+00
1.36479e-01,2.93656e+00
1.40753e-01,2.73985e+00
1.45161e-01,2.55597e+00
1.49707e-01,2.38409e+00
1.54396e-01,2.22343e+00
1.59231e-01,2.07329e+00
1.64218e-01,1.93297e+00
1.69361e-01,1.80186e+00
1.74665e-01,1.67936e+00
1.80135e-01,1.56491e+00
1.85776e-01,1.45799e+00
1.91594e-01,1.35812e+00
1.97594e-01,1.26485e+00
2.03782e-01,1.17775e+00
2.10164e-01,1.09642e+00
2.16746e-01,1.02049e+00
2.23534e-01,9.49605e-01
2.30534e-01,8.83444e-01
2.37754e-01,8.21699e-01
2.45199e-01,7.64084e-01
2.52878e-01,7.10331e-01
2.60798e-01,6.60189e-01
2.68965e-01,6.13422e-01
2.77388e-01,5.69813e-01
2.86075e-01,5.29153e-01
2.95034e-01,4.91252e-01
3.04274e-01,4.55928e-01
3.13803e-01,4.23014e-01
3.23631e-01,3.92350e-01
3.33766e-01,3.63790e-01
3.44218e-01,3.37194e-01
3.54998e-01,3.12435e-01
3.66116e-01,2.89390e-01
3.77582e-01,2.67946e-01
3.89406e-01,2.47998e-01
4.01601e-01,2.29445e-01
4.14178e-01,2.12195e-01
4.27149e-01,1.96162e-01
4.40526e-01,1.81264e-01
4.54322e-01,1.67425e-01
4.68550e-01,1.54574e-01
4.83224e-01,1.42644e-01
4.98357e-01,1.31573e-01
5.13964e-01,1.21303e-01
5.30060e-01,1.11779e-01
5.46660e-01,1.02951e-01
5.63780e-01,9.47712e-02
5.81436e-01,8.71947e-02
5.99645e-01,8.01800e-02
6.18424e-01,7.36883e-02
6.37792e-01,6.76832e-02
6.57765e-01,6.21308e-02
6.78365e-01,5.69993e-02
6.99609e-01,5.22590e-02
7.21519e-01,4.78823e-02
7.44115e-01,4.38433e-02
7.67418e-01,4.01178e-02
7.91452e-01,3.66833e-02
8.16238e-01,3.35188e-02
8.41800e-01,3.06045e-02
8.68163e-01,2.79223e-02
8.95351e-01,2.54549e-02
9.23391e-01,2.31866e-02
9.52309e-01,2.11024e-02
9.82133e-01,1.91885e-02
1.01289e+00,1.74322e-02
1.04461e+00,1.58213e-02
1.07733e+00,1.43447e-02
1.11106e+00,1.29921e-02
1.14586e+00,1.17539e-02
1.18174e+00,1.06210e-02
1.21875e+00,9.58519e-03
1.25692e+00,8.63874e-03
1.29628e+00,7.77448e-03
1.33688e+00,6.98579e-03
1.37875e+00,6.26651e-03
1.42193e+00,5.61095e-03
1.46646e+00,5.01386e-03
1.51238e+00,4.47036e-03
1.55975e+00,3.97596e-03
1.60859e+00,3.52650e-03
1.65897e+00,3.11816e-03
1.71092e+00,2.74740e-03
1.76450e+00,2.41098e-03
1.81976e+00,2.10590e-03
1.87675e+00,1.82941e-03
1.93553e+00,1.57897e-03
1.99614e+00,1.35227e-03
2.05866e+00,1.14717e-03
2.12313e+00,9.61724e-04
2.18962e+00,7.94140e-04
2.25819e+00,6.42781e-04
2.32891e+00,5.06150e-04
2.40185e+00,3.82878e-04
2.47706e+00,2.71717e-04
2.55464e+00,1.71527e-04
2.63464e+00,8.12699e-05
2.71715e+00,0.00000e+00
