m1=394622.255, m2=76.688, gsp=2.307, rhosp=4350.781
fGW[Hz],dPh[rad]
9.97708e-04,1.47214e+04
1.00988e-03,1.41432e+04
1.02220e-03,1.35866e+04
1.03467e-03,1.30510e+04
1.04729e-03,1.25355e+04
1.06007e-03,1.20394e+04
1.07301e-03,1.15621e+04
1.08610e-03,1.11028e+04
1.09935e-03,1.06610e+04
1.11276e-03,1.02360e+04
1.12633e-03,9.82723e+03
1.14008e-03,9.43408e+03
1.15399e-03,9.05599e+03
1.16806e-03,8.69243e+03
1.18232e-03,8.34286e+03
1.19674e-03,8.00679e+03
1.21134e-03,7.68370e+03
1.22612e-03,7.37314e+03
1.24108e-03,7.07463e+03
1.25622e-03,6.78775e+03
1.27155e-03,6.51205e+03
1.28706e-03,6.24713e+03
1.30276e-03,5.99258e+03
1.31865e-03,5.74803e+03
1.33474e-03,5.51309e+03
1.35103e-03,5.28741e+03
1.36751e-03,5.07064e+03
1.38419e-03,4.86244e+03
1.40108e-03,4.66250e+03
1.41817e-03,4.47050e+03
1.43548e-03,4.28614e+03
1.45299e-03,4.10913e+03
1.47072e-03,3.93920e+03
1.48866e-03,3.77606e+03
1.50682e-03,3.61946e+03
1.52520e-03,3.46915e+03
1.54381e-03,3.32489e+03
1.56265e-03,3.18645e+03
1.58171e-03,3.05359e+03
1.60101e-03,2.92611e+03
1.62054e-03,2.80379e+03
1.64031e-03,2.68644e+03
1.66032e-03,2.57386e+03
1.68058e-03,2.46586e+03
1.70108e-03,2.36227e+03
1.72184e-03,2.26291e+03
1.74284e-03,2.16762e+03
1.76411e-03,2.07623e+03
1.78563e-03,1.98859e+03
1.80742e-03,1.90456e+03
1.82947e-03,1.82398e+03
1.85179e-03,1.74673e+03
1.87438e-03,1.67266e+03
1.89725e-03,1.60166e+03
1.92039e-03,1.53360e+03
1.94382e-03,1.46836e+03
1.96754e-03,1.40583e+03
1.99154e-03,1.34590e+03
2.01584e-03,1.28847e+03
2.04043e-03,1.23343e+03
2.06533e-03,1.18068e+03
2.09052e-03,1.13015e+03
2.11603e-03,1.08172e+03
2.14184e-03,1.03533e+03
2.16798e-03,9.90881e+02
2.19442e-03,9.48301e+02
2.22120e-03,9.07512e+02
2.24830e-03,8.68441e+02
2.27573e-03,8.31016e+02
2.30349e-03,7.95171e+02
2.33159e-03,7.60840e+02
2.36004e-03,7.27962e+02
2.38883e-03,6.96476e+02
2.41798e-03,6.66324e+02
2.44748e-03,6.37452e+02
2.47734e-03,6.09807e+02
2.50756e-03,5.83337e+02
2.53815e-03,5.57994e+02
2.56912e-03,5.33730e+02
2.60046e-03,5.10502e+02
2.63219e-03,4.88265e+02
2.66430e-03,4.66978e+02
2.69681e-03,4.46602e+02
2.72971e-03,4.27098e+02
2.76301e-03,4.08429e+02
2.79672e-03,3.90562e+02
2.83084e-03,3.73461e+02
2.86538e-03,3.57095e+02
2.90034e-03,3.41432e+02
2.93572e-03,3.26444e+02
2.97154e-03,3.12101e+02
3.00779e-03,2.98376e+02
3.04449e-03,2.85244e+02
3.08163e-03,2.72678e+02
3.11923e-03,2.60655e+02
3.15728e-03,2.49152e+02
3.19580e-03,2.38146e+02
3.23479e-03,2.27617e+02
3.27426e-03,2.17544e+02
3.31420e-03,2.07908e+02
3.35464e-03,1.98690e+02
3.39556e-03,1.89873e+02
3.43699e-03,1.81438e+02
3.47892e-03,1.73370e+02
3.52137e-03,1.65653e+02
3.56433e-03,1.58272e+02
3.60781e-03,1.51212e+02
3.65183e-03,1.44460e+02
3.69638e-03,1.38003e+02
3.74148e-03,1.31827e+02
3.78713e-03,1.25921e+02
3.83333e-03,1.20273e+02
3.88010e-03,1.14872e+02
3.92743e-03,1.09707e+02
3.97535e-03,1.04768e+02
4.02385e-03,1.00045e+02
4.07294e-03,9.55289e+01
4.12263e-03,9.12108e+01
4.17293e-03,8.70821e+01
4.22384e-03,8.31344e+01
4.27537e-03,7.93600e+01
4.32753e-03,7.57514e+01
4.38033e-03,7.23012e+01
4.43377e-03,6.90027e+01
4.48786e-03,6.58492e+01
4.54262e-03,6.28344e+01
4.59804e-03,5.99523e+01
4.65413e-03,5.71970e+01
4.71092e-03,5.45631e+01
4.76839e-03,5.20453e+01
4.82656e-03,4.96384e+01
4.88545e-03,4.73376e+01
4.94505e-03,4.51384e+01
5.00538e-03,4.30362e+01
5.06645e-03,4.10268e+01
5.12826e-03,3.91061e+01
5.19083e-03,3.72703e+01
5.25416e-03,3.55156e+01
5.31826e-03,3.38385e+01
5.38314e-03,3.22355e+01
5.44882e-03,3.07034e+01
5.51530e-03,2.92392e+01
5.58258e-03,2.78397e+01
5.65069e-03,2.65022e+01
5.71963e-03,2.52240e+01
5.78941e-03,2.40024e+01
5.86004e-03,2.28349e+01
5.93154e-03,2.17192e+01
6.00390e-03,2.06530e+01
6.07715e-03,1.96340e+01
6.15130e-03,1.86603e+01
6.22634e-03,1.77298e+01
6.30230e-03,1.68405e+01
6.37919e-03,1.59908e+01
6.45702e-03,1.51788e+01
6.53580e-03,1.44029e+01
6.61554e-03,1.36615e+01
6.69625e-03,1.29530e+01
6.77794e-03,1.22760e+01
6.86064e-03,1.16291e+01
6.94434e-03,1.10110e+01
7.02906e-03,1.04204e+01
7.11482e-03,9.85603e+00
7.20162e-03,9.31681e+00
7.28948e-03,8.80160e+00
7.37841e-03,8.30932e+00
7.46843e-03,7.83897e+00
7.55955e-03,7.38957e+00
7.65177e-03,6.96018e+00
7.74513e-03,6.54993e+00
7.83962e-03,6.15797e+00
7.93526e-03,5.78348e+00
8.03208e-03,5.42568e+00
8.13007e-03,5.08384e+00
8.22926e-03,4.75724e+00
8.32966e-03,4.44521e+00
8.43128e-03,4.14710e+00
8.53414e-03,3.86230e+00
8.63826e-03,3.59020e+00
8.74365e-03,3.33025e+00
8.85032e-03,3.08190e+00
8.95830e-03,2.84465e+00
9.06759e-03,2.61798e+00
9.17822e-03,2.40144e+00
9.29020e-03,2.19457e+00
9.40354e-03,1.99695e+00
9.51826e-03,1.80815e+00
9.63439e-03,1.62779e+00
9.75193e-03,1.45549e+00
9.87091e-03,1.29089e+00
9.99133e-03,1.13366e+00
1.01132e-02,9.83445e-01
1.02366e-02,8.39952e-01
1.03615e-02,7.02875e-01
1.04879e-02,5.71929e-01
1.06159e-02,4.46840e-01
1.07454e-02,3.27347e-01
1.08765e-02,2.13200e-01
1.10092e-02,1.04160e-01
1.11435e-02,0.00000e+00
