m1=20667.057, m2=71.430, gsp=2.371, rhosp=5830.379
fGW[Hz],dPh[rad]
2.14275e-03,2.20680e+04
2.19286e-03,2.10120e+04
2.24414e-03,2.00061e+04
2.29661e-03,1.90479e+04
2.35032e-03,1.81350e+04
2.40527e-03,1.72654e+04
2.46152e-03,1.64371e+04
2.51908e-03,1.56480e+04
2.57798e-03,1.48963e+04
2.63827e-03,1.41804e+04
2.69996e-03,1.34984e+04
2.76309e-03,1.28487e+04
2.82771e-03,1.22299e+04
2.89383e-03,1.16406e+04
2.96150e-03,1.10792e+04
3.03075e-03,1.05445e+04
3.10162e-03,1.00352e+04
3.17414e-03,9.55017e+03
3.24837e-03,9.08820e+03
3.32433e-03,8.64822e+03
3.40206e-03,8.22919e+03
3.48161e-03,7.83012e+03
3.56303e-03,7.45007e+03
3.64634e-03,7.08814e+03
3.73161e-03,6.74347e+03
3.81887e-03,6.41525e+03
3.90817e-03,6.10269e+03
3.99955e-03,5.80507e+03
4.09308e-03,5.52167e+03
4.18879e-03,5.25182e+03
4.28674e-03,4.99488e+03
4.38698e-03,4.75024e+03
4.48956e-03,4.51731e+03
4.59454e-03,4.29555e+03
4.70198e-03,4.08442e+03
4.81193e-03,3.88341e+03
4.92445e-03,3.69206e+03
5.03960e-03,3.50990e+03
5.15745e-03,3.33650e+03
5.27805e-03,3.17144e+03
5.40147e-03,3.01433e+03
5.52777e-03,2.86478e+03
5.65703e-03,2.72245e+03
5.78932e-03,2.58698e+03
5.92469e-03,2.45806e+03
6.06323e-03,2.33537e+03
6.20501e-03,2.21862e+03
6.35011e-03,2.10751e+03
6.49860e-03,2.00180e+03
6.65056e-03,1.90121e+03
6.80607e-03,1.80551e+03
6.96522e-03,1.71446e+03
7.12810e-03,1.62784e+03
7.29478e-03,1.54544e+03
7.46536e-03,1.46707e+03
7.63992e-03,1.39251e+03
7.81857e-03,1.32161e+03
8.00140e-03,1.25417e+03
8.18850e-03,1.19004e+03
8.37998e-03,1.12906e+03
8.57594e-03,1.07107e+03
8.77647e-03,1.01594e+03
8.98170e-03,9.63527e+02
9.19172e-03,9.13700e+02
9.40666e-03,8.66336e+02
9.62662e-03,8.21317e+02
9.85173e-03,7.78530e+02
1.00821e-02,7.37869e+02
1.03179e-02,6.99231e+02
1.05591e-02,6.62519e+02
1.08060e-02,6.27641e+02
1.10587e-02,5.94507e+02
1.13173e-02,5.63035e+02
1.15820e-02,5.33143e+02
1.18528e-02,5.04756e+02
1.21299e-02,4.77800e+02
1.24136e-02,4.52206e+02
1.27039e-02,4.27909e+02
1.30009e-02,4.04846e+02
1.33049e-02,3.82956e+02
1.36161e-02,3.62183e+02
1.39344e-02,3.42471e+02
1.42603e-02,3.23771e+02
1.45937e-02,3.06031e+02
1.49350e-02,2.89205e+02
1.52842e-02,2.73249e+02
1.56416e-02,2.58119e+02
1.60074e-02,2.43775e+02
1.63817e-02,2.30179e+02
1.67648e-02,2.17294e+02
1.71568e-02,2.05084e+02
1.75580e-02,1.93516e+02
1.79686e-02,1.82558e+02
1.83887e-02,1.72180e+02
1.88187e-02,1.62353e+02
1.92588e-02,1.53050e+02
1.97091e-02,1.44245e+02
2.01700e-02,1.35912e+02
2.06416e-02,1.28027e+02
2.11243e-02,1.20569e+02
2.16183e-02,1.13515e+02
2.21238e-02,1.06846e+02
2.26411e-02,1.00541e+02
2.31706e-02,9.45829e+01
2.37124e-02,8.89528e+01
2.42669e-02,8.36343e+01
2.48343e-02,7.86114e+01
2.54150e-02,7.38689e+01
2.60093e-02,6.93923e+01
2.66175e-02,6.51677e+01
2.72399e-02,6.11820e+01
2.78769e-02,5.74228e+01
2.85288e-02,5.38781e+01
2.91959e-02,5.05367e+01
2.98786e-02,4.73877e+01
3.05772e-02,4.44211e+01
3.12922e-02,4.16269e+01
3.20240e-02,3.89961e+01
3.27728e-02,3.65198e+01
3.35392e-02,3.41897e+01
3.43234e-02,3.19977e+01
3.51260e-02,2.99364e+01
3.59474e-02,2.79987e+01
3.67880e-02,2.61776e+01
3.76482e-02,2.44668e+01
3.85286e-02,2.28600e+01
3.94295e-02,2.13515e+01
4.03515e-02,1.99358e+01
4.12951e-02,1.86076e+01
4.22607e-02,1.73618e+01
4.32490e-02,1.61939e+01
4.42603e-02,1.50993e+01
4.52952e-02,1.40738e+01
4.63544e-02,1.31133e+01
4.74383e-02,1.22141e+01
4.85476e-02,1.13725e+01
4.96829e-02,1.05851e+01
5.08446e-02,9.84878e+00
5.20336e-02,9.16038e+00
5.32503e-02,8.51704e+00
5.44955e-02,7.91602e+00
5.57698e-02,7.35474e+00
5.70739e-02,6.83077e+00
5.84085e-02,6.34179e+00
5.97743e-02,5.88564e+00
6.11720e-02,5.46026e+00
6.26025e-02,5.06372e+00
6.40663e-02,4.69419e+00
6.55644e-02,4.34996e+00
6.70976e-02,4.02941e+00
6.86666e-02,3.73100e+00
7.02722e-02,3.45332e+00
7.19155e-02,3.19500e+00
7.35971e-02,2.95477e+00
7.53181e-02,2.73146e+00
7.70793e-02,2.52392e+00
7.88817e-02,2.33112e+00
8.07262e-02,2.15207e+00
8.26139e-02,1.98583e+00
8.45457e-02,1.83154e+00
8.65227e-02,1.68839e+00
8.85459e-02,1.55561e+00
9.06165e-02,1.43249e+00
9.27354e-02,1.31836e+00
9.49039e-02,1.21259e+00
9.71231e-02,1.11461e+00
9.93942e-02,1.02386e+00
1.01718e-01,9.39830e-01
1.04097e-01,8.62048e-01
1.06531e-01,7.90069e-01
1.09022e-01,7.23476e-01
1.11572e-01,6.61883e-01
1.14181e-01,6.04928e-01
1.16850e-01,5.52275e-01
1.19583e-01,5.03612e-01
1.22379e-01,4.58646e-01
1.25241e-01,4.17107e-01
1.28169e-01,3.78741e-01
1.31167e-01,3.43315e-01
1.34234e-01,3.10611e-01
1.37373e-01,2.80424e-01
1.40585e-01,2.52569e-01
1.43872e-01,2.26869e-01
1.47236e-01,2.03162e-01
1.50679e-01,1.81299e-01
1.54203e-01,1.61139e-01
1.57809e-01,1.42553e-01
1.61499e-01,1.25421e-01
1.65275e-01,1.09633e-01
1.69140e-01,9.50846e-02
1.73095e-01,8.16815e-02
1.77143e-01,6.93353e-02
1.81285e-01,5.79643e-02
1.85524e-01,4.74931e-02
1.89862e-01,3.78519e-02
1.94302e-01,2.89761e-02
1.98845e-01,2.08061e-02
2.03495e-01,1.32867e-02
2.08254e-01,6.36700e-03
2.13123e-01,0.00000e+00
