m1=54716.628, m2=32.801, gsp=2.322, rhosp=1349.581
fGW[Hz],dPh[rad]
2.24831e-03,2.76297e+04
2.28908e-03,2.64482e+04
2.33060e-03,2.53144e+04
2.37286e-03,2.42266e+04
2.41589e-03,2.31828e+04
2.45971e-03,2.21815e+04
2.50432e-03,2.12209e+04
2.54973e-03,2.02996e+04
2.59597e-03,1.94159e+04
2.64305e-03,1.85684e+04
2.69099e-03,1.77557e+04
2.73979e-03,1.69765e+04
2.78948e-03,1.62293e+04
2.84007e-03,1.55131e+04
2.89157e-03,1.48265e+04
2.94401e-03,1.41685e+04
2.99740e-03,1.35378e+04
3.05176e-03,1.29334e+04
3.10711e-03,1.23543e+04
3.16346e-03,1.17995e+04
3.22083e-03,1.12680e+04
3.27924e-03,1.07589e+04
3.33871e-03,1.02713e+04
3.39926e-03,9.80433e+03
3.46091e-03,9.35722e+03
3.52367e-03,8.92915e+03
3.58758e-03,8.51937e+03
3.65264e-03,8.12714e+03
3.71888e-03,7.75176e+03
3.78633e-03,7.39255e+03
3.85500e-03,7.04886e+03
3.92491e-03,6.72007e+03
3.99609e-03,6.40557e+03
4.06856e-03,6.10478e+03
4.14234e-03,5.81715e+03
4.21747e-03,5.54215e+03
4.29395e-03,5.27925e+03
4.37183e-03,5.02796e+03
4.45111e-03,4.78781e+03
4.53184e-03,4.55834e+03
4.61402e-03,4.33910e+03
4.69770e-03,4.12968e+03
4.78290e-03,3.92966e+03
4.86964e-03,3.73866e+03
4.95795e-03,3.55630e+03
5.04787e-03,3.38222e+03
5.13941e-03,3.21607e+03
5.23262e-03,3.05752e+03
5.32752e-03,2.90625e+03
5.42413e-03,2.76194e+03
5.52250e-03,2.62431e+03
5.62266e-03,2.49306e+03
5.72463e-03,2.36793e+03
5.82845e-03,2.24865e+03
5.93415e-03,2.13497e+03
6.04177e-03,2.02664e+03
6.15134e-03,1.92345e+03
6.26290e-03,1.82515e+03
6.37648e-03,1.73154e+03
6.49212e-03,1.64241e+03
6.60986e-03,1.55756e+03
6.72973e-03,1.47681e+03
6.85178e-03,1.39997e+03
6.97604e-03,1.32687e+03
7.10255e-03,1.25734e+03
7.23136e-03,1.19121e+03
7.36251e-03,1.12834e+03
7.49603e-03,1.06858e+03
7.63197e-03,1.01179e+03
7.77038e-03,9.57824e+02
7.91130e-03,9.06559e+02
8.05478e-03,8.57869e+02
8.20086e-03,8.11635e+02
8.34959e-03,7.67743e+02
8.50101e-03,7.26083e+02
8.65518e-03,6.86549e+02
8.81215e-03,6.49042e+02
8.97196e-03,6.13465e+02
9.13467e-03,5.79726e+02
9.30033e-03,5.47738e+02
9.46900e-03,5.17416e+02
9.64073e-03,4.88679e+02
9.81557e-03,4.61450e+02
9.99358e-03,4.35657e+02
1.01748e-02,4.11228e+02
1.03593e-02,3.88097e+02
1.05472e-02,3.66199e+02
1.07385e-02,3.45473e+02
1.09332e-02,3.25860e+02
1.11315e-02,3.07305e+02
1.13334e-02,2.89755e+02
1.15389e-02,2.73157e+02
1.17482e-02,2.57465e+02
1.19613e-02,2.42632e+02
1.21782e-02,2.28613e+02
1.23990e-02,2.15367e+02
1.26239e-02,2.02853e+02
1.28529e-02,1.91034e+02
1.30859e-02,1.79874e+02
1.33233e-02,1.69337e+02
1.35649e-02,1.59391e+02
1.38109e-02,1.50005e+02
1.40614e-02,1.41148e+02
1.43164e-02,1.32793e+02
1.45760e-02,1.24913e+02
1.48404e-02,1.17482e+02
1.51095e-02,1.10475e+02
1.53835e-02,1.03871e+02
1.56625e-02,9.76460e+01
1.59466e-02,9.17805e+01
1.62358e-02,8.62544e+01
1.65302e-02,8.10489e+01
1.68300e-02,7.61464e+01
1.71352e-02,7.15300e+01
1.74460e-02,6.71837e+01
1.77623e-02,6.30924e+01
1.80845e-02,5.92419e+01
1.84125e-02,5.56185e+01
1.87464e-02,5.22094e+01
1.90863e-02,4.90024e+01
1.94325e-02,4.59860e+01
1.97849e-02,4.31493e+01
2.01437e-02,4.04821e+01
2.05090e-02,3.79745e+01
2.08810e-02,3.56174e+01
2.12597e-02,3.34020e+01
2.16452e-02,3.13202e+01
2.20378e-02,2.93641e+01
2.24374e-02,2.75263e+01
2.28444e-02,2.58001e+01
2.32587e-02,2.41787e+01
2.36805e-02,2.26562e+01
2.41099e-02,2.12265e+01
2.45472e-02,1.98842e+01
2.49923e-02,1.86241e+01
2.54456e-02,1.74413e+01
2.59071e-02,1.63313e+01
2.63769e-02,1.52896e+01
2.68553e-02,1.43121e+01
2.73423e-02,1.33950e+01
2.78382e-02,1.25347e+01
2.83430e-02,1.17278e+01
2.88570e-02,1.09709e+01
2.93804e-02,1.02611e+01
2.99132e-02,9.59545e+00
3.04557e-02,8.97133e+00
3.10080e-02,8.38619e+00
3.15704e-02,7.83765e+00
3.21429e-02,7.32345e+00
3.27259e-02,6.84149e+00
3.33194e-02,6.38979e+00
3.39236e-02,5.96649e+00
3.45389e-02,5.56982e+00
3.51652e-02,5.19816e+00
3.58030e-02,4.84994e+00
3.64523e-02,4.52371e+00
3.71134e-02,4.21811e+00
3.77864e-02,3.93185e+00
3.84717e-02,3.66373e+00
3.91694e-02,3.41262e+00
3.98798e-02,3.17745e+00
4.06030e-02,2.95722e+00
4.13394e-02,2.75101e+00
4.20891e-02,2.55792e+00
4.28524e-02,2.37714e+00
4.36296e-02,2.20790e+00
4.44208e-02,2.04945e+00
4.52264e-02,1.90113e+00
4.60466e-02,1.76230e+00
4.68817e-02,1.63235e+00
4.77319e-02,1.51072e+00
4.85976e-02,1.39689e+00
4.94789e-02,1.29035e+00
5.03762e-02,1.19066e+00
5.12898e-02,1.09737e+00
5.22200e-02,1.01007e+00
5.31670e-02,9.28394e-01
5.41312e-02,8.51969e-01
5.51129e-02,7.80467e-01
5.61125e-02,7.13571e-01
5.71301e-02,6.50988e-01
5.81662e-02,5.92442e-01
5.92210e-02,5.37674e-01
6.02951e-02,4.86444e-01
6.13885e-02,4.38523e-01
6.25019e-02,3.93701e-01
6.36354e-02,3.51777e-01
6.47894e-02,3.12566e-01
6.59644e-02,2.75893e-01
6.71607e-02,2.41596e-01
6.83787e-02,2.09521e-01
6.96188e-02,1.79525e-01
7.08814e-02,1.51474e-01
7.21669e-02,1.25243e-01
7.34756e-02,1.00714e-01
7.48082e-02,7.77786e-02
7.61648e-02,5.63324e-02
7.75461e-02,3.62797e-02
7.89525e-02,1.75303e-02
8.03843e-02,0.00000e+00
