m1=483260.504, m2=18.228, gsp=2.019, rhosp=1120.095
fGW[Hz],dPh[rad]
1.62552e-03,6.39044e+01
1.63965e-03,6.17755e+01
1.65390e-03,5.97170e+01
1.66828e-03,5.77265e+01
1.68278e-03,5.58018e+01
1.69741e-03,5.39407e+01
1.71216e-03,5.21411e+01
1.72704e-03,5.04011e+01
1.74206e-03,4.87187e+01
1.75720e-03,4.70919e+01
1.77247e-03,4.55190e+01
1.78788e-03,4.39983e+01
1.80342e-03,4.25279e+01
1.81910e-03,4.11063e+01
1.83491e-03,3.97318e+01
1.85086e-03,3.84029e+01
1.86695e-03,3.71181e+01
1.88318e-03,3.58759e+01
1.89955e-03,3.46750e+01
1.91606e-03,3.35139e+01
1.93271e-03,3.23914e+01
1.94951e-03,3.13062e+01
1.96646e-03,3.02571e+01
1.98355e-03,2.92429e+01
2.00079e-03,2.82624e+01
2.01819e-03,2.73145e+01
2.03573e-03,2.63981e+01
2.05342e-03,2.55122e+01
2.07127e-03,2.46559e+01
2.08928e-03,2.38280e+01
2.10744e-03,2.30278e+01
2.12576e-03,2.22541e+01
2.14424e-03,2.15063e+01
2.16287e-03,2.07834e+01
2.18167e-03,2.00846e+01
2.20064e-03,1.94091e+01
2.21977e-03,1.87561e+01
2.23906e-03,1.81249e+01
2.25853e-03,1.75148e+01
2.27816e-03,1.69251e+01
2.29796e-03,1.63550e+01
2.31794e-03,1.58040e+01
2.33808e-03,1.52713e+01
2.35841e-03,1.47565e+01
2.37891e-03,1.42589e+01
2.39959e-03,1.37779e+01
2.42045e-03,1.33130e+01
2.44148e-03,1.28636e+01
2.46271e-03,1.24293e+01
2.48411e-03,1.20094e+01
2.50571e-03,1.16037e+01
2.52749e-03,1.12115e+01
2.54946e-03,1.08324e+01
2.57162e-03,1.04660e+01
2.59397e-03,1.01119e+01
2.61652e-03,9.76968e+00
2.63926e-03,9.43889e+00
2.66221e-03,9.11918e+00
2.68535e-03,8.81018e+00
2.70869e-03,8.51154e+00
2.73224e-03,8.22291e+00
2.75598e-03,7.94395e+00
2.77994e-03,7.67435e+00
2.80411e-03,7.41378e+00
2.82848e-03,7.16196e+00
2.85307e-03,6.91858e+00
2.87787e-03,6.68336e+00
2.90288e-03,6.45604e+00
2.92812e-03,6.23635e+00
2.95357e-03,6.02403e+00
2.97924e-03,5.81884e+00
3.00514e-03,5.62054e+00
3.03126e-03,5.42889e+00
3.05761e-03,5.24369e+00
3.08419e-03,5.06470e+00
3.11100e-03,4.89172e+00
3.13804e-03,4.72456e+00
3.16532e-03,4.56301e+00
3.19283e-03,4.40690e+00
3.22058e-03,4.25603e+00
3.24858e-03,4.11023e+00
3.27682e-03,3.96933e+00
3.30530e-03,3.83317e+00
3.33403e-03,3.70159e+00
3.36301e-03,3.57443e+00
3.39225e-03,3.45155e+00
3.42173e-03,3.33281e+00
3.45148e-03,3.21806e+00
3.48148e-03,3.10717e+00
3.51174e-03,3.00001e+00
3.54227e-03,2.89646e+00
3.57306e-03,2.79639e+00
3.60412e-03,2.69970e+00
3.63544e-03,2.60625e+00
3.66705e-03,2.51596e+00
3.69892e-03,2.42870e+00
3.73107e-03,2.34438e+00
3.76351e-03,2.26291e+00
3.79622e-03,2.18417e+00
3.82922e-03,2.10809e+00
3.86250e-03,2.03457e+00
3.89608e-03,1.96353e+00
3.92995e-03,1.89489e+00
3.96411e-03,1.82855e+00
3.99856e-03,1.76446e+00
4.03332e-03,1.70252e+00
4.06838e-03,1.64267e+00
4.10375e-03,1.58484e+00
4.13942e-03,1.52895e+00
4.17540e-03,1.47496e+00
4.21169e-03,1.42278e+00
4.24830e-03,1.37236e+00
4.28523e-03,1.32364e+00
4.32248e-03,1.27657e+00
4.36005e-03,1.23108e+00
4.39795e-03,1.18713e+00
4.43618e-03,1.14466e+00
4.47474e-03,1.10362e+00
4.51364e-03,1.06397e+00
4.55287e-03,1.02566e+00
4.59245e-03,9.88638e-01
4.63237e-03,9.52867e-01
4.67264e-03,9.18302e-01
4.71325e-03,8.84905e-01
4.75422e-03,8.52635e-01
4.79555e-03,8.21454e-01
4.83723e-03,7.91326e-01
4.87928e-03,7.62215e-01
4.92169e-03,7.34087e-01
4.96448e-03,7.06909e-01
5.00763e-03,6.80649e-01
5.05116e-03,6.55276e-01
5.09506e-03,6.30759e-01
5.13935e-03,6.07071e-01
5.18403e-03,5.84182e-01
5.22909e-03,5.62067e-01
5.27454e-03,5.40699e-01
5.32039e-03,5.20053e-01
5.36664e-03,5.00104e-01
5.41329e-03,4.80829e-01
5.46034e-03,4.62206e-01
5.50781e-03,4.44212e-01
5.55568e-03,4.26826e-01
5.60398e-03,4.10028e-01
5.65269e-03,3.93797e-01
5.70182e-03,3.78115e-01
5.75139e-03,3.62963e-01
5.80138e-03,3.48323e-01
5.85181e-03,3.34177e-01
5.90267e-03,3.20511e-01
5.95398e-03,3.07306e-01
6.00574e-03,2.94547e-01
6.05794e-03,2.82220e-01
6.11060e-03,2.70310e-01
6.16372e-03,2.58802e-01
6.21730e-03,2.47684e-01
6.27134e-03,2.36941e-01
6.32585e-03,2.26562e-01
6.38084e-03,2.16534e-01
6.43630e-03,2.06845e-01
6.49225e-03,1.97484e-01
6.54869e-03,1.88439e-01
6.60561e-03,1.79700e-01
6.66303e-03,1.71257e-01
6.72095e-03,1.63099e-01
6.77937e-03,1.55218e-01
6.83830e-03,1.47603e-01
6.89774e-03,1.40245e-01
6.95770e-03,1.33137e-01
7.01818e-03,1.26269e-01
7.07918e-03,1.19633e-01
7.14072e-03,1.13222e-01
7.20279e-03,1.07028e-01
7.26540e-03,1.01044e-01
7.32855e-03,9.52617e-02
7.39225e-03,8.96753e-02
7.45651e-03,8.42780e-02
7.52133e-03,7.90634e-02
7.58671e-03,7.40252e-02
7.65265e-03,6.91575e-02
7.71917e-03,6.44546e-02
7.78627e-03,5.99109e-02
7.85395e-03,5.55210e-02
7.92222e-03,5.12796e-02
7.99109e-03,4.71819e-02
8.06055e-03,4.32228e-02
8.13062e-03,3.93978e-02
8.20129e-03,3.57022e-02
8.27258e-03,3.21318e-02
8.34449e-03,2.86822e-02
8.41702e-03,2.53494e-02
8.49019e-03,2.21295e-02
8.56399e-03,1.90186e-02
8.63843e-03,1.60130e-02
8.71352e-03,1.31092e-02
8.78926e-03,1.03037e-02
8.86566e-03,7.59315e-03
8.94273e-03,4.97442e-03
9.02046e-03,2.44437e-03
9.09887e-03,0.00000e+00
