m1=1270.419, m2=13.267, gsp=2.005, rhosp=887.915
fGW[Hz],dPh[rad]
8.09753e-03,1.64392e+01
8.34804e-03,1.53117e+01
8.60629e-03,1.42616e+01
8.87254e-03,1.32834e+01
9.14702e-03,1.23722e+01
9.42999e-03,1.15236e+01
9.72172e-03,1.07331e+01
1.00225e-02,9.99677e+00
1.03325e-02,9.31095e+00
1.06522e-02,8.67214e+00
1.09817e-02,8.07712e+00
1.13214e-02,7.52290e+00
1.16717e-02,7.00668e+00
1.20328e-02,6.52584e+00
1.24050e-02,6.07798e+00
1.27888e-02,5.66083e+00
1.31844e-02,5.27227e+00
1.35923e-02,4.91037e+00
1.40128e-02,4.57327e+00
1.44463e-02,4.25930e+00
1.48932e-02,3.96685e+00
1.53539e-02,3.69446e+00
1.58289e-02,3.44075e+00
1.63186e-02,3.20444e+00
1.68234e-02,2.98434e+00
1.73439e-02,2.77934e+00
1.78804e-02,2.58840e+00
1.84336e-02,2.41055e+00
1.90038e-02,2.24491e+00
1.95918e-02,2.09063e+00
2.01978e-02,1.94693e+00
2.08227e-02,1.81309e+00
2.14669e-02,1.68844e+00
2.21310e-02,1.57233e+00
2.28156e-02,1.46420e+00
2.35214e-02,1.36349e+00
2.42491e-02,1.26969e+00
2.49993e-02,1.18232e+00
2.57726e-02,1.10096e+00
2.65699e-02,1.02518e+00
2.73919e-02,9.54598e-01
2.82393e-02,8.88865e-01
2.91129e-02,8.27646e-01
3.00136e-02,7.70630e-01
3.09421e-02,7.17531e-01
3.18993e-02,6.68078e-01
3.28861e-02,6.22023e-01
3.39035e-02,5.79131e-01
3.49524e-02,5.39187e-01
3.60336e-02,5.01987e-01
3.71484e-02,4.67343e-01
3.82976e-02,4.35081e-01
3.94824e-02,4.05037e-01
4.07038e-02,3.77058e-01
4.19630e-02,3.51003e-01
4.32612e-02,3.26740e-01
4.45995e-02,3.04146e-01
4.59793e-02,2.83106e-01
4.74017e-02,2.63514e-01
4.88681e-02,2.45270e-01
5.03799e-02,2.28282e-01
5.19385e-02,2.12464e-01
5.35452e-02,1.97735e-01
5.52017e-02,1.84020e-01
5.69094e-02,1.71250e-01
5.86700e-02,1.59361e-01
6.04850e-02,1.48291e-01
6.23562e-02,1.37984e-01
6.42852e-02,1.28388e-01
6.62740e-02,1.19453e-01
6.83242e-02,1.11136e-01
7.04379e-02,1.03392e-01
7.26170e-02,9.61834e-02
7.48635e-02,8.94725e-02
7.71795e-02,8.32253e-02
7.95671e-02,7.74100e-02
8.20286e-02,7.19967e-02
8.45662e-02,6.69579e-02
8.71824e-02,6.22678e-02
8.98795e-02,5.79025e-02
9.26600e-02,5.38395e-02
9.55265e-02,5.00581e-02
9.84817e-02,4.65388e-02
1.01528e-01,4.32637e-02
1.04669e-01,4.02159e-02
1.07907e-01,3.73798e-02
1.11246e-01,3.47407e-02
1.14687e-01,3.22851e-02
1.18235e-01,3.00003e-02
1.21893e-01,2.78746e-02
1.25664e-01,2.58970e-02
1.29551e-01,2.40573e-02
1.33559e-01,2.23459e-02
1.37691e-01,2.07540e-02
1.41950e-01,1.92733e-02
1.46342e-01,1.78962e-02
1.50869e-01,1.66155e-02
1.55536e-01,1.54245e-02
1.60348e-01,1.43170e-02
1.65309e-01,1.32873e-02
1.70423e-01,1.23299e-02
1.75695e-01,1.14398e-02
1.81130e-01,1.06125e-02
1.86734e-01,9.84345e-03
1.92510e-01,9.12871e-03
1.98466e-01,8.46448e-03
2.04606e-01,7.84725e-03
2.10935e-01,7.27376e-03
2.17461e-01,6.74097e-03
2.24188e-01,6.24604e-03
2.31124e-01,5.78634e-03
2.38274e-01,5.35940e-03
2.45645e-01,4.96295e-03
2.53244e-01,4.59485e-03
2.61079e-01,4.25313e-03
2.69155e-01,3.93594e-03
2.77482e-01,3.64155e-03
2.86066e-01,3.36838e-03
2.94916e-01,3.11493e-03
3.04040e-01,2.87982e-03
3.13445e-01,2.66176e-03
3.23142e-01,2.45955e-03
3.33139e-01,2.27207e-03
3.43445e-01,2.09828e-03
3.54070e-01,1.93722e-03
3.65023e-01,1.78797e-03
3.76316e-01,1.64971e-03
3.87957e-01,1.52166e-03
3.99959e-01,1.40308e-03
4.12332e-01,1.29331e-03
4.25088e-01,1.19172e-03
4.38239e-01,1.09771e-03
4.51796e-01,1.01075e-03
4.65773e-01,9.30326e-04
4.80182e-01,8.55974e-04
4.95037e-01,7.87253e-04
5.10352e-01,7.23757e-04
5.26140e-01,6.65106e-04
5.42417e-01,6.10949e-04
5.59197e-01,5.60957e-04
5.76497e-01,5.14826e-04
5.94331e-01,4.72274e-04
6.12717e-01,4.33036e-04
6.31672e-01,3.96869e-04
6.51214e-01,3.63545e-04
6.71360e-01,3.32853e-04
6.92129e-01,3.04597e-04
7.13541e-01,2.78594e-04
7.35615e-01,2.54675e-04
7.58372e-01,2.32682e-04
7.81833e-01,2.12471e-04
8.06020e-01,1.93905e-04
8.30955e-01,1.76858e-04
8.56662e-01,1.61214e-04
8.83164e-01,1.46865e-04
9.10485e-01,1.33710e-04
9.38652e-01,1.21656e-04
9.67690e-01,1.10617e-04
9.97627e-01,1.00512e-04
1.02849e+00,9.12680e-05
1.06031e+00,8.28162e-05
1.09311e+00,7.50929e-05
1.12693e+00,6.80395e-05
1.16179e+00,6.16015e-05
1.19773e+00,5.57288e-05
1.23478e+00,5.03748e-05
1.27298e+00,4.54967e-05
1.31236e+00,4.10549e-05
1.35296e+00,3.70128e-05
1.39482e+00,3.33366e-05
1.43797e+00,2.99954e-05
1.48245e+00,2.69604e-05
1.52831e+00,2.42053e-05
1.57559e+00,2.17058e-05
1.62434e+00,1.94397e-05
1.67459e+00,1.73863e-05
1.72639e+00,1.55269e-05
1.77980e+00,1.38442e-05
1.83486e+00,1.23222e-05
1.89162e+00,1.09466e-05
1.95014e+00,9.70391e-06
2.01047e+00,8.58200e-06
2.07267e+00,7.56974e-06
2.13679e+00,6.65692e-06
2.20289e+00,5.83427e-06
2.27104e+00,5.09329e-06
2.34130e+00,4.42625e-06
2.41373e+00,3.82610e-06
2.48840e+00,3.28642e-06
2.56538e+00,2.80138e-06
2.64475e+00,2.36568e-06
2.72656e+00,1.97449e-06
2.81091e+00,1.62344e-06
2.89787e+00,1.30857e-06
2.98752e+00,1.02629e-06
3.07994e+00,7.73334e-07
3.17522e+00,5.46764e-07
3.27345e+00,3.43917e-07
3.37472e+00,1.62386e-07
3.47912e+00,0.00000e+00
