m1=4635.845, m2=12.244, gsp=2.092, rhosp=17.459
fGW[Hz],dPh[rad]
6.03180e-03,7.56218e+01
6.18711e-03,7.13396e+01
6.34642e-03,6.72987e+01
6.50983e-03,6.34854e+01
6.67745e-03,5.98870e+01
6.84938e-03,5.64915e+01
7.02575e-03,5.32873e+01
7.20665e-03,5.02638e+01
7.39221e-03,4.74108e+01
7.58255e-03,4.47186e+01
7.77780e-03,4.21784e+01
7.97806e-03,3.97814e+01
8.18349e-03,3.75197e+01
8.39420e-03,3.53856e+01
8.61034e-03,3.33720e+01
8.83205e-03,3.14721e+01
9.05946e-03,2.96796e+01
9.29273e-03,2.79882e+01
9.53201e-03,2.63924e+01
9.77745e-03,2.48869e+01
1.00292e-02,2.34664e+01
1.02874e-02,2.21262e+01
1.05523e-02,2.08619e+01
1.08240e-02,1.96690e+01
1.11027e-02,1.85437e+01
1.13886e-02,1.74821e+01
1.16819e-02,1.64806e+01
1.19827e-02,1.55359e+01
1.22912e-02,1.46446e+01
1.26077e-02,1.38039e+01
1.29323e-02,1.30109e+01
1.32653e-02,1.22629e+01
1.36069e-02,1.15573e+01
1.39572e-02,1.08917e+01
1.43166e-02,1.02640e+01
1.46853e-02,9.67192e+00
1.50634e-02,9.11351e+00
1.54512e-02,8.58686e+00
1.58491e-02,8.09018e+00
1.62572e-02,7.62177e+00
1.66758e-02,7.18004e+00
1.71052e-02,6.76349e+00
1.75456e-02,6.37069e+00
1.79974e-02,6.00029e+00
1.84608e-02,5.65105e+00
1.89361e-02,5.32175e+00
1.94237e-02,5.01127e+00
1.99239e-02,4.71855e+00
2.04369e-02,4.44259e+00
2.09631e-02,4.18243e+00
2.15029e-02,3.93718e+00
2.20565e-02,3.70600e+00
2.26245e-02,3.48809e+00
2.32070e-02,3.28270e+00
2.38046e-02,3.08911e+00
2.44175e-02,2.90667e+00
2.50462e-02,2.73474e+00
2.56911e-02,2.57271e+00
2.63526e-02,2.42004e+00
2.70312e-02,2.27619e+00
2.77272e-02,2.14065e+00
2.84412e-02,2.01296e+00
2.91735e-02,1.89267e+00
2.99247e-02,1.77935e+00
3.06952e-02,1.67262e+00
3.14855e-02,1.57209e+00
3.22963e-02,1.47742e+00
3.31278e-02,1.38826e+00
3.39808e-02,1.30431e+00
3.48558e-02,1.22526e+00
3.57533e-02,1.15084e+00
3.66739e-02,1.08079e+00
3.76182e-02,1.01484e+00
3.85868e-02,9.52774e-01
3.95804e-02,8.94361e-01
4.05995e-02,8.39394e-01
4.16449e-02,7.87674e-01
4.27172e-02,7.39015e-01
4.38172e-02,6.93241e-01
4.49454e-02,6.50186e-01
4.61027e-02,6.09693e-01
4.72898e-02,5.71616e-01
4.85074e-02,5.35813e-01
4.97564e-02,5.02154e-01
5.10376e-02,4.70515e-01
5.23517e-02,4.40779e-01
5.36997e-02,4.12835e-01
5.50824e-02,3.86579e-01
5.65007e-02,3.61913e-01
5.79556e-02,3.38745e-01
5.94478e-02,3.16987e-01
6.09785e-02,2.96557e-01
6.25487e-02,2.77377e-01
6.41592e-02,2.59374e-01
6.58112e-02,2.42479e-01
6.75058e-02,2.26626e-01
6.92440e-02,2.11755e-01
7.10269e-02,1.97807e-01
7.28558e-02,1.84727e-01
7.47317e-02,1.72465e-01
7.66560e-02,1.60972e-01
7.86298e-02,1.50201e-01
8.06544e-02,1.40110e-01
8.27311e-02,1.30659e-01
8.48614e-02,1.21808e-01
8.70464e-02,1.13522e-01
8.92878e-02,1.05766e-01
9.15868e-02,9.85092e-02
9.39451e-02,9.17207e-02
9.63640e-02,8.53721e-02
9.88453e-02,7.94365e-02
1.01390e-01,7.38888e-02
1.04001e-01,6.87050e-02
1.06679e-01,6.38629e-02
1.09426e-01,5.93411e-02
1.12243e-01,5.51200e-02
1.15134e-01,5.11808e-02
1.18098e-01,4.75059e-02
1.21139e-01,4.40786e-02
1.24258e-01,4.08834e-02
1.27458e-01,3.79057e-02
1.30740e-01,3.51315e-02
1.34106e-01,3.25479e-02
1.37559e-01,3.01427e-02
1.41101e-01,2.79045e-02
1.44734e-01,2.58223e-02
1.48461e-01,2.38861e-02
1.52284e-01,2.20863e-02
1.56205e-01,2.04140e-02
1.60227e-01,1.88607e-02
1.64352e-01,1.74187e-02
1.68584e-01,1.60803e-02
1.72925e-01,1.48388e-02
1.77378e-01,1.36875e-02
1.81945e-01,1.26204e-02
1.86630e-01,1.16317e-02
1.91435e-01,1.07160e-02
1.96364e-01,9.86833e-03
2.01421e-01,9.08395e-03
2.06607e-01,8.35845e-03
2.11927e-01,7.68769e-03
2.17384e-01,7.06782e-03
2.22981e-01,6.49521e-03
2.28722e-01,5.96649e-03
2.34612e-01,5.47851e-03
2.40653e-01,5.02832e-03
2.46849e-01,4.61318e-03
2.53205e-01,4.23052e-03
2.59725e-01,3.87795e-03
2.66413e-01,3.55324e-03
2.73272e-01,3.25432e-03
2.80309e-01,2.97925e-03
2.87526e-01,2.72624e-03
2.94930e-01,2.49361e-03
3.02524e-01,2.27981e-03
3.10314e-01,2.08340e-03
3.18304e-01,1.90303e-03
3.26500e-01,1.73747e-03
3.34907e-01,1.58554e-03
3.43530e-01,1.44619e-03
3.52375e-01,1.31842e-03
3.61449e-01,1.20132e-03
3.70756e-01,1.09403e-03
3.80302e-01,9.95768e-04
3.90094e-01,9.05805e-04
4.00139e-01,8.23470e-04
4.10442e-01,7.48142e-04
4.21010e-01,6.79248e-04
4.31851e-01,6.16260e-04
4.42970e-01,5.58690e-04
4.54376e-01,5.06089e-04
4.66076e-01,4.58043e-04
4.78077e-01,4.14172e-04
4.90387e-01,3.74123e-04
5.03013e-01,3.37576e-04
5.15965e-01,3.04233e-04
5.29251e-01,2.73822e-04
5.42878e-01,2.46092e-04
5.56857e-01,2.20814e-04
5.71195e-01,1.97777e-04
5.85903e-01,1.76788e-04
6.00989e-01,1.57668e-04
6.16464e-01,1.40257e-04
6.32337e-01,1.24404e-04
6.48619e-01,1.09974e-04
6.65320e-01,9.68411e-05
6.82451e-01,8.48920e-05
7.00023e-01,7.40219e-05
7.18048e-01,6.41353e-05
7.36537e-01,5.51451e-05
7.55502e-01,4.69715e-05
7.74955e-01,3.95416e-05
7.94909e-01,3.27889e-05
8.15377e-01,2.66527e-05
8.36372e-01,2.10777e-05
8.57908e-01,1.60134e-05
8.79998e-01,1.14136e-05
9.02656e-01,7.23642e-06
9.25899e-01,3.44351e-06
9.49739e-01,0.00000e+00
