m1=75157.341, m2=6.097, gsp=2.376, rhosp=23.285
fGW[Hz],dPh[rad]
3.90303e-03,6.11255e+04
3.95650e-03,5.84199e+04
4.01069e-03,5.58289e+04
4.06563e-03,5.33481e+04
4.12132e-03,5.09730e+04
4.17778e-03,4.86994e+04
4.23500e-03,4.65231e+04
4.29301e-03,4.44402e+04
4.35182e-03,4.24470e+04
4.41143e-03,4.05398e+04
4.47186e-03,3.87150e+04
4.53311e-03,3.69692e+04
4.59521e-03,3.52994e+04
4.65815e-03,3.37022e+04
4.72196e-03,3.21747e+04
4.78664e-03,3.07140e+04
4.85221e-03,2.93174e+04
4.91867e-03,2.79821e+04
4.98605e-03,2.67056e+04
5.05435e-03,2.54854e+04
5.12358e-03,2.43191e+04
5.19376e-03,2.32045e+04
5.26491e-03,2.21394e+04
5.33703e-03,2.11216e+04
5.41013e-03,2.01493e+04
5.48424e-03,1.92203e+04
5.55936e-03,1.83329e+04
5.63551e-03,1.74853e+04
5.71271e-03,1.66758e+04
5.79096e-03,1.59027e+04
5.87029e-03,1.51644e+04
5.95070e-03,1.44595e+04
6.03221e-03,1.37865e+04
6.11484e-03,1.31440e+04
6.19860e-03,1.25307e+04
6.28351e-03,1.19452e+04
6.36958e-03,1.13864e+04
6.45683e-03,1.08532e+04
6.54527e-03,1.03443e+04
6.63493e-03,9.85866e+03
6.72581e-03,9.39532e+03
6.81794e-03,8.95326e+03
6.91134e-03,8.53152e+03
7.00601e-03,8.12922e+03
7.10198e-03,7.74547e+03
7.19926e-03,7.37945e+03
7.29787e-03,7.03037e+03
7.39784e-03,6.69745e+03
7.49917e-03,6.37999e+03
7.60190e-03,6.07727e+03
7.70603e-03,5.78863e+03
7.81158e-03,5.51343e+03
7.91859e-03,5.25108e+03
8.02706e-03,5.00097e+03
8.13701e-03,4.76256e+03
8.24847e-03,4.53531e+03
8.36146e-03,4.31871e+03
8.47599e-03,4.11227e+03
8.59210e-03,3.91554e+03
8.70979e-03,3.72805e+03
8.82910e-03,3.54940e+03
8.95004e-03,3.37917e+03
9.07263e-03,3.21697e+03
9.19691e-03,3.06243e+03
9.32289e-03,2.91520e+03
9.45059e-03,2.77494e+03
9.58005e-03,2.64133e+03
9.71127e-03,2.51405e+03
9.84430e-03,2.39282e+03
9.97914e-03,2.27735e+03
1.01158e-02,2.16737e+03
1.02544e-02,2.06263e+03
1.03949e-02,1.96288e+03
1.05373e-02,1.86789e+03
1.06816e-02,1.77743e+03
1.08279e-02,1.69130e+03
1.09762e-02,1.60928e+03
1.11266e-02,1.53119e+03
1.12790e-02,1.45684e+03
1.14335e-02,1.38605e+03
1.15901e-02,1.31866e+03
1.17489e-02,1.25451e+03
1.19098e-02,1.19343e+03
1.20729e-02,1.13529e+03
1.22383e-02,1.07995e+03
1.24060e-02,1.02728e+03
1.25759e-02,9.77140e+02
1.27482e-02,9.29419e+02
1.29228e-02,8.84000e+02
1.30998e-02,8.40774e+02
1.32792e-02,7.99636e+02
1.34611e-02,7.60486e+02
1.36455e-02,7.23229e+02
1.38324e-02,6.87776e+02
1.40219e-02,6.54039e+02
1.42140e-02,6.21936e+02
1.44087e-02,5.91390e+02
1.46061e-02,5.62325e+02
1.48061e-02,5.34670e+02
1.50089e-02,5.08359e+02
1.52145e-02,4.83325e+02
1.54229e-02,4.59508e+02
1.56342e-02,4.36849e+02
1.58484e-02,4.15293e+02
1.60655e-02,3.94786e+02
1.62855e-02,3.75277e+02
1.65086e-02,3.56719e+02
1.67347e-02,3.39065e+02
1.69640e-02,3.22272e+02
1.71963e-02,3.06298e+02
1.74319e-02,2.91104e+02
1.76707e-02,2.76651e+02
1.79127e-02,2.62905e+02
1.81581e-02,2.49830e+02
1.84068e-02,2.37394e+02
1.86590e-02,2.25566e+02
1.89145e-02,2.14317e+02
1.91736e-02,2.03618e+02
1.94363e-02,1.93443e+02
1.97025e-02,1.83766e+02
1.99724e-02,1.74563e+02
2.02460e-02,1.65811e+02
2.05233e-02,1.57489e+02
2.08044e-02,1.49574e+02
2.10894e-02,1.42047e+02
2.13783e-02,1.34890e+02
2.16711e-02,1.28083e+02
2.19680e-02,1.21611e+02
2.22689e-02,1.15457e+02
2.25739e-02,1.09605e+02
2.28831e-02,1.04041e+02
2.31966e-02,9.87495e+01
2.35143e-02,9.37186e+01
2.38364e-02,8.89350e+01
2.41630e-02,8.43867e+01
2.44939e-02,8.00622e+01
2.48295e-02,7.59504e+01
2.51696e-02,7.20410e+01
2.55143e-02,6.83240e+01
2.58638e-02,6.47901e+01
2.62181e-02,6.14302e+01
2.65772e-02,5.82358e+01
2.69413e-02,5.51988e+01
2.73103e-02,5.23114e+01
2.76844e-02,4.95664e+01
2.80637e-02,4.69567e+01
2.84481e-02,4.44757e+01
2.88378e-02,4.21170e+01
2.92328e-02,3.98747e+01
2.96332e-02,3.77430e+01
3.00391e-02,3.57165e+01
3.04506e-02,3.37901e+01
3.08677e-02,3.19587e+01
3.12905e-02,3.02177e+01
3.17191e-02,2.85627e+01
3.21536e-02,2.69894e+01
3.25941e-02,2.54939e+01
3.30405e-02,2.40722e+01
3.34931e-02,2.27208e+01
3.39519e-02,2.14361e+01
3.44170e-02,2.02149e+01
3.48884e-02,1.90541e+01
3.53663e-02,1.79507e+01
3.58508e-02,1.69019e+01
3.63418e-02,1.59049e+01
3.68397e-02,1.49572e+01
3.73443e-02,1.40564e+01
3.78558e-02,1.32001e+01
3.83744e-02,1.23862e+01
3.89000e-02,1.16126e+01
3.94329e-02,1.08772e+01
3.99730e-02,1.01783e+01
4.05206e-02,9.51392e+00
4.10756e-02,8.88245e+00
4.16383e-02,8.28224e+00
4.22086e-02,7.71174e+00
4.27868e-02,7.16950e+00
4.33729e-02,6.65410e+00
4.39670e-02,6.16423e+00
4.45693e-02,5.69863e+00
4.51798e-02,5.25608e+00
4.57986e-02,4.83546e+00
4.64260e-02,4.43568e+00
4.70619e-02,4.05570e+00
4.77066e-02,3.69456e+00
4.83601e-02,3.35131e+00
4.90225e-02,3.02507e+00
4.96940e-02,2.71500e+00
5.03747e-02,2.42029e+00
5.10647e-02,2.14020e+00
5.17642e-02,1.87399e+00
5.24733e-02,1.62098e+00
5.31921e-02,1.38052e+00
5.39207e-02,1.15197e+00
5.46593e-02,9.34762e-01
5.54080e-02,7.28323e-01
5.61670e-02,5.32122e-01
5.69364e-02,3.45652e-01
5.77163e-02,1.68431e-01
5.85069e-02,0.00000e+00
