m1=7736.447, m2=5.077, gsp=2.452, rhosp=5072.485
fGW[Hz],dPh[rad]
7.38101e-03,7.31881e+05
7.54390e-03,6.98106e+05
7.71040e-03,6.65838e+05
7.88057e-03,6.35012e+05
8.05449e-03,6.05564e+05
8.23225e-03,5.77434e+05
8.41394e-03,5.50564e+05
8.59963e-03,5.24899e+05
8.78943e-03,5.00386e+05
8.98341e-03,4.76974e+05
9.18167e-03,4.54616e+05
9.38431e-03,4.33264e+05
9.59143e-03,4.12875e+05
9.80311e-03,3.93407e+05
1.00195e-02,3.74818e+05
1.02406e-02,3.57071e+05
1.04666e-02,3.40128e+05
1.06976e-02,3.23953e+05
1.09337e-02,3.08514e+05
1.11750e-02,2.93776e+05
1.14216e-02,2.79711e+05
1.16737e-02,2.66287e+05
1.19313e-02,2.53477e+05
1.21947e-02,2.41253e+05
1.24638e-02,2.29590e+05
1.27389e-02,2.18462e+05
1.30200e-02,2.07846e+05
1.33074e-02,1.97720e+05
1.36011e-02,1.88061e+05
1.39013e-02,1.78848e+05
1.42081e-02,1.70063e+05
1.45216e-02,1.61686e+05
1.48421e-02,1.53698e+05
1.51697e-02,1.46083e+05
1.55045e-02,1.38824e+05
1.58467e-02,1.31904e+05
1.61964e-02,1.25310e+05
1.65538e-02,1.19025e+05
1.69192e-02,1.13037e+05
1.72926e-02,1.07332e+05
1.76742e-02,1.01897e+05
1.80643e-02,9.67198e+04
1.84630e-02,9.17895e+04
1.88705e-02,8.70946e+04
1.92869e-02,8.26245e+04
1.97126e-02,7.83689e+04
2.01477e-02,7.43183e+04
2.05923e-02,7.04632e+04
2.10468e-02,6.67947e+04
2.15113e-02,6.33045e+04
2.19860e-02,5.99843e+04
2.24713e-02,5.68263e+04
2.29672e-02,5.38232e+04
2.34741e-02,5.09679e+04
2.39922e-02,4.82535e+04
2.45217e-02,4.56735e+04
2.50629e-02,4.32217e+04
2.56160e-02,4.08922e+04
2.61814e-02,3.86794e+04
2.67592e-02,3.65777e+04
2.73498e-02,3.45820e+04
2.79534e-02,3.26874e+04
2.85703e-02,3.08890e+04
2.92008e-02,2.91824e+04
2.98453e-02,2.75632e+04
3.05040e-02,2.60273e+04
3.11772e-02,2.45708e+04
3.18653e-02,2.31897e+04
3.25686e-02,2.18807e+04
3.32873e-02,2.06401e+04
3.40220e-02,1.94647e+04
3.47729e-02,1.83513e+04
3.55403e-02,1.72969e+04
3.63247e-02,1.62987e+04
3.71264e-02,1.53539e+04
3.79457e-02,1.44599e+04
3.87832e-02,1.36142e+04
3.96391e-02,1.28143e+04
4.05140e-02,1.20581e+04
4.14081e-02,1.13432e+04
4.23220e-02,1.06678e+04
4.32560e-02,1.00297e+04
4.42107e-02,9.42701e+03
4.51864e-02,8.85804e+03
4.61837e-02,8.32100e+03
4.72030e-02,7.81426e+03
4.82447e-02,7.33626e+03
4.93095e-02,6.88551e+03
5.03978e-02,6.46057e+03
5.15100e-02,6.06009e+03
5.26469e-02,5.68279e+03
5.38088e-02,5.32742e+03
5.49963e-02,4.99284e+03
5.62101e-02,4.67790e+03
5.74507e-02,4.38157e+03
5.87186e-02,4.10282e+03
6.00145e-02,3.84070e+03
6.13390e-02,3.59430e+03
6.26928e-02,3.36274e+03
6.40764e-02,3.14520e+03
6.54906e-02,2.94090e+03
6.69360e-02,2.74910e+03
6.84132e-02,2.56909e+03
6.99231e-02,2.40020e+03
7.14663e-02,2.24179e+03
7.30436e-02,2.09326e+03
7.46556e-02,1.95404e+03
7.63033e-02,1.82358e+03
7.79873e-02,1.70138e+03
7.97085e-02,1.58694e+03
8.14676e-02,1.47982e+03
8.32656e-02,1.37956e+03
8.51033e-02,1.28577e+03
8.69815e-02,1.19804e+03
8.89012e-02,1.11602e+03
9.08633e-02,1.03936e+03
9.28686e-02,9.67717e+02
9.49182e-02,9.00796e+02
9.70131e-02,8.38301e+02
9.91541e-02,7.79954e+02
1.01342e-01,7.25498e+02
1.03579e-01,6.74686e+02
1.05865e-01,6.27288e+02
1.08202e-01,5.83087e+02
1.10590e-01,5.41879e+02
1.13030e-01,5.03471e+02
1.15525e-01,4.67682e+02
1.18074e-01,4.34343e+02
1.20680e-01,4.03294e+02
1.23344e-01,3.74384e+02
1.26066e-01,3.47473e+02
1.28848e-01,3.22429e+02
1.31692e-01,2.99128e+02
1.34598e-01,2.77454e+02
1.37569e-01,2.57298e+02
1.40605e-01,2.38557e+02
1.43708e-01,2.21137e+02
1.46880e-01,2.04947e+02
1.50122e-01,1.89904e+02
1.53435e-01,1.75929e+02
1.56821e-01,1.62950e+02
1.60282e-01,1.50898e+02
1.63819e-01,1.39709e+02
1.67435e-01,1.29322e+02
1.71130e-01,1.19683e+02
1.74907e-01,1.10739e+02
1.78767e-01,1.02441e+02
1.82713e-01,9.47439e+01
1.86745e-01,8.76057e+01
1.90867e-01,8.09867e+01
1.95079e-01,7.48501e+01
1.99384e-01,6.91617e+01
2.03785e-01,6.38896e+01
2.08282e-01,5.90039e+01
2.12879e-01,5.44770e+01
2.17577e-01,5.02831e+01
2.22379e-01,4.63983e+01
2.27287e-01,4.28003e+01
2.32303e-01,3.94684e+01
2.37430e-01,3.63831e+01
2.42670e-01,3.35267e+01
2.48026e-01,3.08825e+01
2.53500e-01,2.84349e+01
2.59095e-01,2.61697e+01
2.64813e-01,2.40734e+01
2.70657e-01,2.21337e+01
2.76631e-01,2.03390e+01
2.82736e-01,1.86787e+01
2.88976e-01,1.71428e+01
2.95354e-01,1.57222e+01
3.01872e-01,1.44083e+01
3.08535e-01,1.31933e+01
3.15344e-01,1.20697e+01
3.22304e-01,1.10308e+01
3.29417e-01,1.00702e+01
3.36687e-01,9.18223e+00
3.44118e-01,8.36134e+00
3.51712e-01,7.60254e+00
3.59475e-01,6.90120e+00
3.67408e-01,6.25300e+00
3.75517e-01,5.65395e+00
3.83805e-01,5.10036e+00
3.92275e-01,4.58882e+00
4.00933e-01,4.11616e+00
4.09781e-01,3.67945e+00
4.18825e-01,3.27598e+00
4.28069e-01,2.90324e+00
4.37516e-01,2.55890e+00
4.47172e-01,2.24082e+00
4.57041e-01,1.94700e+00
4.67128e-01,1.67562e+00
4.77437e-01,1.42497e+00
4.87974e-01,1.19348e+00
4.98744e-01,9.79683e-01
5.09751e-01,7.82246e-01
5.21002e-01,5.99921e-01
5.32500e-01,4.31557e-01
5.44252e-01,2.76092e-01
5.56264e-01,1.32543e-01
5.68541e-01,0.00000e+00
