m1=14488.083, m2=46.466, gsp=2.328, rhosp=4248.201
fGW[Hz],dPh[rad]
2.75141e-03,1.25776e+04
2.81723e-03,1.19552e+04
2.88463e-03,1.13633e+04
2.95365e-03,1.08005e+04
3.02431e-03,1.02652e+04
3.09666e-03,9.75625e+03
3.17075e-03,9.27227e+03
3.24661e-03,8.81205e+03
3.32428e-03,8.37443e+03
3.40381e-03,7.95831e+03
3.48524e-03,7.56264e+03
3.56862e-03,7.18640e+03
3.65400e-03,6.82867e+03
3.74142e-03,6.48853e+03
3.83093e-03,6.16511e+03
3.92258e-03,5.85761e+03
4.01642e-03,5.56525e+03
4.11251e-03,5.28728e+03
4.21090e-03,5.02300e+03
4.31165e-03,4.77174e+03
4.41480e-03,4.53286e+03
4.52042e-03,4.30576e+03
4.62857e-03,4.08986e+03
4.73930e-03,3.88461e+03
4.85268e-03,3.68950e+03
4.96878e-03,3.50402e+03
5.08765e-03,3.32770e+03
5.20937e-03,3.16010e+03
5.33400e-03,3.00079e+03
5.46161e-03,2.84936e+03
5.59228e-03,2.70542e+03
5.72607e-03,2.56861e+03
5.86306e-03,2.43858e+03
6.00333e-03,2.31500e+03
6.14695e-03,2.19754e+03
6.29401e-03,2.08592e+03
6.44459e-03,1.97984e+03
6.59877e-03,1.87903e+03
6.75664e-03,1.78323e+03
6.91829e-03,1.69220e+03
7.08380e-03,1.60571e+03
7.25328e-03,1.52352e+03
7.42681e-03,1.44543e+03
7.60449e-03,1.37124e+03
7.78642e-03,1.30075e+03
7.97270e-03,1.23379e+03
8.16344e-03,1.17017e+03
8.35875e-03,1.10975e+03
8.55872e-03,1.05235e+03
8.76348e-03,9.97824e+02
8.97314e-03,9.46040e+02
9.18782e-03,8.96858e+02
9.40763e-03,8.50150e+02
9.63270e-03,8.05794e+02
9.86315e-03,7.63674e+02
1.00991e-02,7.23680e+02
1.03407e-02,6.85707e+02
1.05881e-02,6.49654e+02
1.08414e-02,6.15428e+02
1.11008e-02,5.82937e+02
1.13664e-02,5.52096e+02
1.16383e-02,5.22822e+02
1.19168e-02,4.95040e+02
1.22019e-02,4.68673e+02
1.24938e-02,4.43653e+02
1.27927e-02,4.19913e+02
1.30987e-02,3.97388e+02
1.34121e-02,3.76019e+02
1.37330e-02,3.55747e+02
1.40615e-02,3.36519e+02
1.43979e-02,3.18283e+02
1.47424e-02,3.00988e+02
1.50951e-02,2.84588e+02
1.54562e-02,2.69039e+02
1.58260e-02,2.54297e+02
1.62046e-02,2.40323e+02
1.65923e-02,2.27077e+02
1.69893e-02,2.14524e+02
1.73957e-02,2.02629e+02
1.78119e-02,1.91357e+02
1.82380e-02,1.80680e+02
1.86744e-02,1.70565e+02
1.91211e-02,1.60985e+02
1.95786e-02,1.51913e+02
2.00470e-02,1.43323e+02
2.05266e-02,1.35191e+02
2.10177e-02,1.27493e+02
2.15205e-02,1.20208e+02
2.20354e-02,1.13314e+02
2.25626e-02,1.06791e+02
2.31023e-02,1.00621e+02
2.36550e-02,9.47860e+01
2.42210e-02,8.92679e+01
2.48004e-02,8.40508e+01
2.53938e-02,7.91193e+01
2.60013e-02,7.44586e+01
2.66234e-02,7.00547e+01
2.72603e-02,6.58944e+01
2.79125e-02,6.19649e+01
2.85803e-02,5.82543e+01
2.92640e-02,5.47511e+01
2.99641e-02,5.14445e+01
3.06810e-02,4.83242e+01
3.14150e-02,4.53804e+01
3.21666e-02,4.26037e+01
3.29362e-02,3.99853e+01
3.37241e-02,3.75169e+01
3.45309e-02,3.51903e+01
3.53571e-02,3.29981e+01
3.62030e-02,3.09331e+01
3.70691e-02,2.89883e+01
3.79559e-02,2.71574e+01
3.88640e-02,2.54340e+01
3.97938e-02,2.38125e+01
4.07458e-02,2.22871e+01
4.17206e-02,2.08527e+01
4.27187e-02,1.95042e+01
4.37408e-02,1.82369e+01
4.47872e-02,1.70462e+01
4.58587e-02,1.59279e+01
4.69558e-02,1.48780e+01
4.80792e-02,1.38925e+01
4.92295e-02,1.29678e+01
5.04073e-02,1.21005e+01
5.16132e-02,1.12872e+01
5.28480e-02,1.05250e+01
5.41124e-02,9.81073e+00
5.54069e-02,9.14172e+00
5.67325e-02,8.51530e+00
5.80898e-02,7.92897e+00
5.94795e-02,7.38037e+00
6.09025e-02,6.86725e+00
6.23596e-02,6.38750e+00
6.38515e-02,5.93911e+00
6.53791e-02,5.52018e+00
6.69432e-02,5.12893e+00
6.85448e-02,4.76367e+00
7.01846e-02,4.42279e+00
7.18638e-02,4.10479e+00
7.35830e-02,3.80824e+00
7.53434e-02,3.53180e+00
7.71460e-02,3.27421e+00
7.89916e-02,3.03426e+00
8.08814e-02,2.81084e+00
8.28165e-02,2.60288e+00
8.47978e-02,2.40939e+00
8.68265e-02,2.22943e+00
8.89037e-02,2.06211e+00
9.10307e-02,1.90660e+00
9.32085e-02,1.76212e+00
9.54384e-02,1.62794e+00
9.77217e-02,1.50336e+00
1.00060e-01,1.38775e+00
1.02453e-01,1.28049e+00
1.04905e-01,1.18102e+00
1.07414e-01,1.08881e+00
1.09984e-01,1.00334e+00
1.12615e-01,9.24165e-01
1.15310e-01,8.50835e-01
1.18068e-01,7.82943e-01
1.20893e-01,7.20108e-01
1.23785e-01,6.61970e-01
1.26747e-01,6.08196e-01
1.29779e-01,5.58474e-01
1.32884e-01,5.12512e-01
1.36063e-01,4.70039e-01
1.39318e-01,4.30802e-01
1.42651e-01,3.94564e-01
1.46064e-01,3.61107e-01
1.49559e-01,3.30225e-01
1.53137e-01,3.01727e-01
1.56800e-01,2.75438e-01
1.60552e-01,2.51191e-01
1.64393e-01,2.28835e-01
1.68326e-01,2.08226e-01
1.72353e-01,1.89234e-01
1.76476e-01,1.71735e-01
1.80698e-01,1.55616e-01
1.85021e-01,1.40771e-01
1.89448e-01,1.27102e-01
1.93980e-01,1.14520e-01
1.98621e-01,1.02940e-01
2.03373e-01,9.22852e-02
2.08238e-01,8.24828e-02
2.13220e-01,7.34667e-02
2.18321e-01,6.51755e-02
2.23544e-01,5.75522e-02
2.28892e-01,5.05442e-02
2.34369e-01,4.41032e-02
2.39976e-01,3.81841e-02
2.45717e-01,3.27457e-02
2.51595e-01,2.77496e-02
2.57615e-01,2.31607e-02
2.63778e-01,1.89463e-02
2.70088e-01,1.50765e-02
2.76550e-01,1.15236e-02
2.83166e-01,8.26206e-03
2.89941e-01,5.26844e-03
2.96877e-01,2.52107e-03
3.03980e-01,0.00000e+00
