m1=471762.543, m2=3.291, gsp=2.238, rhosp=67.569
fGW[Hz],dPh[rad]
3.10713e-03,6.75014e+02
3.12433e-03,6.60666e+02
3.14162e-03,6.46619e+02
3.15901e-03,6.32865e+02
3.17650e-03,6.19399e+02
3.19408e-03,6.06215e+02
3.21176e-03,5.93307e+02
3.22954e-03,5.80669e+02
3.24742e-03,5.68296e+02
3.26540e-03,5.56181e+02
3.28347e-03,5.44320e+02
3.30165e-03,5.32707e+02
3.31992e-03,5.21338e+02
3.33830e-03,5.10206e+02
3.35678e-03,4.99307e+02
3.37536e-03,4.88637e+02
3.39404e-03,4.78189e+02
3.41283e-03,4.67961e+02
3.43172e-03,4.57946e+02
3.45072e-03,4.48141e+02
3.46982e-03,4.38542e+02
3.48903e-03,4.29143e+02
3.50834e-03,4.19941e+02
3.52776e-03,4.10932e+02
3.54729e-03,4.02112e+02
3.56692e-03,3.93476e+02
3.58667e-03,3.85021e+02
3.60652e-03,3.76742e+02
3.62649e-03,3.68638e+02
3.64656e-03,3.60703e+02
3.66675e-03,3.52934e+02
3.68704e-03,3.45327e+02
3.70745e-03,3.37880e+02
3.72798e-03,3.30589e+02
3.74861e-03,3.23451e+02
3.76936e-03,3.16462e+02
3.79023e-03,3.09619e+02
3.81121e-03,3.02920e+02
3.83230e-03,2.96361e+02
3.85352e-03,2.89939e+02
3.87485e-03,2.83652e+02
3.89630e-03,2.77497e+02
3.91786e-03,2.71470e+02
3.93955e-03,2.65570e+02
3.96136e-03,2.59793e+02
3.98329e-03,2.54137e+02
4.00534e-03,2.48600e+02
4.02751e-03,2.43178e+02
4.04980e-03,2.37870e+02
4.07222e-03,2.32674e+02
4.09476e-03,2.27586e+02
4.11743e-03,2.22605e+02
4.14022e-03,2.17728e+02
4.16314e-03,2.12953e+02
4.18618e-03,2.08278e+02
4.20935e-03,2.03701e+02
4.23265e-03,1.99220e+02
4.25608e-03,1.94833e+02
4.27964e-03,1.90538e+02
4.30333e-03,1.86333e+02
4.32715e-03,1.82216e+02
4.35111e-03,1.78185e+02
4.37519e-03,1.74238e+02
4.39941e-03,1.70375e+02
4.42376e-03,1.66592e+02
4.44825e-03,1.62888e+02
4.47287e-03,1.59262e+02
4.49763e-03,1.55712e+02
4.52253e-03,1.52237e+02
4.54756e-03,1.48834e+02
4.57274e-03,1.45502e+02
4.59805e-03,1.42241e+02
4.62350e-03,1.39047e+02
4.64909e-03,1.35921e+02
4.67483e-03,1.32860e+02
4.70071e-03,1.29863e+02
4.72673e-03,1.26929e+02
4.75289e-03,1.24056e+02
4.77920e-03,1.21244e+02
4.80566e-03,1.18490e+02
4.83226e-03,1.15795e+02
4.85901e-03,1.13155e+02
4.88590e-03,1.10571e+02
4.91295e-03,1.08042e+02
4.94014e-03,1.05565e+02
4.96749e-03,1.03140e+02
4.99499e-03,1.00766e+02
5.02264e-03,9.84414e+01
5.05044e-03,9.61658e+01
5.07839e-03,9.39378e+01
5.10651e-03,9.17565e+01
5.13477e-03,8.96210e+01
5.16320e-03,8.75302e+01
5.19178e-03,8.54832e+01
5.22052e-03,8.34792e+01
5.24941e-03,8.15171e+01
5.27847e-03,7.95961e+01
5.30769e-03,7.77154e+01
5.33707e-03,7.58741e+01
5.36661e-03,7.40714e+01
5.39632e-03,7.23065e+01
5.42619e-03,7.05786e+01
5.45623e-03,6.88869e+01
5.48643e-03,6.72307e+01
5.51680e-03,6.56091e+01
5.54734e-03,6.40216e+01
5.57804e-03,6.24673e+01
5.60892e-03,6.09456e+01
5.63997e-03,5.94558e+01
5.67119e-03,5.79972e+01
5.70258e-03,5.65692e+01
5.73415e-03,5.51711e+01
5.76589e-03,5.38024e+01
5.79781e-03,5.24623e+01
5.82990e-03,5.11503e+01
5.86217e-03,4.98658e+01
5.89462e-03,4.86083e+01
5.92725e-03,4.73771e+01
5.96006e-03,4.61717e+01
5.99305e-03,4.49915e+01
6.02623e-03,4.38362e+01
6.05958e-03,4.27050e+01
6.09313e-03,4.15975e+01
6.12685e-03,4.05133e+01
6.16077e-03,3.94518e+01
6.19487e-03,3.84125e+01
6.22916e-03,3.73951e+01
6.26364e-03,3.63989e+01
6.29832e-03,3.54236e+01
6.33318e-03,3.44688e+01
6.36824e-03,3.35340e+01
6.40349e-03,3.26188e+01
6.43893e-03,3.17228e+01
6.47458e-03,3.08456e+01
6.51042e-03,2.99868e+01
6.54645e-03,2.91459e+01
6.58269e-03,2.83227e+01
6.61913e-03,2.75168e+01
6.65577e-03,2.67277e+01
6.69261e-03,2.59552e+01
6.72966e-03,2.51989e+01
6.76691e-03,2.44584e+01
6.80437e-03,2.37335e+01
6.84203e-03,2.30238e+01
6.87991e-03,2.23289e+01
6.91799e-03,2.16486e+01
6.95628e-03,2.09826e+01
6.99479e-03,2.03306e+01
7.03351e-03,1.96922e+01
7.07244e-03,1.90672e+01
7.11159e-03,1.84553e+01
7.15096e-03,1.78562e+01
7.19054e-03,1.72697e+01
7.23034e-03,1.66955e+01
7.27037e-03,1.61333e+01
7.31061e-03,1.55829e+01
7.35108e-03,1.50441e+01
7.39177e-03,1.45166e+01
7.43269e-03,1.40001e+01
7.47383e-03,1.34944e+01
7.51520e-03,1.29994e+01
7.55680e-03,1.25147e+01
7.59863e-03,1.20402e+01
7.64069e-03,1.15756e+01
7.68299e-03,1.11208e+01
7.72552e-03,1.06755e+01
7.76828e-03,1.02396e+01
7.81128e-03,9.81279e+00
7.85452e-03,9.39494e+00
7.89800e-03,8.98585e+00
7.94172e-03,8.58534e+00
7.98568e-03,8.19322e+00
8.02988e-03,7.80933e+00
8.07433e-03,7.43349e+00
8.11903e-03,7.06553e+00
8.16397e-03,6.70529e+00
8.20916e-03,6.35260e+00
8.25460e-03,6.00731e+00
8.30030e-03,5.66926e+00
8.34624e-03,5.33829e+00
8.39244e-03,5.01427e+00
8.43890e-03,4.69704e+00
8.48561e-03,4.38646e+00
8.53258e-03,4.08240e+00
8.57981e-03,3.78472e+00
8.62731e-03,3.49327e+00
8.67506e-03,3.20794e+00
8.72308e-03,2.92859e+00
8.77137e-03,2.65510e+00
8.81992e-03,2.38735e+00
8.86875e-03,2.12521e+00
8.91784e-03,1.86857e+00
8.96720e-03,1.61731e+00
9.01684e-03,1.37132e+00
9.06675e-03,1.13048e+00
9.11694e-03,8.94703e-01
9.16741e-03,6.63867e-01
9.21815e-03,4.37871e-01
9.26918e-03,2.16616e-01
9.32049e-03,0.00000e+00
