m1=2263.680, m2=64.922, gsp=2.091, rhosp=2578.120
fGW[Hz],dPh[rad]
3.87253e-03,2.94982e+01
3.99572e-03,2.74708e+01
4.12283e-03,2.55826e+01
4.25399e-03,2.38242e+01
4.38931e-03,2.21867e+01
4.52895e-03,2.06616e+01
4.67302e-03,1.92414e+01
4.82168e-03,1.79187e+01
4.97506e-03,1.66870e+01
5.13333e-03,1.55399e+01
5.29663e-03,1.44716e+01
5.46512e-03,1.34767e+01
5.63898e-03,1.25502e+01
5.81836e-03,1.16874e+01
6.00345e-03,1.08838e+01
6.19443e-03,1.01355e+01
6.39149e-03,9.43864e+00
6.59481e-03,8.78965e+00
6.80461e-03,8.18526e+00
7.02107e-03,7.62241e+00
7.24443e-03,7.09824e+00
7.47488e-03,6.61009e+00
7.71267e-03,6.15550e+00
7.95803e-03,5.73215e+00
8.21118e-03,5.33790e+00
8.47240e-03,4.97074e+00
8.74192e-03,4.62883e+00
9.02001e-03,4.31041e+00
9.30695e-03,4.01388e+00
9.60302e-03,3.73774e+00
9.90851e-03,3.48058e+00
1.02237e-02,3.24109e+00
1.05490e-02,3.01807e+00
1.08845e-02,2.81038e+00
1.12308e-02,2.61697e+00
1.15881e-02,2.43685e+00
1.19567e-02,2.26912e+00
1.23371e-02,2.11292e+00
1.27295e-02,1.96746e+00
1.31345e-02,1.83200e+00
1.35523e-02,1.70586e+00
1.39834e-02,1.58839e+00
1.44283e-02,1.47900e+00
1.48872e-02,1.37713e+00
1.53608e-02,1.28227e+00
1.58495e-02,1.19393e+00
1.63537e-02,1.11166e+00
1.68739e-02,1.03506e+00
1.74107e-02,9.63723e-01
1.79646e-02,8.97294e-01
1.85361e-02,8.35436e-01
1.91257e-02,7.77833e-01
1.97342e-02,7.24193e-01
2.03619e-02,6.74244e-01
2.10097e-02,6.27732e-01
2.16780e-02,5.84421e-01
2.23677e-02,5.44091e-01
2.30792e-02,5.06536e-01
2.38134e-02,4.71567e-01
2.45709e-02,4.39004e-01
2.53526e-02,4.08684e-01
2.61591e-02,3.80451e-01
2.69913e-02,3.54162e-01
2.78499e-02,3.29683e-01
2.87358e-02,3.06891e-01
2.96500e-02,2.85668e-01
3.05932e-02,2.65907e-01
3.15664e-02,2.47508e-01
3.25706e-02,2.30377e-01
3.36067e-02,2.14426e-01
3.46758e-02,1.99575e-01
3.57789e-02,1.85747e-01
3.69171e-02,1.72873e-01
3.80915e-02,1.60887e-01
3.93033e-02,1.49727e-01
4.05536e-02,1.39337e-01
4.18436e-02,1.29664e-01
4.31748e-02,1.20659e-01
4.45482e-02,1.12275e-01
4.59654e-02,1.04470e-01
4.74276e-02,9.72034e-02
4.89364e-02,9.04391e-02
5.04931e-02,8.41421e-02
5.20994e-02,7.82802e-02
5.37568e-02,7.28236e-02
5.54669e-02,6.77442e-02
5.72314e-02,6.30161e-02
5.90520e-02,5.86150e-02
6.09305e-02,5.45186e-02
6.28688e-02,5.07057e-02
6.48688e-02,4.71569e-02
6.69324e-02,4.38539e-02
6.90616e-02,4.07798e-02
7.12586e-02,3.79188e-02
7.35255e-02,3.52563e-02
7.58644e-02,3.27785e-02
7.82778e-02,3.04727e-02
8.07680e-02,2.83271e-02
8.33373e-02,2.63305e-02
8.59884e-02,2.44727e-02
8.87239e-02,2.27442e-02
9.15463e-02,2.11359e-02
9.44586e-02,1.96397e-02
9.74635e-02,1.82477e-02
1.00564e-01,1.69527e-02
1.03763e-01,1.57481e-02
1.07064e-01,1.46276e-02
1.10470e-01,1.35854e-02
1.13984e-01,1.26161e-02
1.17610e-01,1.17146e-02
1.21351e-01,1.08762e-02
1.25212e-01,1.00966e-02
1.29195e-01,9.37164e-03
1.33305e-01,8.69761e-03
1.37546e-01,8.07096e-03
1.41921e-01,7.48839e-03
1.46436e-01,6.94686e-03
1.51094e-01,6.44350e-03
1.55901e-01,5.97567e-03
1.60860e-01,5.54091e-03
1.65978e-01,5.13690e-03
1.71258e-01,4.76152e-03
1.76706e-01,4.41277e-03
1.82327e-01,4.08880e-03
1.88127e-01,3.78787e-03
1.94112e-01,3.50838e-03
2.00287e-01,3.24884e-03
2.06658e-01,3.00785e-03
2.13232e-01,2.78412e-03
2.20016e-01,2.57643e-03
2.27015e-01,2.38366e-03
2.34237e-01,2.20478e-03
2.41688e-01,2.03880e-03
2.49377e-01,1.88481e-03
2.57310e-01,1.74198e-03
2.65495e-01,1.60952e-03
2.73941e-01,1.48670e-03
2.82655e-01,1.37284e-03
2.91647e-01,1.26730e-03
3.00925e-01,1.16950e-03
3.10498e-01,1.07889e-03
3.20375e-01,9.94958e-04
3.30567e-01,9.17230e-04
3.41083e-01,8.45264e-04
3.51934e-01,7.78649e-04
3.63129e-01,7.17004e-04
3.74681e-01,6.59973e-04
3.86600e-01,6.07224e-04
3.98899e-01,5.58450e-04
4.11588e-01,5.13365e-04
4.24682e-01,4.71703e-04
4.38191e-01,4.33215e-04
4.52131e-01,3.97671e-04
4.66514e-01,3.64858e-04
4.81355e-01,3.34576e-04
4.96667e-01,3.06640e-04
5.12467e-01,2.80877e-04
5.28770e-01,2.57128e-04
5.45591e-01,2.35245e-04
5.62947e-01,2.15087e-04
5.80855e-01,1.96529e-04
5.99333e-01,1.79449e-04
6.18399e-01,1.63737e-04
6.38071e-01,1.49290e-04
6.58370e-01,1.36013e-04
6.79313e-01,1.23816e-04
7.00924e-01,1.12618e-04
7.23221e-01,1.02342e-04
7.46228e-01,9.29157e-05
7.69967e-01,8.42747e-05
7.94461e-01,7.63576e-05
8.19734e-01,6.91077e-05
8.45811e-01,6.24724e-05
8.72718e-01,5.64032e-05
9.00481e-01,5.08550e-05
9.29126e-01,4.57861e-05
9.58683e-01,4.11578e-05
9.89181e-01,3.69345e-05
1.02065e+00,3.30830e-05
1.05312e+00,2.95729e-05
1.08662e+00,2.63758e-05
1.12119e+00,2.34658e-05
1.15685e+00,2.08187e-05
1.19365e+00,1.84123e-05
1.23163e+00,1.62262e-05
1.27081e+00,1.42416e-05
1.31123e+00,1.24409e-05
1.35295e+00,1.08083e-05
1.39598e+00,9.32898e-06
1.44039e+00,7.98948e-06
1.48621e+00,6.77734e-06
1.53349e+00,5.68119e-06
1.58228e+00,4.69056e-06
1.63261e+00,3.79586e-06
1.68455e+00,2.98833e-06
1.73814e+00,2.25993e-06
1.79343e+00,1.60332e-06
1.85048e+00,1.01179e-06
1.90935e+00,4.79210e-07
1.97009e+00,0.00000e+00
