m1=630301.794, m2=38.131, gsp=2.122, rhosp=253.104
fGW[Hz],dPh[rad]
1.15332e-03,2.06578e+02
1.16380e-03,1.99586e+02
1.17437e-03,1.92828e+02
1.18504e-03,1.86296e+02
1.19581e-03,1.79982e+02
1.20667e-03,1.73880e+02
1.21763e-03,1.67982e+02
1.22870e-03,1.62281e+02
1.23986e-03,1.56772e+02
1.25113e-03,1.51448e+02
1.26249e-03,1.46302e+02
1.27396e-03,1.41330e+02
1.28554e-03,1.36524e+02
1.29722e-03,1.31880e+02
1.30900e-03,1.27392e+02
1.32090e-03,1.23055e+02
1.33290e-03,1.18864e+02
1.34501e-03,1.14814e+02
1.35723e-03,1.10900e+02
1.36956e-03,1.07119e+02
1.38200e-03,1.03465e+02
1.39456e-03,9.99345e+01
1.40723e-03,9.65231e+01
1.42002e-03,9.32269e+01
1.43292e-03,9.00420e+01
1.44594e-03,8.69648e+01
1.45907e-03,8.39917e+01
1.47233e-03,8.11191e+01
1.48571e-03,7.83438e+01
1.49921e-03,7.56624e+01
1.51283e-03,7.30719e+01
1.52657e-03,7.05691e+01
1.54044e-03,6.81512e+01
1.55444e-03,6.58152e+01
1.56856e-03,6.35585e+01
1.58281e-03,6.13784e+01
1.59719e-03,5.92723e+01
1.61170e-03,5.72377e+01
1.62635e-03,5.52722e+01
1.64112e-03,5.33735e+01
1.65604e-03,5.15394e+01
1.67108e-03,4.97676e+01
1.68626e-03,4.80561e+01
1.70158e-03,4.64029e+01
1.71704e-03,4.48059e+01
1.73265e-03,4.32633e+01
1.74839e-03,4.17733e+01
1.76427e-03,4.03340e+01
1.78030e-03,3.89438e+01
1.79648e-03,3.76010e+01
1.81280e-03,3.63040e+01
1.82927e-03,3.50512e+01
1.84589e-03,3.38412e+01
1.86266e-03,3.26725e+01
1.87958e-03,3.15437e+01
1.89666e-03,3.04535e+01
1.91389e-03,2.94005e+01
1.93128e-03,2.83835e+01
1.94883e-03,2.74012e+01
1.96654e-03,2.64526e+01
1.98440e-03,2.55363e+01
2.00243e-03,2.46515e+01
2.02063e-03,2.37969e+01
2.03899e-03,2.29715e+01
2.05751e-03,2.21744e+01
2.07620e-03,2.14047e+01
2.09507e-03,2.06612e+01
2.11410e-03,1.99433e+01
2.13331e-03,1.92499e+01
2.15269e-03,1.85804e+01
2.17225e-03,1.79337e+01
2.19199e-03,1.73093e+01
2.21190e-03,1.67063e+01
2.23200e-03,1.61239e+01
2.25228e-03,1.55616e+01
2.27274e-03,1.50185e+01
2.29339e-03,1.44941e+01
2.31423e-03,1.39877e+01
2.33526e-03,1.34987e+01
2.35647e-03,1.30265e+01
2.37788e-03,1.25705e+01
2.39949e-03,1.21302e+01
2.42129e-03,1.17050e+01
2.44329e-03,1.12944e+01
2.46549e-03,1.08979e+01
2.48789e-03,1.05151e+01
2.51049e-03,1.01455e+01
2.53330e-03,9.78855e+00
2.55632e-03,9.44390e+00
2.57954e-03,9.11111e+00
2.60298e-03,8.78978e+00
2.62663e-03,8.47951e+00
2.65049e-03,8.17992e+00
2.67457e-03,7.89065e+00
2.69887e-03,7.61134e+00
2.72340e-03,7.34166e+00
2.74814e-03,7.08126e+00
2.77311e-03,6.82985e+00
2.79830e-03,6.58709e+00
2.82373e-03,6.35271e+00
2.84938e-03,6.12640e+00
2.87527e-03,5.90790e+00
2.90140e-03,5.69693e+00
2.92776e-03,5.49324e+00
2.95436e-03,5.29658e+00
2.98120e-03,5.10670e+00
3.00829e-03,4.92338e+00
3.03562e-03,4.74638e+00
3.06320e-03,4.57549e+00
3.09103e-03,4.41049e+00
3.11911e-03,4.25120e+00
3.14745e-03,4.09740e+00
3.17605e-03,3.94892e+00
3.20491e-03,3.80556e+00
3.23402e-03,3.66716e+00
3.26341e-03,3.53354e+00
3.29306e-03,3.40453e+00
3.32298e-03,3.27998e+00
3.35317e-03,3.15973e+00
3.38363e-03,3.04365e+00
3.41438e-03,2.93157e+00
3.44540e-03,2.82337e+00
3.47670e-03,2.71891e+00
3.50829e-03,2.61806e+00
3.54016e-03,2.52069e+00
3.57233e-03,2.42670e+00
3.60479e-03,2.33595e+00
3.63754e-03,2.24835e+00
3.67059e-03,2.16378e+00
3.70394e-03,2.08213e+00
3.73759e-03,2.00330e+00
3.77155e-03,1.92721e+00
3.80581e-03,1.85375e+00
3.84039e-03,1.78283e+00
3.87529e-03,1.71436e+00
3.91049e-03,1.64827e+00
3.94602e-03,1.58446e+00
3.98188e-03,1.52286e+00
4.01805e-03,1.46340e+00
4.05456e-03,1.40599e+00
4.09140e-03,1.35057e+00
4.12857e-03,1.29708e+00
4.16608e-03,1.24543e+00
4.20393e-03,1.19557e+00
4.24213e-03,1.14744e+00
4.28067e-03,1.10098e+00
4.31956e-03,1.05613e+00
4.35881e-03,1.01283e+00
4.39841e-03,9.71037e-01
4.43838e-03,9.30688e-01
4.47870e-03,8.91737e-01
4.51939e-03,8.54137e-01
4.56045e-03,8.17840e-01
4.60189e-03,7.82801e-01
4.64370e-03,7.48977e-01
4.68589e-03,7.16326e-01
4.72847e-03,6.84807e-01
4.77143e-03,6.54380e-01
4.81478e-03,6.25009e-01
4.85852e-03,5.96656e-01
4.90267e-03,5.69287e-01
4.94721e-03,5.42867e-01
4.99216e-03,5.17363e-01
5.03752e-03,4.92744e-01
5.08328e-03,4.68979e-01
5.12947e-03,4.46038e-01
5.17607e-03,4.23893e-01
5.22310e-03,4.02517e-01
5.27056e-03,3.81882e-01
5.31844e-03,3.61963e-01
5.36676e-03,3.42736e-01
5.41552e-03,3.24176e-01
5.46473e-03,3.06259e-01
5.51438e-03,2.88965e-01
5.56448e-03,2.72271e-01
5.61504e-03,2.56156e-01
5.66605e-03,2.40601e-01
5.71753e-03,2.25585e-01
5.76948e-03,2.11091e-01
5.82190e-03,1.97100e-01
5.87480e-03,1.83595e-01
5.92817e-03,1.70559e-01
5.98203e-03,1.57975e-01
6.03638e-03,1.45828e-01
6.09123e-03,1.34104e-01
6.14657e-03,1.22786e-01
6.20242e-03,1.11861e-01
6.25877e-03,1.01316e-01
6.31563e-03,9.11365e-02
6.37302e-03,8.13109e-02
6.43092e-03,7.18265e-02
6.48935e-03,6.26716e-02
6.54831e-03,5.38347e-02
6.60780e-03,4.53048e-02
6.66784e-03,3.70712e-02
6.72842e-03,2.91236e-02
6.78955e-03,2.14521e-02
6.85124e-03,1.40471e-02
6.91349e-03,6.89937e-03
6.97630e-03,0.00000e+00
