m1=44180.151, m2=13.027, gsp=2.495, rhosp=1362.627
fGW[Hz],dPh[rad]
3.35319e-03,9.46933e+05
3.41081e-03,9.06658e+05
3.46942e-03,8.67969e+05
3.52904e-03,8.30807e+05
3.58969e-03,7.95116e+05
3.65137e-03,7.60843e+05
3.71412e-03,7.27936e+05
3.77795e-03,6.96345e+05
3.84287e-03,6.66021e+05
3.90890e-03,6.36918e+05
3.97608e-03,6.08990e+05
4.04440e-03,5.82194e+05
4.11390e-03,5.56488e+05
4.18460e-03,5.31831e+05
4.25651e-03,5.08183e+05
4.32965e-03,4.85508e+05
4.40406e-03,4.63768e+05
4.47974e-03,4.42928e+05
4.55672e-03,4.22953e+05
4.63502e-03,4.03812e+05
4.71467e-03,3.85472e+05
4.79569e-03,3.67903e+05
4.87810e-03,3.51074e+05
4.96193e-03,3.34959e+05
5.04720e-03,3.19528e+05
5.13393e-03,3.04755e+05
5.22216e-03,2.90615e+05
5.31190e-03,2.77083e+05
5.40318e-03,2.64135e+05
5.49603e-03,2.51748e+05
5.59048e-03,2.39900e+05
5.68654e-03,2.28570e+05
5.78426e-03,2.17736e+05
5.88366e-03,2.07379e+05
5.98477e-03,1.97480e+05
6.08762e-03,1.88021e+05
6.19223e-03,1.78983e+05
6.29864e-03,1.70349e+05
6.40688e-03,1.62104e+05
6.51697e-03,1.54230e+05
6.62896e-03,1.46712e+05
6.74288e-03,1.39537e+05
6.85875e-03,1.32689e+05
6.97662e-03,1.26155e+05
7.09650e-03,1.19922e+05
7.21845e-03,1.13976e+05
7.34250e-03,1.08307e+05
7.46867e-03,1.02902e+05
7.59702e-03,9.77491e+04
7.72757e-03,9.28385e+04
7.86036e-03,8.81594e+04
7.99544e-03,8.37018e+04
8.13284e-03,7.94560e+04
8.27259e-03,7.54127e+04
8.41475e-03,7.15631e+04
8.55936e-03,6.78986e+04
8.70644e-03,6.44110e+04
8.85606e-03,6.10923e+04
9.00825e-03,5.79351e+04
9.16305e-03,5.49321e+04
9.32051e-03,5.20762e+04
9.48068e-03,4.93608e+04
9.64360e-03,4.67794e+04
9.80932e-03,4.43261e+04
9.97788e-03,4.19947e+04
1.01493e-02,3.97797e+04
1.03238e-02,3.76758e+04
1.05012e-02,3.56776e+04
1.06816e-02,3.37802e+04
1.08652e-02,3.19789e+04
1.10519e-02,3.02692e+04
1.12418e-02,2.86466e+04
1.14350e-02,2.71070e+04
1.16315e-02,2.56465e+04
1.18314e-02,2.42612e+04
1.20347e-02,2.29474e+04
1.22415e-02,2.17018e+04
1.24519e-02,2.05209e+04
1.26658e-02,1.94016e+04
1.28835e-02,1.83409e+04
1.31049e-02,1.73359e+04
1.33301e-02,1.63838e+04
1.35592e-02,1.54820e+04
1.37922e-02,1.46279e+04
1.40292e-02,1.38192e+04
1.42703e-02,1.30536e+04
1.45155e-02,1.23288e+04
1.47649e-02,1.16429e+04
1.50187e-02,1.09938e+04
1.52767e-02,1.03797e+04
1.55393e-02,9.79870e+03
1.58063e-02,9.24918e+03
1.60779e-02,8.72948e+03
1.63542e-02,8.23806e+03
1.66352e-02,7.77343e+03
1.69211e-02,7.33421e+03
1.72119e-02,6.91906e+03
1.75077e-02,6.52671e+03
1.78085e-02,6.15597e+03
1.81146e-02,5.80568e+03
1.84258e-02,5.47476e+03
1.87425e-02,5.16218e+03
1.90646e-02,4.86696e+03
1.93922e-02,4.58817e+03
1.97254e-02,4.32493e+03
2.00644e-02,4.07639e+03
2.04092e-02,3.84177e+03
2.07599e-02,3.62031e+03
2.11167e-02,3.41130e+03
2.14795e-02,3.21406e+03
2.18486e-02,3.02794e+03
2.22241e-02,2.85233e+03
2.26060e-02,2.68667e+03
2.29945e-02,2.53040e+03
2.33896e-02,2.38300e+03
2.37916e-02,2.24399e+03
2.42004e-02,2.11290e+03
2.46163e-02,1.98929e+03
2.50393e-02,1.87274e+03
2.54696e-02,1.76286e+03
2.59073e-02,1.65928e+03
2.63525e-02,1.56165e+03
2.68053e-02,1.46963e+03
2.72659e-02,1.38290e+03
2.77345e-02,1.30117e+03
2.82111e-02,1.22416e+03
2.86959e-02,1.15160e+03
2.91890e-02,1.08323e+03
2.96906e-02,1.01883e+03
3.02008e-02,9.58157e+02
3.07198e-02,9.01009e+02
3.12477e-02,8.47182e+02
3.17847e-02,7.96486e+02
3.23309e-02,7.48743e+02
3.28865e-02,7.03784e+02
3.34516e-02,6.61449e+02
3.40264e-02,6.21587e+02
3.46112e-02,5.84056e+02
3.52059e-02,5.48722e+02
3.58109e-02,5.15458e+02
3.64263e-02,4.84145e+02
3.70523e-02,4.54669e+02
3.76890e-02,4.26925e+02
3.83367e-02,4.00812e+02
3.89955e-02,3.76236e+02
3.96656e-02,3.53106e+02
4.03472e-02,3.31340e+02
4.10406e-02,3.10857e+02
4.17458e-02,2.91583e+02
4.24632e-02,2.73448e+02
4.31929e-02,2.56384e+02
4.39351e-02,2.40330e+02
4.46901e-02,2.25225e+02
4.54581e-02,2.11015e+02
4.62393e-02,1.97648e+02
4.70339e-02,1.85072e+02
4.78421e-02,1.73243e+02
4.86643e-02,1.62116e+02
4.95005e-02,1.51650e+02
5.03512e-02,1.41806e+02
5.12164e-02,1.32547e+02
5.20965e-02,1.23839e+02
5.29918e-02,1.15650e+02
5.39024e-02,1.07948e+02
5.48287e-02,1.00705e+02
5.57709e-02,9.38932e+01
5.67293e-02,8.74881e+01
5.77042e-02,8.14651e+01
5.86958e-02,7.58017e+01
5.97044e-02,7.04764e+01
6.07304e-02,6.54692e+01
6.17740e-02,6.07613e+01
6.28356e-02,5.63348e+01
6.39154e-02,5.21731e+01
6.50137e-02,4.82604e+01
6.61309e-02,4.45818e+01
6.72674e-02,4.11235e+01
6.84233e-02,3.78724e+01
6.95991e-02,3.48160e+01
7.07951e-02,3.19428e+01
7.20117e-02,2.92418e+01
7.32492e-02,2.67028e+01
7.45079e-02,2.43161e+01
7.57883e-02,2.20727e+01
7.70907e-02,1.99638e+01
7.84155e-02,1.79816e+01
7.97630e-02,1.61185e+01
8.11337e-02,1.43672e+01
8.25279e-02,1.27212e+01
8.39461e-02,1.11741e+01
8.53887e-02,9.71998e+00
8.68560e-02,8.35331e+00
8.83486e-02,7.06884e+00
8.98668e-02,5.86162e+00
9.14111e-02,4.72705e+00
9.29819e-02,3.66075e+00
9.45798e-02,2.65863e+00
9.62051e-02,1.71685e+00
9.78583e-02,8.31771e-01
9.95399e-02,0.00000e+00
