m1=14566.199, m2=11.636, gsp=2.334, rhosp=14.247
fGW[Hz],dPh[rad]
4.61675e-03,1.68336e+04
4.71476e-03,1.60568e+04
4.81486e-03,1.53147e+04
4.91709e-03,1.46057e+04
5.02148e-03,1.39286e+04
5.12809e-03,1.32817e+04
5.23696e-03,1.26639e+04
5.34815e-03,1.20738e+04
5.46169e-03,1.15102e+04
5.57765e-03,1.09720e+04
5.69607e-03,1.04580e+04
5.81700e-03,9.96722e+03
5.94050e-03,9.49857e+03
6.06662e-03,9.05110e+03
6.19542e-03,8.62388e+03
6.32695e-03,8.21602e+03
6.46127e-03,7.82665e+03
6.59845e-03,7.45497e+03
6.73854e-03,7.10019e+03
6.88161e-03,6.76157e+03
7.02771e-03,6.43840e+03
7.17691e-03,6.12998e+03
7.32928e-03,5.83567e+03
7.48489e-03,5.55484e+03
7.64380e-03,5.28690e+03
7.80608e-03,5.03127e+03
7.97181e-03,4.78741e+03
8.14106e-03,4.55480e+03
8.31390e-03,4.33292e+03
8.49041e-03,4.12132e+03
8.67067e-03,3.91952e+03
8.85475e-03,3.72709e+03
9.04274e-03,3.54362e+03
9.23473e-03,3.36870e+03
9.43079e-03,3.20196e+03
9.63101e-03,3.04302e+03
9.83548e-03,2.89153e+03
1.00443e-02,2.74717e+03
1.02575e-02,2.60961e+03
1.04753e-02,2.47854e+03
1.06977e-02,2.35368e+03
1.09248e-02,2.23474e+03
1.11568e-02,2.12146e+03
1.13937e-02,2.01358e+03
1.16355e-02,1.91086e+03
1.18826e-02,1.81306e+03
1.21349e-02,1.71995e+03
1.23925e-02,1.63134e+03
1.26556e-02,1.54700e+03
1.29243e-02,1.46675e+03
1.31987e-02,1.39040e+03
1.34789e-02,1.31777e+03
1.37650e-02,1.24869e+03
1.40573e-02,1.18300e+03
1.43557e-02,1.12053e+03
1.46605e-02,1.06115e+03
1.49718e-02,1.00471e+03
1.52896e-02,9.51068e+02
1.56142e-02,9.00100e+02
1.59457e-02,8.51681e+02
1.62843e-02,8.05690e+02
1.66300e-02,7.62014e+02
1.69831e-02,7.20545e+02
1.73436e-02,6.81179e+02
1.77119e-02,6.43816e+02
1.80879e-02,6.08362e+02
1.84719e-02,5.74726e+02
1.88641e-02,5.42821e+02
1.92646e-02,5.12565e+02
1.96736e-02,4.83879e+02
2.00913e-02,4.56688e+02
2.05178e-02,4.30919e+02
2.09534e-02,4.06503e+02
2.13983e-02,3.83375e+02
2.18526e-02,3.61472e+02
2.23165e-02,3.40734e+02
2.27903e-02,3.21104e+02
2.32742e-02,3.02527e+02
2.37683e-02,2.84951e+02
2.42729e-02,2.68326e+02
2.47883e-02,2.52606e+02
2.53146e-02,2.37744e+02
2.58520e-02,2.23697e+02
2.64009e-02,2.10425e+02
2.69614e-02,1.97887e+02
2.75338e-02,1.86047e+02
2.81183e-02,1.74868e+02
2.87153e-02,1.64317e+02
2.93250e-02,1.54361e+02
2.99475e-02,1.44970e+02
3.05834e-02,1.36113e+02
3.12327e-02,1.27762e+02
3.18958e-02,1.19892e+02
3.25729e-02,1.12476e+02
3.32645e-02,1.05491e+02
3.39707e-02,9.89123e+01
3.46919e-02,9.27193e+01
3.54285e-02,8.68907e+01
3.61806e-02,8.14068e+01
3.69488e-02,7.62487e+01
3.77332e-02,7.13984e+01
3.85343e-02,6.68389e+01
3.93524e-02,6.25542e+01
4.01879e-02,5.85287e+01
4.10411e-02,5.47481e+01
4.19125e-02,5.11983e+01
4.28023e-02,4.78664e+01
4.37110e-02,4.47398e+01
4.46390e-02,4.18068e+01
4.55868e-02,3.90562e+01
4.65546e-02,3.64774e+01
4.75430e-02,3.40604e+01
4.85524e-02,3.17957e+01
4.95832e-02,2.96743e+01
5.06359e-02,2.76877e+01
5.17109e-02,2.58279e+01
5.28088e-02,2.40873e+01
5.39299e-02,2.24586e+01
5.50749e-02,2.09352e+01
5.62442e-02,1.95106e+01
5.74383e-02,1.81788e+01
5.86577e-02,1.69340e+01
5.99031e-02,1.57709e+01
6.11749e-02,1.46844e+01
6.24737e-02,1.36697e+01
6.38000e-02,1.27223e+01
6.51545e-02,1.18380e+01
6.65378e-02,1.10129e+01
6.79505e-02,1.02430e+01
6.93931e-02,9.52495e+00
7.08664e-02,8.85536e+00
7.23709e-02,8.23112e+00
7.39074e-02,7.64930e+00
7.54765e-02,7.10713e+00
7.70789e-02,6.60202e+00
7.87154e-02,6.13155e+00
8.03866e-02,5.69344e+00
8.20932e-02,5.28555e+00
8.38361e-02,4.90587e+00
8.56160e-02,4.55252e+00
8.74337e-02,4.22375e+00
8.92900e-02,3.91791e+00
9.11857e-02,3.63345e+00
9.31216e-02,3.36893e+00
9.50987e-02,3.12299e+00
9.71177e-02,2.89437e+00
9.91796e-02,2.68190e+00
1.01285e-01,2.48446e+00
1.03436e-01,2.30102e+00
1.05632e-01,2.13062e+00
1.07874e-01,1.97236e+00
1.10164e-01,1.82539e+00
1.12503e-01,1.68893e+00
1.14892e-01,1.56225e+00
1.17331e-01,1.44466e+00
1.19822e-01,1.33553e+00
1.22366e-01,1.23427e+00
1.24964e-01,1.14031e+00
1.27617e-01,1.05315e+00
1.30326e-01,9.72302e-01
1.33093e-01,8.97318e-01
1.35919e-01,8.27782e-01
1.38805e-01,7.63307e-01
1.41752e-01,7.03530e-01
1.44761e-01,6.48116e-01
1.47835e-01,5.96751e-01
1.50973e-01,5.49146e-01
1.54178e-01,5.05030e-01
1.57452e-01,4.64150e-01
1.60795e-01,4.26274e-01
1.64208e-01,3.91184e-01
1.67695e-01,3.58678e-01
1.71255e-01,3.28569e-01
1.74891e-01,3.00682e-01
1.78604e-01,2.74855e-01
1.82396e-01,2.50939e-01
1.86268e-01,2.28793e-01
1.90223e-01,2.08288e-01
1.94261e-01,1.89305e-01
1.98386e-01,1.71731e-01
2.02598e-01,1.55463e-01
2.06899e-01,1.40405e-01
2.11291e-01,1.26468e-01
2.15777e-01,1.13569e-01
2.20358e-01,1.01632e-01
2.25037e-01,9.05862e-02
2.29814e-01,8.03647e-02
2.34694e-01,7.09070e-02
2.39676e-01,6.21565e-02
2.44765e-01,5.40607e-02
2.49961e-01,4.65712e-02
2.55268e-01,3.96427e-02
2.60688e-01,3.32336e-02
2.66222e-01,2.73053e-02
2.71874e-01,2.18219e-02
2.77647e-01,1.67502e-02
2.83541e-01,1.20596e-02
2.89561e-01,7.72163e-03
2.95709e-01,3.70988e-03
3.01987e-01,0.00000e+00
