m1=55755.389, m2=41.333, gsp=2.083, rhosp=122.542
fGW[Hz],dPh[rad]
2.05196e-03,1.91736e+02
2.08994e-03,1.83079e+02
2.12862e-03,1.74798e+02
2.16801e-03,1.66875e+02
2.20814e-03,1.59296e+02
2.24900e-03,1.52047e+02
2.29063e-03,1.45113e+02
2.33302e-03,1.38482e+02
2.37620e-03,1.32140e+02
2.42018e-03,1.26076e+02
2.46497e-03,1.20277e+02
2.51059e-03,1.14732e+02
2.55705e-03,1.09432e+02
2.60437e-03,1.04364e+02
2.65257e-03,9.95202e+01
2.70167e-03,9.48902e+01
2.75167e-03,9.04651e+01
2.80259e-03,8.62361e+01
2.85446e-03,8.21950e+01
2.90729e-03,7.83338e+01
2.96110e-03,7.46447e+01
3.01590e-03,7.11204e+01
3.07171e-03,6.77539e+01
3.12856e-03,6.45383e+01
3.18646e-03,6.14674e+01
3.24544e-03,5.85347e+01
3.30550e-03,5.57345e+01
3.36668e-03,5.30609e+01
3.42898e-03,5.05086e+01
3.49245e-03,4.80723e+01
3.55708e-03,4.57469e+01
3.62291e-03,4.35278e+01
3.68996e-03,4.14102e+01
3.75826e-03,3.93898e+01
3.82781e-03,3.74624e+01
3.89865e-03,3.56238e+01
3.97081e-03,3.38702e+01
4.04430e-03,3.21979e+01
4.11914e-03,3.06034e+01
4.19538e-03,2.90832e+01
4.27302e-03,2.76340e+01
4.35211e-03,2.62527e+01
4.43265e-03,2.49364e+01
4.51469e-03,2.36821e+01
4.59824e-03,2.24871e+01
4.68334e-03,2.13487e+01
4.77002e-03,2.02645e+01
4.85830e-03,1.92320e+01
4.94821e-03,1.82489e+01
5.03979e-03,1.73129e+01
5.13307e-03,1.64221e+01
5.22806e-03,1.55742e+01
5.32482e-03,1.47674e+01
5.42337e-03,1.39999e+01
5.52374e-03,1.32698e+01
5.62597e-03,1.25754e+01
5.73009e-03,1.19151e+01
5.83614e-03,1.12873e+01
5.94415e-03,1.06906e+01
6.05416e-03,1.01234e+01
6.16621e-03,9.58454e+00
6.28033e-03,9.07256e+00
6.39656e-03,8.58625e+00
6.51494e-03,8.12441e+00
6.63552e-03,7.68588e+00
6.75832e-03,7.26959e+00
6.88340e-03,6.87446e+00
7.01080e-03,6.49952e+00
7.14055e-03,6.14378e+00
7.27270e-03,5.80634e+00
7.40730e-03,5.48633e+00
7.54439e-03,5.18289e+00
7.68401e-03,4.89525e+00
7.82622e-03,4.62262e+00
7.97106e-03,4.36428e+00
8.11859e-03,4.11954e+00
8.26884e-03,3.88773e+00
8.42187e-03,3.66820e+00
8.57774e-03,3.46036e+00
8.73649e-03,3.26363e+00
8.89818e-03,3.07745e+00
9.06286e-03,2.90130e+00
9.23059e-03,2.73466e+00
9.40142e-03,2.57707e+00
9.57542e-03,2.42807e+00
9.75263e-03,2.28721e+00
9.93313e-03,2.15409e+00
1.01170e-02,2.02830e+00
1.03042e-02,1.90947e+00
1.04949e-02,1.79725e+00
1.06891e-02,1.69127e+00
1.08870e-02,1.59123e+00
1.10885e-02,1.49680e+00
1.12937e-02,1.40770e+00
1.15027e-02,1.32365e+00
1.17156e-02,1.24436e+00
1.19324e-02,1.16960e+00
1.21532e-02,1.09911e+00
1.23782e-02,1.03268e+00
1.26072e-02,9.70070e-01
1.28406e-02,9.11084e-01
1.30782e-02,8.55523e-01
1.33203e-02,8.03199e-01
1.35668e-02,7.53935e-01
1.38179e-02,7.07561e-01
1.40736e-02,6.63917e-01
1.43341e-02,6.22851e-01
1.45993e-02,5.84220e-01
1.48695e-02,5.47886e-01
1.51447e-02,5.13720e-01
1.54250e-02,4.81600e-01
1.57105e-02,4.51408e-01
1.60012e-02,4.23036e-01
1.62974e-02,3.96378e-01
1.65990e-02,3.71337e-01
1.69062e-02,3.47819e-01
1.72191e-02,3.25735e-01
1.75378e-02,3.05002e-01
1.78624e-02,2.85542e-01
1.81929e-02,2.67279e-01
1.85296e-02,2.50143e-01
1.88726e-02,2.34067e-01
1.92219e-02,2.18990e-01
1.95776e-02,2.04850e-01
1.99399e-02,1.91593e-01
2.03090e-02,1.79165e-01
2.06848e-02,1.67516e-01
2.10677e-02,1.56600e-01
2.14576e-02,1.46372e-01
2.18547e-02,1.36791e-01
2.22591e-02,1.27816e-01
2.26711e-02,1.19411e-01
2.30907e-02,1.11541e-01
2.35180e-02,1.04173e-01
2.39533e-02,9.72763e-02
2.43966e-02,9.08211e-02
2.48481e-02,8.47805e-02
2.53080e-02,7.91284e-02
2.57764e-02,7.38408e-02
2.62534e-02,6.88947e-02
2.67393e-02,6.42688e-02
2.72342e-02,5.99429e-02
2.77382e-02,5.58980e-02
2.82516e-02,5.21165e-02
2.87744e-02,4.85816e-02
2.93070e-02,4.52776e-02
2.98494e-02,4.21898e-02
3.04018e-02,3.93044e-02
3.09644e-02,3.66085e-02
3.15375e-02,3.40899e-02
3.21212e-02,3.17372e-02
3.27157e-02,2.95397e-02
3.33211e-02,2.74874e-02
3.39378e-02,2.55709e-02
3.45659e-02,2.37814e-02
3.52056e-02,2.21106e-02
3.58572e-02,2.05508e-02
3.65208e-02,1.90949e-02
3.71967e-02,1.77359e-02
3.78851e-02,1.64676e-02
3.85863e-02,1.52840e-02
3.93004e-02,1.41795e-02
4.00278e-02,1.31490e-02
4.07686e-02,1.21875e-02
4.15231e-02,1.12906e-02
4.22916e-02,1.04539e-02
4.30743e-02,9.67348e-03
4.38714e-02,8.94559e-03
4.46834e-02,8.26675e-03
4.55104e-02,7.63369e-03
4.63526e-02,7.04337e-03
4.72105e-02,6.49295e-03
4.80842e-02,5.97976e-03
4.89741e-02,5.50130e-03
4.98805e-02,5.05527e-03
5.08037e-02,4.63948e-03
5.17439e-02,4.25191e-03
5.27016e-02,3.89066e-03
5.36769e-02,3.55397e-03
5.46703e-02,3.24019e-03
5.56821e-02,2.94776e-03
5.67127e-02,2.67525e-03
5.77623e-02,2.42132e-03
5.88313e-02,2.18472e-03
5.99201e-02,1.96426e-03
6.10290e-02,1.75886e-03
6.21585e-02,1.56751e-03
6.33089e-02,1.38923e-03
6.44806e-02,1.22316e-03
6.56740e-02,1.06845e-03
6.68894e-02,9.24349e-04
6.81273e-02,7.90120e-04
6.93882e-02,6.65096e-04
7.06724e-02,5.48651e-04
7.19803e-02,4.40199e-04
7.33125e-02,3.39195e-04
7.46693e-02,2.45132e-04
7.60513e-02,1.57534e-04
7.74588e-02,7.59609e-05
7.88923e-02,0.00000e+00
