m1=2034.333, m2=78.874, gsp=2.285, rhosp=1504.417
fGW[Hz],dPh[rad]
3.70186e-03,5.26968e+02
3.82264e-03,4.91916e+02
3.94735e-03,4.59195e+02
4.07613e-03,4.28651e+02
4.20912e-03,4.00137e+02
4.34644e-03,3.73520e+02
4.48824e-03,3.48673e+02
4.63467e-03,3.25479e+02
4.78587e-03,3.03827e+02
4.94201e-03,2.83615e+02
5.10324e-03,2.64747e+02
5.26974e-03,2.47134e+02
5.44166e-03,2.30693e+02
5.61920e-03,2.15345e+02
5.80252e-03,2.01017e+02
5.99183e-03,1.87643e+02
6.18731e-03,1.75158e+02
6.38917e-03,1.63504e+02
6.59762e-03,1.52624e+02
6.81287e-03,1.42468e+02
7.03514e-03,1.32988e+02
7.26466e-03,1.24138e+02
7.50166e-03,1.15877e+02
7.74641e-03,1.08166e+02
7.99913e-03,1.00967e+02
8.26010e-03,9.42471e+01
8.52959e-03,8.79742e+01
8.80787e-03,8.21186e+01
9.09522e-03,7.66525e+01
9.39195e-03,7.15500e+01
9.69836e-03,6.67869e+01
1.00148e-02,6.23406e+01
1.03415e-02,5.81901e+01
1.06789e-02,5.43158e+01
1.10273e-02,5.06992e+01
1.13871e-02,4.73231e+01
1.17586e-02,4.41717e+01
1.21422e-02,4.12300e+01
1.25383e-02,3.84839e+01
1.29474e-02,3.59206e+01
1.33698e-02,3.35278e+01
1.38060e-02,3.12943e+01
1.42564e-02,2.92093e+01
1.47215e-02,2.72631e+01
1.52018e-02,2.54464e+01
1.56978e-02,2.37505e+01
1.62099e-02,2.21676e+01
1.67387e-02,2.06900e+01
1.72848e-02,1.93107e+01
1.78488e-02,1.80232e+01
1.84311e-02,1.68214e+01
1.90324e-02,1.56996e+01
1.96533e-02,1.46525e+01
2.02945e-02,1.36751e+01
2.09566e-02,1.27627e+01
2.16403e-02,1.19111e+01
2.23463e-02,1.11162e+01
2.30754e-02,1.03742e+01
2.38282e-02,9.68161e+00
2.46056e-02,9.03515e+00
2.54084e-02,8.43174e+00
2.62373e-02,7.86852e+00
2.70933e-02,7.34281e+00
2.79772e-02,6.85212e+00
2.88900e-02,6.39412e+00
2.98325e-02,5.96663e+00
3.08058e-02,5.56762e+00
3.18108e-02,5.19520e+00
3.28486e-02,4.84760e+00
3.39203e-02,4.52317e+00
3.50270e-02,4.22036e+00
3.61697e-02,3.93774e+00
3.73498e-02,3.67396e+00
3.85683e-02,3.42777e+00
3.98266e-02,3.19800e+00
4.11259e-02,2.98355e+00
4.24677e-02,2.78341e+00
4.38532e-02,2.59662e+00
4.52839e-02,2.42230e+00
4.67612e-02,2.25961e+00
4.82868e-02,2.10778e+00
4.98622e-02,1.96609e+00
5.14889e-02,1.83385e+00
5.31688e-02,1.71045e+00
5.49034e-02,1.59530e+00
5.66946e-02,1.48784e+00
5.85443e-02,1.38756e+00
6.04543e-02,1.29398e+00
6.24266e-02,1.20667e+00
6.44632e-02,1.12519e+00
6.65663e-02,1.04916e+00
6.87381e-02,9.78224e-01
7.09806e-02,9.12035e-01
7.32964e-02,8.50278e-01
7.56877e-02,7.92658e-01
7.81570e-02,7.38900e-01
8.07068e-02,6.88745e-01
8.33399e-02,6.41954e-01
8.60589e-02,5.98302e-01
8.88665e-02,5.57580e-01
9.17658e-02,5.19592e-01
9.47596e-02,4.84156e-01
9.78512e-02,4.51102e-01
1.01044e-01,4.20271e-01
1.04340e-01,3.91514e-01
1.07744e-01,3.64693e-01
1.11259e-01,3.39679e-01
1.14889e-01,3.16350e-01
1.18637e-01,2.94595e-01
1.22508e-01,2.74308e-01
1.26505e-01,2.55391e-01
1.30632e-01,2.37752e-01
1.34894e-01,2.21307e-01
1.39295e-01,2.05974e-01
1.43839e-01,1.91680e-01
1.48532e-01,1.78355e-01
1.53378e-01,1.65935e-01
1.58382e-01,1.54358e-01
1.63549e-01,1.43568e-01
1.68885e-01,1.33513e-01
1.74395e-01,1.24142e-01
1.80084e-01,1.15411e-01
1.85959e-01,1.07276e-01
1.92026e-01,9.96976e-02
1.98291e-01,9.26377e-02
2.04760e-01,8.60618e-02
2.11441e-01,7.99374e-02
2.18339e-01,7.42339e-02
2.25462e-01,6.89232e-02
2.32818e-01,6.39786e-02
2.40414e-01,5.93756e-02
2.48257e-01,5.50910e-02
2.56356e-01,5.11035e-02
2.64720e-01,4.73928e-02
2.73356e-01,4.39403e-02
2.82275e-01,4.07285e-02
2.91484e-01,3.77411e-02
3.00994e-01,3.49628e-02
3.10813e-01,3.23795e-02
3.20954e-01,2.99779e-02
3.31425e-01,2.77457e-02
3.42237e-01,2.56712e-02
3.53403e-01,2.37438e-02
3.64933e-01,2.19534e-02
3.76839e-01,2.02905e-02
3.89133e-01,1.87466e-02
4.01828e-01,1.73134e-02
4.14938e-01,1.59832e-02
4.28475e-01,1.47491e-02
4.42454e-01,1.36043e-02
4.56889e-01,1.25428e-02
4.71795e-01,1.15587e-02
4.87188e-01,1.06466e-02
5.03082e-01,9.80158e-03
5.19495e-01,9.01893e-03
5.36444e-01,8.29428e-03
5.53945e-01,7.62358e-03
5.72017e-01,7.00302e-03
5.90679e-01,6.42907e-03
6.09950e-01,5.89842e-03
6.29850e-01,5.40802e-03
6.50399e-01,4.95499e-03
6.71618e-01,4.53665e-03
6.93529e-01,4.15053e-03
7.16156e-01,3.79430e-03
7.39520e-01,3.46579e-03
7.63647e-01,3.16300e-03
7.88561e-01,2.88405e-03
8.14288e-01,2.62719e-03
8.40854e-01,2.39079e-03
8.68287e-01,2.17334e-03
8.96614e-01,1.97342e-03
9.25866e-01,1.78974e-03
9.56073e-01,1.62105e-03
9.87264e-01,1.46624e-03
1.01947e+00,1.32424e-03
1.05273e+00,1.19406e-03
1.08708e+00,1.07481e-03
1.12255e+00,9.65627e-04
1.15917e+00,8.65728e-04
1.19699e+00,7.74383e-04
1.23604e+00,6.90912e-04
1.27636e+00,6.14689e-04
1.31800e+00,5.45129e-04
1.36100e+00,4.81694e-04
1.40541e+00,4.23883e-04
1.45126e+00,3.71233e-04
1.49861e+00,3.23317e-04
1.54750e+00,2.79740e-04
1.59798e+00,2.40135e-04
1.65012e+00,2.04166e-04
1.70395e+00,1.71521e-04
1.75954e+00,1.41914e-04
1.81695e+00,1.15081e-04
1.87623e+00,9.07776e-05
1.93744e+00,6.87813e-05
2.00065e+00,4.88864e-05
2.06592e+00,3.09042e-05
2.13332e+00,1.46616e-05
2.20292e+00,0.00000e+00
