m1=4415.544, m2=60.436, gsp=2.131, rhosp=4065.419
fGW[Hz],dPh[rad]
3.35983e-03,1.31141e+02
3.45743e-03,1.22962e+02
3.55787e-03,1.15292e+02
3.66122e-03,1.08100e+02
3.76758e-03,1.01356e+02
3.87703e-03,9.50328e+01
3.98965e-03,8.91035e+01
4.10555e-03,8.35438e+01
4.22481e-03,7.83306e+01
4.34754e-03,7.34423e+01
4.47383e-03,6.88588e+01
4.60380e-03,6.45610e+01
4.73753e-03,6.05311e+01
4.87516e-03,5.67524e+01
5.01678e-03,5.32093e+01
5.16251e-03,4.98870e+01
5.31248e-03,4.67719e+01
5.46680e-03,4.38511e+01
5.62561e-03,4.11123e+01
5.78903e-03,3.85443e+01
5.95720e-03,3.61364e+01
6.13025e-03,3.38787e+01
6.30833e-03,3.17618e+01
6.49159e-03,2.97769e+01
6.68016e-03,2.79158e+01
6.87422e-03,2.61708e+01
7.07391e-03,2.45347e+01
7.27940e-03,2.30005e+01
7.49087e-03,2.15621e+01
7.70847e-03,2.02135e+01
7.93240e-03,1.89489e+01
8.16283e-03,1.77633e+01
8.39996e-03,1.66517e+01
8.64397e-03,1.56094e+01
8.89507e-03,1.46322e+01
9.15347e-03,1.37159e+01
9.41937e-03,1.28569e+01
9.69300e-03,1.20515e+01
9.97458e-03,1.12964e+01
1.02643e-02,1.05884e+01
1.05625e-02,9.92461e+00
1.08693e-02,9.30228e+00
1.11851e-02,8.71883e+00
1.15100e-02,8.17182e+00
1.18444e-02,7.65898e+00
1.21884e-02,7.17819e+00
1.25425e-02,6.72744e+00
1.29069e-02,6.30486e+00
1.32818e-02,5.90869e+00
1.36676e-02,5.53729e+00
1.40647e-02,5.18911e+00
1.44732e-02,4.86270e+00
1.48937e-02,4.55670e+00
1.53263e-02,4.26985e+00
1.57715e-02,4.00094e+00
1.62297e-02,3.74887e+00
1.67012e-02,3.51256e+00
1.71863e-02,3.29106e+00
1.76856e-02,3.08342e+00
1.81993e-02,2.88878e+00
1.87280e-02,2.70634e+00
1.92720e-02,2.53533e+00
1.98319e-02,2.37504e+00
2.04080e-02,2.22479e+00
2.10008e-02,2.08397e+00
2.16109e-02,1.95198e+00
2.22387e-02,1.82827e+00
2.28847e-02,1.71233e+00
2.35495e-02,1.60366e+00
2.42336e-02,1.50182e+00
2.49376e-02,1.40638e+00
2.56620e-02,1.31693e+00
2.64074e-02,1.23311e+00
2.71746e-02,1.15456e+00
2.79640e-02,1.08095e+00
2.87763e-02,1.01198e+00
2.96122e-02,9.47350e-01
3.04725e-02,8.86791e-01
3.13577e-02,8.30049e-01
3.22686e-02,7.76885e-01
3.32060e-02,7.27075e-01
3.41706e-02,6.80410e-01
3.51632e-02,6.36692e-01
3.61847e-02,5.95737e-01
3.72358e-02,5.57372e-01
3.83175e-02,5.21434e-01
3.94306e-02,4.87772e-01
4.05761e-02,4.56242e-01
4.17548e-02,4.26711e-01
4.29677e-02,3.99054e-01
4.42159e-02,3.73153e-01
4.55004e-02,3.48898e-01
4.68221e-02,3.26186e-01
4.81823e-02,3.04919e-01
4.95819e-02,2.85007e-01
5.10223e-02,2.66364e-01
5.25044e-02,2.48912e-01
5.40297e-02,2.32574e-01
5.55992e-02,2.17281e-01
5.72143e-02,2.02967e-01
5.88764e-02,1.89571e-01
6.05867e-02,1.77034e-01
6.23467e-02,1.65302e-01
6.41578e-02,1.54325e-01
6.60216e-02,1.44055e-01
6.79395e-02,1.34447e-01
6.99131e-02,1.25460e-01
7.19440e-02,1.17053e-01
7.40339e-02,1.09191e-01
7.61846e-02,1.01839e-01
7.83977e-02,9.49649e-02
8.06751e-02,8.85378e-02
8.30187e-02,8.25296e-02
8.54303e-02,7.69137e-02
8.79120e-02,7.16651e-02
9.04658e-02,6.67606e-02
9.30938e-02,6.21781e-02
9.57981e-02,5.78971e-02
9.85810e-02,5.38984e-02
1.01445e-01,5.01639e-02
1.04392e-01,4.66768e-02
1.07424e-01,4.34211e-02
1.10545e-01,4.03821e-02
1.13756e-01,3.75458e-02
1.17061e-01,3.48992e-02
1.20461e-01,3.24300e-02
1.23960e-01,3.01269e-02
1.27561e-01,2.79791e-02
1.31267e-01,2.59765e-02
1.35080e-01,2.41097e-02
1.39004e-01,2.23700e-02
1.43042e-01,2.07490e-02
1.47198e-01,1.92390e-02
1.51474e-01,1.78327e-02
1.55874e-01,1.65234e-02
1.60402e-01,1.53047e-02
1.65061e-01,1.41706e-02
1.69856e-01,1.31156e-02
1.74791e-01,1.21344e-02
1.79868e-01,1.12222e-02
1.85093e-01,1.03743e-02
1.90470e-01,9.58643e-03
1.96003e-01,8.85464e-03
2.01697e-01,8.17514e-03
2.07556e-01,7.54441e-03
2.13585e-01,6.95916e-03
2.19790e-01,6.41631e-03
2.26175e-01,5.91296e-03
2.32745e-01,5.44643e-03
2.39506e-01,5.01420e-03
2.46464e-01,4.61389e-03
2.53623e-01,4.24331e-03
2.60991e-01,3.90039e-03
2.68572e-01,3.58321e-03
2.76374e-01,3.28996e-03
2.84403e-01,3.01895e-03
2.92665e-01,2.76862e-03
3.01166e-01,2.53749e-03
3.09915e-01,2.32419e-03
3.18918e-01,2.12744e-03
3.28182e-01,1.94605e-03
3.37716e-01,1.77889e-03
3.47526e-01,1.62493e-03
3.57622e-01,1.48320e-03
3.68010e-01,1.35280e-03
3.78701e-01,1.23288e-03
3.89702e-01,1.12265e-03
4.01023e-01,1.02139e-03
4.12672e-01,9.28423e-04
4.24660e-01,8.43106e-04
4.36996e-01,7.64857e-04
4.49690e-01,6.93128e-04
4.62754e-01,6.27412e-04
4.76196e-01,5.67238e-04
4.90030e-01,5.12169e-04
5.04265e-01,4.61799e-04
5.18913e-01,4.15753e-04
5.33988e-01,3.73682e-04
5.49500e-01,3.35264e-04
5.65462e-01,3.00202e-04
5.81889e-01,2.68218e-04
5.98792e-01,2.39060e-04
6.16187e-01,2.12490e-04
6.34087e-01,1.88293e-04
6.52506e-01,1.66267e-04
6.71461e-01,1.46229e-04
6.90967e-01,1.28009e-04
7.11039e-01,1.11449e-04
7.31694e-01,9.64064e-05
7.52950e-01,8.27485e-05
7.74822e-01,7.03540e-05
7.97331e-01,5.91113e-05
8.20493e-01,4.89182e-05
8.44327e-01,3.96809e-05
8.68855e-01,3.13136e-05
8.94094e-01,2.37377e-05
9.20067e-01,1.68813e-05
9.46795e-01,1.06787e-05
9.74299e-01,5.06986e-06
1.00260e+00,0.00000e+00
