m1=38536.764, m2=5.084, gsp=2.010, rhosp=669.418
fGW[Hz],dPh[rad]
4.93752e-03,3.02873e+02
5.01606e-03,2.88227e+02
5.09584e-03,2.74247e+02
5.17689e-03,2.60906e+02
5.25923e-03,2.48177e+02
5.34288e-03,2.36034e+02
5.42786e-03,2.24450e+02
5.51420e-03,2.13403e+02
5.60190e-03,2.02869e+02
5.69100e-03,1.92825e+02
5.78152e-03,1.83252e+02
5.87348e-03,1.74127e+02
5.96690e-03,1.65431e+02
6.06180e-03,1.57146e+02
6.15822e-03,1.49253e+02
6.25617e-03,1.41736e+02
6.35568e-03,1.34577e+02
6.45677e-03,1.27760e+02
6.55946e-03,1.21270e+02
6.66380e-03,1.15093e+02
6.76979e-03,1.09214e+02
6.87746e-03,1.03620e+02
6.98685e-03,9.82975e+01
7.09798e-03,9.32349e+01
7.21088e-03,8.84200e+01
7.32557e-03,8.38415e+01
7.44209e-03,7.94885e+01
7.56046e-03,7.53505e+01
7.68071e-03,7.14176e+01
7.80287e-03,6.76802e+01
7.92698e-03,6.41292e+01
8.05306e-03,6.07559e+01
8.18115e-03,5.75519e+01
8.31128e-03,5.45092e+01
8.44347e-03,5.16201e+01
8.57777e-03,4.88774e+01
8.71420e-03,4.62740e+01
8.85280e-03,4.38033e+01
8.99361e-03,4.14589e+01
9.13666e-03,3.92346e+01
9.28198e-03,3.71248e+01
9.42962e-03,3.51237e+01
9.57960e-03,3.32262e+01
9.73197e-03,3.14271e+01
9.88676e-03,2.97215e+01
1.00440e-02,2.81050e+01
1.02038e-02,2.65730e+01
1.03661e-02,2.51213e+01
1.05309e-02,2.37460e+01
1.06984e-02,2.24433e+01
1.08686e-02,2.12094e+01
1.10415e-02,2.00410e+01
1.12171e-02,1.89347e+01
1.13955e-02,1.78874e+01
1.15768e-02,1.68961e+01
1.17609e-02,1.59578e+01
1.19480e-02,1.50700e+01
1.21380e-02,1.42299e+01
1.23310e-02,1.34352e+01
1.25272e-02,1.26836e+01
1.27264e-02,1.19726e+01
1.29288e-02,1.13004e+01
1.31345e-02,1.06647e+01
1.33434e-02,1.00638e+01
1.35556e-02,9.49575e+00
1.37712e-02,8.95888e+00
1.39903e-02,8.45152e+00
1.42128e-02,7.97212e+00
1.44389e-02,7.51919e+00
1.46685e-02,7.09132e+00
1.49018e-02,6.68717e+00
1.51388e-02,6.30548e+00
1.53796e-02,5.94503e+00
1.56243e-02,5.60469e+00
1.58728e-02,5.28336e+00
1.61252e-02,4.98003e+00
1.63817e-02,4.69371e+00
1.66423e-02,4.42348e+00
1.69070e-02,4.16847e+00
1.71759e-02,3.92783e+00
1.74491e-02,3.70080e+00
1.77266e-02,3.48661e+00
1.80086e-02,3.28456e+00
1.82950e-02,3.09398e+00
1.85860e-02,2.91424e+00
1.88816e-02,2.74474e+00
1.91819e-02,2.58491e+00
1.94870e-02,2.43421e+00
1.97970e-02,2.29214e+00
2.01118e-02,2.15820e+00
2.04317e-02,2.03195e+00
2.07567e-02,1.91296e+00
2.10869e-02,1.80082e+00
2.14223e-02,1.69514e+00
2.17630e-02,1.59555e+00
2.21091e-02,1.50173e+00
2.24608e-02,1.41332e+00
2.28180e-02,1.33004e+00
2.31810e-02,1.25159e+00
2.35497e-02,1.17770e+00
2.39242e-02,1.10810e+00
2.43048e-02,1.04255e+00
2.46913e-02,9.80822e-01
2.50841e-02,9.22694e-01
2.54830e-02,8.67960e-01
2.58884e-02,8.16426e-01
2.63001e-02,7.67907e-01
2.67184e-02,7.22230e-01
2.71434e-02,6.79232e-01
2.75751e-02,6.38757e-01
2.80137e-02,6.00660e-01
2.84593e-02,5.64803e-01
2.89120e-02,5.31056e-01
2.93718e-02,4.99298e-01
2.98390e-02,4.69411e-01
3.03136e-02,4.41289e-01
3.07958e-02,4.14827e-01
3.12856e-02,3.89929e-01
3.17832e-02,3.66504e-01
3.22887e-02,3.44466e-01
3.28023e-02,3.23733e-01
3.33240e-02,3.04229e-01
3.38540e-02,2.85883e-01
3.43925e-02,2.68626e-01
3.49395e-02,2.52394e-01
3.54953e-02,2.37127e-01
3.60598e-02,2.22768e-01
3.66334e-02,2.09264e-01
3.72161e-02,1.96565e-01
3.78080e-02,1.84622e-01
3.84093e-02,1.73392e-01
3.90203e-02,1.62832e-01
3.96409e-02,1.52902e-01
4.02714e-02,1.43566e-01
4.09119e-02,1.34788e-01
4.15627e-02,1.26534e-01
4.22237e-02,1.18775e-01
4.28953e-02,1.11480e-01
4.35776e-02,1.04622e-01
4.42707e-02,9.81751e-02
4.49749e-02,9.21146e-02
4.56902e-02,8.64176e-02
4.64169e-02,8.10626e-02
4.71552e-02,7.60290e-02
4.79052e-02,7.12977e-02
4.86672e-02,6.68507e-02
4.94413e-02,6.26710e-02
5.02277e-02,5.87427e-02
5.10265e-02,5.50507e-02
5.18381e-02,5.15809e-02
5.26627e-02,4.83200e-02
5.35003e-02,4.52554e-02
5.43512e-02,4.23755e-02
5.52157e-02,3.96692e-02
5.60939e-02,3.71260e-02
5.69861e-02,3.47361e-02
5.78925e-02,3.24905e-02
5.88133e-02,3.03803e-02
5.97488e-02,2.83975e-02
6.06991e-02,2.65345e-02
6.16646e-02,2.47840e-02
6.26454e-02,2.31392e-02
6.36418e-02,2.15938e-02
6.46540e-02,2.01418e-02
6.56824e-02,1.87777e-02
6.67271e-02,1.74960e-02
6.77884e-02,1.62919e-02
6.88666e-02,1.51606e-02
6.99620e-02,1.40978e-02
7.10747e-02,1.30993e-02
7.22052e-02,1.21613e-02
7.33537e-02,1.12801e-02
7.45204e-02,1.04522e-02
7.57057e-02,9.67457e-03
7.69098e-02,8.94402e-03
7.81331e-02,8.25776e-03
7.93758e-02,7.61310e-03
8.06383e-02,7.00753e-03
8.19209e-02,6.43868e-03
8.32239e-02,5.90434e-03
8.45476e-02,5.40241e-03
8.58924e-02,4.93094e-03
8.72586e-02,4.48809e-03
8.86464e-02,4.07211e-03
9.00564e-02,3.68139e-03
9.14888e-02,3.31439e-03
9.29440e-02,2.96967e-03
9.44223e-02,2.64589e-03
9.59241e-02,2.34178e-03
9.74498e-02,2.05614e-03
9.89998e-02,1.78786e-03
1.00574e-01,1.53588e-03
1.02174e-01,1.29922e-03
1.03799e-01,1.07694e-03
1.05450e-01,8.68173e-04
1.07127e-01,6.72099e-04
1.08831e-01,4.87946e-04
1.10562e-01,3.14991e-04
1.12321e-01,1.52556e-04
1.14107e-01,0.00000e+00
