m1=17585.843, m2=29.398, gsp=2.450, rhosp=81.455
fGW[Hz],dPh[rad]
3.11166e-03,8.64074e+04
3.18102e-03,8.24858e+04
3.25193e-03,7.87385e+04
3.32442e-03,7.51580e+04
3.39853e-03,7.17368e+04
3.47429e-03,6.84679e+04
3.55173e-03,6.53447e+04
3.63091e-03,6.23606e+04
3.71184e-03,5.95097e+04
3.79459e-03,5.67860e+04
3.87917e-03,5.41838e+04
3.96565e-03,5.16980e+04
4.05405e-03,4.93232e+04
4.14442e-03,4.70547e+04
4.23680e-03,4.48877e+04
4.33125e-03,4.28178e+04
4.42779e-03,4.08406e+04
4.52650e-03,3.89521e+04
4.62740e-03,3.71484e+04
4.73055e-03,3.54257e+04
4.83600e-03,3.37805e+04
4.94380e-03,3.22093e+04
5.05401e-03,3.07088e+04
5.16667e-03,2.92760e+04
5.28184e-03,2.79078e+04
5.39958e-03,2.66013e+04
5.51994e-03,2.53539e+04
5.64299e-03,2.41630e+04
5.76878e-03,2.30259e+04
5.89738e-03,2.19404e+04
6.02884e-03,2.09042e+04
6.16323e-03,1.99150e+04
6.30061e-03,1.89708e+04
6.44106e-03,1.80696e+04
6.58464e-03,1.72095e+04
6.73143e-03,1.63886e+04
6.88148e-03,1.56053e+04
7.03488e-03,1.48578e+04
7.19169e-03,1.41445e+04
7.35201e-03,1.34639e+04
7.51589e-03,1.28147e+04
7.68343e-03,1.21953e+04
7.85471e-03,1.16044e+04
8.02980e-03,1.10408e+04
8.20880e-03,1.05033e+04
8.39178e-03,9.99063e+03
8.57885e-03,9.50175e+03
8.77008e-03,9.03559e+03
8.96558e-03,8.59112e+03
9.16543e-03,8.16738e+03
9.36974e-03,7.76343e+03
9.57861e-03,7.37838e+03
9.79213e-03,7.01139e+03
1.00104e-02,6.66165e+03
1.02336e-02,6.32837e+03
1.04617e-02,6.01082e+03
1.06949e-02,5.70828e+03
1.09333e-02,5.42009e+03
1.11770e-02,5.14558e+03
1.14262e-02,4.88415e+03
1.16809e-02,4.63519e+03
1.19412e-02,4.39815e+03
1.22074e-02,4.17247e+03
1.24796e-02,3.95766e+03
1.27577e-02,3.75320e+03
1.30421e-02,3.55862e+03
1.33329e-02,3.37349e+03
1.36301e-02,3.19735e+03
1.39339e-02,3.02981e+03
1.42445e-02,2.87046e+03
1.45620e-02,2.71893e+03
1.48866e-02,2.57486e+03
1.52185e-02,2.43790e+03
1.55577e-02,2.30773e+03
1.59045e-02,2.18403e+03
1.62591e-02,2.06649e+03
1.66215e-02,1.95484e+03
1.69920e-02,1.84880e+03
1.73708e-02,1.74810e+03
1.77580e-02,1.65249e+03
1.81539e-02,1.56174e+03
1.85585e-02,1.47561e+03
1.89722e-02,1.39389e+03
1.93952e-02,1.31637e+03
1.98275e-02,1.24285e+03
2.02695e-02,1.17313e+03
2.07213e-02,1.10704e+03
2.11832e-02,1.04440e+03
2.16554e-02,9.85042e+02
2.21382e-02,9.28811e+02
2.26317e-02,8.75555e+02
2.31361e-02,8.25128e+02
2.36519e-02,7.77393e+02
2.41791e-02,7.32216e+02
2.47181e-02,6.89472e+02
2.52691e-02,6.49041e+02
2.58324e-02,6.10808e+02
2.64082e-02,5.74663e+02
2.69969e-02,5.40502e+02
2.75987e-02,5.08225e+02
2.82139e-02,4.77736e+02
2.88428e-02,4.48945e+02
2.94858e-02,4.21765e+02
3.01431e-02,3.96114e+02
3.08150e-02,3.71913e+02
3.15019e-02,3.49086e+02
3.22041e-02,3.27563e+02
3.29220e-02,3.07275e+02
3.36559e-02,2.88157e+02
3.44061e-02,2.70148e+02
3.51731e-02,2.53188e+02
3.59572e-02,2.37221e+02
3.67587e-02,2.22194e+02
3.75781e-02,2.08057e+02
3.84158e-02,1.94760e+02
3.92721e-02,1.82258e+02
4.01475e-02,1.70507e+02
4.10425e-02,1.59466e+02
4.19574e-02,1.49095e+02
4.28927e-02,1.39357e+02
4.38488e-02,1.30216e+02
4.48263e-02,1.21639e+02
4.58255e-02,1.13593e+02
4.68470e-02,1.06047e+02
4.78913e-02,9.89736e+01
4.89589e-02,9.23447e+01
5.00502e-02,8.61346e+01
5.11659e-02,8.03186e+01
5.23065e-02,7.48736e+01
5.34725e-02,6.97774e+01
5.46644e-02,6.50093e+01
5.58830e-02,6.05496e+01
5.71287e-02,5.63796e+01
5.84022e-02,5.24818e+01
5.97040e-02,4.88396e+01
6.10349e-02,4.54371e+01
6.23955e-02,4.22597e+01
6.37864e-02,3.92933e+01
6.52083e-02,3.65248e+01
6.66618e-02,3.39416e+01
6.81478e-02,3.15322e+01
6.96669e-02,2.92855e+01
7.12199e-02,2.71911e+01
7.28075e-02,2.52392e+01
7.44305e-02,2.34206e+01
7.60896e-02,2.17267e+01
7.77858e-02,2.01494e+01
7.95197e-02,1.86810e+01
8.12924e-02,1.73144e+01
8.31045e-02,1.60429e+01
8.49570e-02,1.48601e+01
8.68508e-02,1.37601e+01
8.87868e-02,1.27374e+01
9.07660e-02,1.17867e+01
9.27893e-02,1.09033e+01
9.48577e-02,1.00824e+01
9.69722e-02,9.32000e+00
9.91339e-02,8.61193e+00
1.01344e-01,7.95451e+00
1.03603e-01,7.34423e+00
1.05912e-01,6.77783e+00
1.08273e-01,6.25227e+00
1.10687e-01,5.76470e+00
1.13154e-01,5.31246e+00
1.15676e-01,4.89307e+00
1.18255e-01,4.50422e+00
1.20891e-01,4.14374e+00
1.23586e-01,3.80963e+00
1.26341e-01,3.50000e+00
1.29157e-01,3.21312e+00
1.32036e-01,2.94736e+00
1.34980e-01,2.70119e+00
1.37988e-01,2.47322e+00
1.41064e-01,2.26212e+00
1.44209e-01,2.06668e+00
1.47424e-01,1.88577e+00
1.50710e-01,1.71832e+00
1.54069e-01,1.56335e+00
1.57504e-01,1.41995e+00
1.61015e-01,1.28728e+00
1.64604e-01,1.16455e+00
1.68273e-01,1.05103e+00
1.72024e-01,9.46031e-01
1.75859e-01,8.48934e-01
1.79779e-01,7.59152e-01
1.83787e-01,6.76143e-01
1.87884e-01,5.99403e-01
1.92072e-01,5.28467e-01
1.96353e-01,4.62901e-01
2.00730e-01,4.02305e-01
2.05205e-01,3.46307e-01
2.09779e-01,2.94563e-01
2.14455e-01,2.46754e-01
2.19236e-01,2.02584e-01
2.24123e-01,1.61780e-01
2.29119e-01,1.24088e-01
2.34226e-01,8.92733e-02
2.39448e-01,5.71186e-02
2.44785e-01,2.74229e-02
2.50242e-01,0.00000e+00
