m1=40909.019, m2=37.937, gsp=2.366, rhosp=286.660
fGW[Hz],dPh[rad]
2.28959e-03,3.18763e+04
2.33431e-03,3.05023e+04
2.37991e-03,2.91851e+04
2.42639e-03,2.79225e+04
2.47379e-03,2.67121e+04
2.52210e-03,2.55520e+04
2.57137e-03,2.44401e+04
2.62159e-03,2.33745e+04
2.67280e-03,2.23532e+04
2.72500e-03,2.13746e+04
2.77823e-03,2.04368e+04
2.83249e-03,1.95382e+04
2.88782e-03,1.86773e+04
2.94422e-03,1.78525e+04
3.00173e-03,1.70623e+04
3.06036e-03,1.63054e+04
3.12013e-03,1.55804e+04
3.18108e-03,1.48860e+04
3.24321e-03,1.42209e+04
3.30656e-03,1.35840e+04
3.37114e-03,1.29742e+04
3.43699e-03,1.23902e+04
3.50412e-03,1.18311e+04
3.57256e-03,1.12959e+04
3.64234e-03,1.07835e+04
3.71348e-03,1.02931e+04
3.78602e-03,9.82375e+03
3.85996e-03,9.37456e+03
3.93536e-03,8.94472e+03
4.01222e-03,8.53343e+03
4.09059e-03,8.13995e+03
4.17049e-03,7.76352e+03
4.25195e-03,7.40346e+03
4.33500e-03,7.05908e+03
4.41967e-03,6.72973e+03
4.50600e-03,6.41481e+03
4.59401e-03,6.11370e+03
4.68374e-03,5.82583e+03
4.77522e-03,5.55066e+03
4.86849e-03,5.28765e+03
4.96358e-03,5.03631e+03
5.06053e-03,4.79613e+03
5.15938e-03,4.56666e+03
5.26015e-03,4.34745e+03
5.36289e-03,4.13806e+03
5.46764e-03,3.93808e+03
5.57444e-03,3.74712e+03
5.68332e-03,3.56480e+03
5.79432e-03,3.39074e+03
5.90750e-03,3.22461e+03
6.02289e-03,3.06605e+03
6.14053e-03,2.91476e+03
6.26046e-03,2.77042e+03
6.38274e-03,2.63273e+03
6.50741e-03,2.50140e+03
6.63452e-03,2.37617e+03
6.76410e-03,2.25678e+03
6.89622e-03,2.14296e+03
7.03092e-03,2.03448e+03
7.16825e-03,1.93110e+03
7.30826e-03,1.83260e+03
7.45100e-03,1.73878e+03
7.59654e-03,1.64942e+03
7.74492e-03,1.56433e+03
7.89619e-03,1.48331e+03
8.05042e-03,1.40620e+03
8.20766e-03,1.33281e+03
8.36798e-03,1.26298e+03
8.53142e-03,1.19656e+03
8.69806e-03,1.13338e+03
8.86795e-03,1.07330e+03
9.04116e-03,1.01619e+03
9.21775e-03,9.61900e+02
9.39779e-03,9.10311e+02
9.58135e-03,8.61297e+02
9.76850e-03,8.14740e+02
9.95930e-03,7.70527e+02
1.01538e-02,7.28549e+02
1.03522e-02,6.88702e+02
1.05544e-02,6.50887e+02
1.07605e-02,6.15008e+02
1.09707e-02,5.80975e+02
1.11850e-02,5.48700e+02
1.14034e-02,5.18099e+02
1.16262e-02,4.89093e+02
1.18532e-02,4.61606e+02
1.20848e-02,4.35563e+02
1.23208e-02,4.10896e+02
1.25615e-02,3.87536e+02
1.28068e-02,3.65422e+02
1.30569e-02,3.44490e+02
1.33120e-02,3.24683e+02
1.35720e-02,3.05946e+02
1.38371e-02,2.88224e+02
1.41073e-02,2.71467e+02
1.43829e-02,2.55627e+02
1.46638e-02,2.40657e+02
1.49502e-02,2.26512e+02
1.52423e-02,2.13152e+02
1.55400e-02,2.00535e+02
1.58435e-02,1.88622e+02
1.61530e-02,1.77379e+02
1.64685e-02,1.66769e+02
1.67901e-02,1.56759e+02
1.71181e-02,1.47319e+02
1.74524e-02,1.38417e+02
1.77933e-02,1.30025e+02
1.81408e-02,1.22116e+02
1.84952e-02,1.14664e+02
1.88564e-02,1.07644e+02
1.92247e-02,1.01032e+02
1.96002e-02,9.48074e+01
1.99831e-02,8.89479e+01
2.03734e-02,8.34335e+01
2.07713e-02,7.82451e+01
2.11770e-02,7.33646e+01
2.15907e-02,6.87749e+01
2.20124e-02,6.44596e+01
2.24423e-02,6.04031e+01
2.28807e-02,5.65910e+01
2.33276e-02,5.30091e+01
2.37832e-02,4.96444e+01
2.42477e-02,4.64845e+01
2.47214e-02,4.35174e+01
2.52042e-02,4.07320e+01
2.56965e-02,3.81177e+01
2.61984e-02,3.56646e+01
2.67101e-02,3.33631e+01
2.72318e-02,3.12044e+01
2.77637e-02,2.91800e+01
2.83060e-02,2.72818e+01
2.88589e-02,2.55025e+01
2.94226e-02,2.38347e+01
2.99973e-02,2.22720e+01
3.05832e-02,2.08078e+01
3.11805e-02,1.94363e+01
3.17896e-02,1.81518e+01
3.24105e-02,1.69489e+01
3.30435e-02,1.58228e+01
3.36889e-02,1.47687e+01
3.43469e-02,1.37821e+01
3.50178e-02,1.28588e+01
3.57018e-02,1.19951e+01
3.63991e-02,1.11870e+01
3.71101e-02,1.04312e+01
3.78349e-02,9.72440e+00
3.85739e-02,9.06349e+00
3.93273e-02,8.44560e+00
4.00955e-02,7.86801e+00
4.08786e-02,7.32816e+00
4.16771e-02,6.82365e+00
4.24911e-02,6.35224e+00
4.33211e-02,5.91181e+00
4.41672e-02,5.50038e+00
4.50299e-02,5.11608e+00
4.59094e-02,4.75717e+00
4.68062e-02,4.42202e+00
4.77204e-02,4.10907e+00
4.86525e-02,3.81691e+00
4.96027e-02,3.54417e+00
5.05716e-02,3.28959e+00
5.15594e-02,3.05199e+00
5.25664e-02,2.83026e+00
5.35932e-02,2.62336e+00
5.46400e-02,2.43032e+00
5.57072e-02,2.25022e+00
5.67953e-02,2.08221e+00
5.79046e-02,1.92550e+00
5.90356e-02,1.77933e+00
6.01887e-02,1.64302e+00
6.13643e-02,1.51591e+00
6.25629e-02,1.39738e+00
6.37849e-02,1.28686e+00
6.50307e-02,1.18383e+00
6.63009e-02,1.08777e+00
6.75959e-02,9.98237e-01
6.89162e-02,9.14778e-01
7.02623e-02,8.36992e-01
7.16347e-02,7.64497e-01
7.30339e-02,6.96937e-01
7.44604e-02,6.33981e-01
7.59147e-02,5.75319e-01
7.73975e-02,5.20661e-01
7.89093e-02,4.69736e-01
8.04505e-02,4.22293e-01
8.20219e-02,3.78096e-01
8.36240e-02,3.36925e-01
8.52573e-02,2.98574e-01
8.69226e-02,2.62853e-01
8.86204e-02,2.29582e-01
9.03513e-02,1.98596e-01
9.21161e-02,1.69738e-01
9.39153e-02,1.42864e-01
9.57497e-02,1.17838e-01
9.76199e-02,9.45345e-02
9.95266e-02,7.28354e-02
1.01471e-01,5.26313e-02
1.03452e-01,3.38198e-02
1.05473e-01,1.63057e-02
1.07533e-01,0.00000e+00
