m1=997196.741, m2=10.301, gsp=2.225, rhosp=14.679
fGW[Hz],dPh[rad]
1.67989e-03,2.03385e+02
1.68805e-03,1.99536e+02
1.69626e-03,1.95758e+02
1.70450e-03,1.92051e+02
1.71279e-03,1.88411e+02
1.72112e-03,1.84839e+02
1.72948e-03,1.81332e+02
1.73789e-03,1.77890e+02
1.74634e-03,1.74512e+02
1.75483e-03,1.71196e+02
1.76336e-03,1.67941e+02
1.77193e-03,1.64746e+02
1.78054e-03,1.61610e+02
1.78920e-03,1.58532e+02
1.79790e-03,1.55511e+02
1.80663e-03,1.52546e+02
1.81542e-03,1.49635e+02
1.82424e-03,1.46778e+02
1.83311e-03,1.43973e+02
1.84202e-03,1.41221e+02
1.85098e-03,1.38519e+02
1.85997e-03,1.35867e+02
1.86901e-03,1.33264e+02
1.87810e-03,1.30709e+02
1.88723e-03,1.28201e+02
1.89640e-03,1.25740e+02
1.90562e-03,1.23323e+02
1.91489e-03,1.20952e+02
1.92419e-03,1.18624e+02
1.93355e-03,1.16339e+02
1.94295e-03,1.14097e+02
1.95239e-03,1.11895e+02
1.96188e-03,1.09735e+02
1.97142e-03,1.07614e+02
1.98100e-03,1.05532e+02
1.99063e-03,1.03489e+02
2.00031e-03,1.01484e+02
2.01003e-03,9.95151e+01
2.01980e-03,9.75829e+01
2.02962e-03,9.56864e+01
2.03949e-03,9.38250e+01
2.04940e-03,9.19978e+01
2.05937e-03,9.02044e+01
2.06938e-03,8.84442e+01
2.07944e-03,8.67164e+01
2.08954e-03,8.50205e+01
2.09970e-03,8.33559e+01
2.10991e-03,8.17220e+01
2.12017e-03,8.01183e+01
2.13047e-03,7.85443e+01
2.14083e-03,7.69992e+01
2.15124e-03,7.54827e+01
2.16169e-03,7.39942e+01
2.17220e-03,7.25332e+01
2.18276e-03,7.10991e+01
2.19337e-03,6.96916e+01
2.20403e-03,6.83100e+01
2.21475e-03,6.69539e+01
2.22551e-03,6.56229e+01
2.23633e-03,6.43164e+01
2.24720e-03,6.30341e+01
2.25813e-03,6.17754e+01
2.26910e-03,6.05400e+01
2.28013e-03,5.93274e+01
2.29122e-03,5.81372e+01
2.30236e-03,5.69689e+01
2.31355e-03,5.58223e+01
2.32479e-03,5.46968e+01
2.33610e-03,5.35921e+01
2.34745e-03,5.25078e+01
2.35886e-03,5.14435e+01
2.37033e-03,5.03989e+01
2.38185e-03,4.93735e+01
2.39343e-03,4.83671e+01
2.40506e-03,4.73793e+01
2.41676e-03,4.64097e+01
2.42850e-03,4.54581e+01
2.44031e-03,4.45240e+01
2.45217e-03,4.36071e+01
2.46409e-03,4.27072e+01
2.47607e-03,4.18240e+01
2.48811e-03,4.09570e+01
2.50020e-03,4.01060e+01
2.51236e-03,3.92708e+01
2.52457e-03,3.84510e+01
2.53684e-03,3.76463e+01
2.54917e-03,3.68565e+01
2.56156e-03,3.60813e+01
2.57402e-03,3.53204e+01
2.58653e-03,3.45736e+01
2.59910e-03,3.38405e+01
2.61174e-03,3.31210e+01
2.62443e-03,3.24148e+01
2.63719e-03,3.17216e+01
2.65001e-03,3.10413e+01
2.66289e-03,3.03735e+01
2.67584e-03,2.97180e+01
2.68884e-03,2.90746e+01
2.70192e-03,2.84432e+01
2.71505e-03,2.78234e+01
2.72825e-03,2.72150e+01
2.74151e-03,2.66179e+01
2.75484e-03,2.60318e+01
2.76823e-03,2.54566e+01
2.78169e-03,2.48919e+01
2.79521e-03,2.43378e+01
2.80880e-03,2.37938e+01
2.82245e-03,2.32599e+01
2.83617e-03,2.27358e+01
2.84996e-03,2.22215e+01
2.86381e-03,2.17166e+01
2.87773e-03,2.12211e+01
2.89172e-03,2.07347e+01
2.90578e-03,2.02573e+01
2.91990e-03,1.97888e+01
2.93410e-03,1.93289e+01
2.94836e-03,1.88774e+01
2.96269e-03,1.84344e+01
2.97709e-03,1.79995e+01
2.99157e-03,1.75726e+01
3.00611e-03,1.71537e+01
3.02072e-03,1.67424e+01
3.03541e-03,1.63388e+01
3.05016e-03,1.59427e+01
3.06499e-03,1.55538e+01
3.07989e-03,1.51722e+01
3.09486e-03,1.47975e+01
3.10990e-03,1.44299e+01
3.12502e-03,1.40690e+01
3.14021e-03,1.37147e+01
3.15548e-03,1.33671e+01
3.17082e-03,1.30258e+01
3.18623e-03,1.26909e+01
3.20172e-03,1.23621e+01
3.21728e-03,1.20394e+01
3.23292e-03,1.17227e+01
3.24864e-03,1.14119e+01
3.26443e-03,1.11067e+01
3.28030e-03,1.08073e+01
3.29625e-03,1.05133e+01
3.31227e-03,1.02248e+01
3.32837e-03,9.94162e+00
3.34455e-03,9.66367e+00
3.36081e-03,9.39086e+00
3.37715e-03,9.12309e+00
3.39356e-03,8.86027e+00
3.41006e-03,8.60230e+00
3.42663e-03,8.34910e+00
3.44329e-03,8.10059e+00
3.46003e-03,7.85666e+00
3.47685e-03,7.61725e+00
3.49375e-03,7.38226e+00
3.51073e-03,7.15161e+00
3.52780e-03,6.92523e+00
3.54495e-03,6.70302e+00
3.56218e-03,6.48493e+00
3.57950e-03,6.27087e+00
3.59690e-03,6.06076e+00
3.61438e-03,5.85454e+00
3.63195e-03,5.65213e+00
3.64961e-03,5.45346e+00
3.66735e-03,5.25846e+00
3.68518e-03,5.06707e+00
3.70309e-03,4.87921e+00
3.72109e-03,4.69483e+00
3.73918e-03,4.51385e+00
3.75736e-03,4.33622e+00
3.77562e-03,4.16187e+00
3.79398e-03,3.99075e+00
3.81242e-03,3.82279e+00
3.83095e-03,3.65793e+00
3.84958e-03,3.49612e+00
3.86829e-03,3.33730e+00
3.88709e-03,3.18142e+00
3.90599e-03,3.02842e+00
3.92498e-03,2.87824e+00
3.94406e-03,2.73085e+00
3.96323e-03,2.58617e+00
3.98249e-03,2.44418e+00
4.00185e-03,2.30480e+00
4.02131e-03,2.16801e+00
4.04085e-03,2.03374e+00
4.06050e-03,1.90195e+00
4.08024e-03,1.77260e+00
4.10007e-03,1.64564e+00
4.12000e-03,1.52103e+00
4.14003e-03,1.39872e+00
4.16015e-03,1.27867e+00
4.18038e-03,1.16085e+00
4.20070e-03,1.04520e+00
4.22112e-03,9.31684e-01
4.24164e-03,8.20271e-01
4.26226e-03,7.10917e-01
4.28298e-03,6.03585e-01
4.30380e-03,4.98237e-01
4.32472e-03,3.94836e-01
4.34574e-03,2.93347e-01
4.36687e-03,1.93735e-01
4.38809e-03,9.59636e-02
4.40943e-03,0.00000e+00
