m1=46158.216, m2=3.959, gsp=2.061, rhosp=69.183
fGW[Hz],dPh[rad]
5.18392e-03,3.63580e+02
5.26031e-03,3.46097e+02
5.33783e-03,3.29414e+02
5.41649e-03,3.13497e+02
5.49631e-03,2.98312e+02
5.57730e-03,2.83829e+02
5.65949e-03,2.70016e+02
5.74289e-03,2.56844e+02
5.82752e-03,2.44286e+02
5.91339e-03,2.32315e+02
6.00053e-03,2.20904e+02
6.08896e-03,2.10029e+02
6.17868e-03,1.99667e+02
6.26973e-03,1.89793e+02
6.36213e-03,1.80388e+02
6.45588e-03,1.71429e+02
6.55101e-03,1.62897e+02
6.64755e-03,1.54773e+02
6.74551e-03,1.47037e+02
6.84491e-03,1.39673e+02
6.94578e-03,1.32663e+02
7.04813e-03,1.25991e+02
7.15199e-03,1.19643e+02
7.25739e-03,1.13602e+02
7.36433e-03,1.07855e+02
7.47286e-03,1.02388e+02
7.58298e-03,9.71886e+01
7.69472e-03,9.22437e+01
7.80811e-03,8.75417e+01
7.92317e-03,8.30712e+01
8.03993e-03,7.88213e+01
8.15841e-03,7.47816e+01
8.27863e-03,7.09422e+01
8.40062e-03,6.72936e+01
8.52442e-03,6.38267e+01
8.65003e-03,6.05328e+01
8.77750e-03,5.74037e+01
8.90685e-03,5.44315e+01
9.03810e-03,5.16087e+01
9.17129e-03,4.89279e+01
9.30644e-03,4.63824e+01
9.44358e-03,4.39656e+01
9.58274e-03,4.16712e+01
9.72395e-03,3.94933e+01
9.86725e-03,3.74262e+01
1.00127e-02,3.54644e+01
1.01602e-02,3.36028e+01
1.03099e-02,3.18364e+01
1.04618e-02,3.01606e+01
1.06160e-02,2.85708e+01
1.07725e-02,2.70628e+01
1.09312e-02,2.56324e+01
1.10923e-02,2.42760e+01
1.12557e-02,2.29896e+01
1.14216e-02,2.17699e+01
1.15899e-02,2.06135e+01
1.17607e-02,1.95171e+01
1.19340e-02,1.84779e+01
1.21099e-02,1.74928e+01
1.22883e-02,1.65591e+01
1.24694e-02,1.56743e+01
1.26532e-02,1.48359e+01
1.28396e-02,1.40414e+01
1.30288e-02,1.32886e+01
1.32208e-02,1.25754e+01
1.34156e-02,1.18998e+01
1.36133e-02,1.12599e+01
1.38139e-02,1.06537e+01
1.40175e-02,1.00797e+01
1.42241e-02,9.53597e+00
1.44337e-02,9.02112e+00
1.46464e-02,8.53361e+00
1.48622e-02,8.07201e+00
1.50812e-02,7.63499e+00
1.53035e-02,7.22126e+00
1.55290e-02,6.82959e+00
1.57578e-02,6.45886e+00
1.59900e-02,6.10794e+00
1.62257e-02,5.77581e+00
1.64648e-02,5.46148e+00
1.67074e-02,5.16402e+00
1.69536e-02,4.88253e+00
1.72034e-02,4.61617e+00
1.74569e-02,4.36415e+00
1.77142e-02,4.12570e+00
1.79752e-02,3.90011e+00
1.82401e-02,3.68669e+00
1.85089e-02,3.48481e+00
1.87816e-02,3.29383e+00
1.90584e-02,3.11320e+00
1.93393e-02,2.94234e+00
1.96242e-02,2.78075e+00
1.99134e-02,2.62793e+00
2.02069e-02,2.48340e+00
2.05046e-02,2.34673e+00
2.08068e-02,2.21749e+00
2.11134e-02,2.09528e+00
2.14245e-02,1.97973e+00
2.17403e-02,1.87048e+00
2.20606e-02,1.76719e+00
2.23857e-02,1.66953e+00
2.27156e-02,1.57721e+00
2.30503e-02,1.48994e+00
2.33900e-02,1.40744e+00
2.37347e-02,1.32945e+00
2.40844e-02,1.25574e+00
2.44393e-02,1.18606e+00
2.47995e-02,1.12021e+00
2.51649e-02,1.05796e+00
2.55358e-02,9.99140e-01
2.59121e-02,9.43546e-01
2.62939e-02,8.91008e-01
2.66814e-02,8.41358e-01
2.70746e-02,7.94440e-01
2.74735e-02,7.50105e-01
2.78784e-02,7.08211e-01
2.82892e-02,6.68625e-01
2.87061e-02,6.31222e-01
2.91291e-02,5.95882e-01
2.95584e-02,5.62492e-01
2.99939e-02,5.30945e-01
3.04359e-02,5.01140e-01
3.08844e-02,4.72982e-01
3.13395e-02,4.46381e-01
3.18014e-02,4.21251e-01
3.22700e-02,3.97510e-01
3.27455e-02,3.75084e-01
3.32281e-02,3.53899e-01
3.37177e-02,3.33888e-01
3.42146e-02,3.14985e-01
3.47188e-02,2.97131e-01
3.52304e-02,2.80266e-01
3.57496e-02,2.64336e-01
3.62764e-02,2.49290e-01
3.68110e-02,2.35080e-01
3.73534e-02,2.21658e-01
3.79039e-02,2.08982e-01
3.84624e-02,1.97010e-01
3.90292e-02,1.85703e-01
3.96043e-02,1.75025e-01
4.01880e-02,1.64940e-01
4.07802e-02,1.55417e-01
4.13811e-02,1.46423e-01
4.19909e-02,1.37930e-01
4.26097e-02,1.29909e-01
4.32376e-02,1.22336e-01
4.38747e-02,1.15183e-01
4.45213e-02,1.08430e-01
4.51774e-02,1.02052e-01
4.58431e-02,9.60304e-02
4.65187e-02,9.03441e-02
4.72042e-02,8.49749e-02
4.78998e-02,7.99051e-02
4.86056e-02,7.51181e-02
4.93219e-02,7.05982e-02
5.00487e-02,6.63306e-02
5.07862e-02,6.23011e-02
5.15346e-02,5.84966e-02
5.22940e-02,5.49045e-02
5.30646e-02,5.15130e-02
5.38466e-02,4.83109e-02
5.46401e-02,4.52877e-02
5.54453e-02,4.24335e-02
5.62623e-02,3.97388e-02
5.70914e-02,3.71946e-02
5.79327e-02,3.47927e-02
5.87864e-02,3.25252e-02
5.96527e-02,3.03844e-02
6.05318e-02,2.83633e-02
6.14238e-02,2.64553e-02
6.23289e-02,2.46540e-02
6.32474e-02,2.29536e-02
6.41794e-02,2.13482e-02
6.51252e-02,1.98328e-02
6.60849e-02,1.84021e-02
6.70587e-02,1.70516e-02
6.80469e-02,1.57766e-02
6.90496e-02,1.45731e-02
7.00672e-02,1.34369e-02
7.10997e-02,1.23644e-02
7.21474e-02,1.13520e-02
7.32106e-02,1.03963e-02
7.42894e-02,9.49410e-03
7.53842e-02,8.64247e-03
7.64951e-02,7.83858e-03
7.76223e-02,7.07973e-03
7.87661e-02,6.36342e-03
7.99269e-02,5.68726e-03
8.11047e-02,5.04901e-03
8.22998e-02,4.44654e-03
8.35126e-02,3.87785e-03
8.47433e-02,3.34105e-03
8.59921e-02,2.83436e-03
8.72592e-02,2.35608e-03
8.85451e-02,1.90462e-03
8.98499e-02,1.47850e-03
9.11740e-02,1.07627e-03
9.25175e-02,6.96610e-04
9.38809e-02,3.38252e-04
9.52643e-02,0.00000e+00
