m1=385190.099, m2=5.815, gsp=2.118, rhosp=30.431
fGW[Hz],dPh[rad]
2.64048e-03,1.01445e+02
2.65998e-03,9.85688e+01
2.67962e-03,9.57739e+01
2.69941e-03,9.30578e+01
2.71934e-03,9.04182e+01
2.73942e-03,8.78531e+01
2.75965e-03,8.53603e+01
2.78002e-03,8.29377e+01
2.80055e-03,8.05836e+01
2.82123e-03,7.82958e+01
2.84206e-03,7.60725e+01
2.86305e-03,7.39120e+01
2.88419e-03,7.18124e+01
2.90549e-03,6.97720e+01
2.92694e-03,6.77892e+01
2.94855e-03,6.58624e+01
2.97032e-03,6.39900e+01
2.99226e-03,6.21704e+01
3.01435e-03,6.04022e+01
3.03661e-03,5.86839e+01
3.05903e-03,5.70141e+01
3.08162e-03,5.53915e+01
3.10437e-03,5.38147e+01
3.12729e-03,5.22824e+01
3.15039e-03,5.07934e+01
3.17365e-03,4.93464e+01
3.19708e-03,4.79403e+01
3.22069e-03,4.65740e+01
3.24447e-03,4.52462e+01
3.26843e-03,4.39560e+01
3.29256e-03,4.27022e+01
3.31687e-03,4.14838e+01
3.34136e-03,4.02999e+01
3.36604e-03,3.91494e+01
3.39089e-03,3.80315e+01
3.41593e-03,3.69451e+01
3.44115e-03,3.58895e+01
3.46656e-03,3.48637e+01
3.49216e-03,3.38669e+01
3.51794e-03,3.28983e+01
3.54392e-03,3.19571e+01
3.57009e-03,3.10425e+01
3.59645e-03,3.01538e+01
3.62300e-03,2.92902e+01
3.64975e-03,2.84510e+01
3.67670e-03,2.76356e+01
3.70385e-03,2.68432e+01
3.73120e-03,2.60732e+01
3.75875e-03,2.53251e+01
3.78651e-03,2.45981e+01
3.81447e-03,2.38916e+01
3.84263e-03,2.32052e+01
3.87100e-03,2.25382e+01
3.89959e-03,2.18900e+01
3.92838e-03,2.12602e+01
3.95739e-03,2.06483e+01
3.98661e-03,2.00536e+01
4.01605e-03,1.94758e+01
4.04570e-03,1.89143e+01
4.07557e-03,1.83688e+01
4.10567e-03,1.78387e+01
4.13598e-03,1.73235e+01
4.16652e-03,1.68230e+01
4.19729e-03,1.63367e+01
4.22828e-03,1.58641e+01
4.25950e-03,1.54049e+01
4.29095e-03,1.49587e+01
4.32264e-03,1.45251e+01
4.35455e-03,1.41038e+01
4.38671e-03,1.36945e+01
4.41910e-03,1.32967e+01
4.45173e-03,1.29102e+01
4.48460e-03,1.25347e+01
4.51771e-03,1.21698e+01
4.55107e-03,1.18152e+01
4.58468e-03,1.14707e+01
4.61853e-03,1.11360e+01
4.65263e-03,1.08107e+01
4.68699e-03,1.04947e+01
4.72159e-03,1.01876e+01
4.75646e-03,9.88916e+00
4.79158e-03,9.59922e+00
4.82696e-03,9.31750e+00
4.86260e-03,9.04376e+00
4.89851e-03,8.77778e+00
4.93468e-03,8.51934e+00
4.97111e-03,8.26822e+00
5.00782e-03,8.02423e+00
5.04480e-03,7.78715e+00
5.08205e-03,7.55679e+00
5.11957e-03,7.33296e+00
5.15737e-03,7.11547e+00
5.19546e-03,6.90415e+00
5.23382e-03,6.69883e+00
5.27246e-03,6.49932e+00
5.31140e-03,6.30547e+00
5.35061e-03,6.11712e+00
5.39012e-03,5.93411e+00
5.42992e-03,5.75629e+00
5.47002e-03,5.58351e+00
5.51041e-03,5.41563e+00
5.55110e-03,5.25251e+00
5.59208e-03,5.09402e+00
5.63338e-03,4.94002e+00
5.67497e-03,4.79039e+00
5.71688e-03,4.64500e+00
5.75909e-03,4.50374e+00
5.80161e-03,4.36649e+00
5.84445e-03,4.23313e+00
5.88761e-03,4.10355e+00
5.93108e-03,3.97765e+00
5.97487e-03,3.85531e+00
6.01899e-03,3.73645e+00
6.06343e-03,3.62097e+00
6.10821e-03,3.50875e+00
6.15331e-03,3.39973e+00
6.19874e-03,3.29379e+00
6.24451e-03,3.19086e+00
6.29062e-03,3.09085e+00
6.33707e-03,2.99368e+00
6.38387e-03,2.89927e+00
6.43100e-03,2.80753e+00
6.47849e-03,2.71840e+00
6.52633e-03,2.63180e+00
6.57451e-03,2.54765e+00
6.62306e-03,2.46590e+00
6.67196e-03,2.38646e+00
6.72123e-03,2.30928e+00
6.77086e-03,2.23429e+00
6.82085e-03,2.16142e+00
6.87122e-03,2.09063e+00
6.92195e-03,2.02184e+00
6.97307e-03,1.95501e+00
7.02455e-03,1.89007e+00
7.07642e-03,1.82698e+00
7.12867e-03,1.76568e+00
7.18131e-03,1.70611e+00
7.23434e-03,1.64824e+00
7.28775e-03,1.59201e+00
7.34157e-03,1.53738e+00
7.39578e-03,1.48430e+00
7.45039e-03,1.43272e+00
7.50540e-03,1.38261e+00
7.56082e-03,1.33393e+00
7.61665e-03,1.28662e+00
7.67289e-03,1.24066e+00
7.72954e-03,1.19600e+00
7.78662e-03,1.15261e+00
7.84411e-03,1.11045e+00
7.90203e-03,1.06949e+00
7.96038e-03,1.02969e+00
8.01916e-03,9.91027e-01
8.07837e-03,9.53458e-01
8.13802e-03,9.16955e-01
8.19811e-03,8.81488e-01
8.25864e-03,8.47029e-01
8.31962e-03,8.13548e-01
8.38106e-03,7.81018e-01
8.44294e-03,7.49412e-01
8.50528e-03,7.18703e-01
8.56808e-03,6.88867e-01
8.63135e-03,6.59877e-01
8.69508e-03,6.31711e-01
8.75929e-03,6.04345e-01
8.82396e-03,5.77756e-01
8.88912e-03,5.51923e-01
8.95476e-03,5.26823e-01
9.02088e-03,5.02435e-01
9.08749e-03,4.78741e-01
9.15459e-03,4.55719e-01
9.22218e-03,4.33352e-01
9.29028e-03,4.11619e-01
9.35888e-03,3.90504e-01
9.42798e-03,3.69989e-01
9.49760e-03,3.50056e-01
9.56773e-03,3.30690e-01
9.63837e-03,3.11873e-01
9.70954e-03,2.93592e-01
9.78124e-03,2.75829e-01
9.85346e-03,2.58571e-01
9.92622e-03,2.41803e-01
9.99951e-03,2.25512e-01
1.00733e-02,2.09683e-01
1.01477e-02,1.94304e-01
1.02227e-02,1.79362e-01
1.02981e-02,1.64844e-01
1.03742e-02,1.50739e-01
1.04508e-02,1.37035e-01
1.05279e-02,1.23720e-01
1.06057e-02,1.10783e-01
1.06840e-02,9.82134e-02
1.07629e-02,8.60011e-02
1.08424e-02,7.41358e-02
1.09224e-02,6.26076e-02
1.10031e-02,5.14070e-02
1.10843e-02,4.05245e-02
1.11662e-02,2.99512e-02
1.12486e-02,1.96784e-02
1.13317e-02,9.69740e-03
1.14153e-02,0.00000e+00
