m1=1218.953, m2=21.132, gsp=2.191, rhosp=62.627
fGW[Hz],dPh[rad]
6.87692e-03,1.33413e+02
7.09708e-03,1.24449e+02
7.32430e-03,1.16087e+02
7.55878e-03,1.08286e+02
7.80078e-03,1.01010e+02
8.05052e-03,9.42224e+01
8.30826e-03,8.78907e+01
8.57425e-03,8.19844e+01
8.84875e-03,7.64747e+01
9.13204e-03,7.13352e+01
9.42440e-03,6.65409e+01
9.72613e-03,6.20686e+01
1.00375e-02,5.78968e+01
1.03589e-02,5.40052e+01
1.06905e-02,5.03750e+01
1.10328e-02,4.69887e+01
1.13860e-02,4.38299e+01
1.17505e-02,4.08833e+01
1.21267e-02,3.81346e+01
1.25149e-02,3.55706e+01
1.29156e-02,3.31789e+01
1.33291e-02,3.09478e+01
1.37558e-02,2.88667e+01
1.41962e-02,2.69254e+01
1.46507e-02,2.51145e+01
1.51197e-02,2.34253e+01
1.56038e-02,2.18495e+01
1.61033e-02,2.03797e+01
1.66189e-02,1.90086e+01
1.71509e-02,1.77297e+01
1.77000e-02,1.65367e+01
1.82667e-02,1.54239e+01
1.88515e-02,1.43859e+01
1.94550e-02,1.34176e+01
2.00779e-02,1.25144e+01
2.07207e-02,1.16720e+01
2.13840e-02,1.08861e+01
2.20686e-02,1.01531e+01
2.27752e-02,9.46932e+00
2.35043e-02,8.83154e+00
2.42568e-02,8.23662e+00
2.50334e-02,7.68171e+00
2.58348e-02,7.16411e+00
2.66619e-02,6.68131e+00
2.75155e-02,6.23097e+00
2.83964e-02,5.81092e+00
2.93055e-02,5.41912e+00
3.02437e-02,5.05367e+00
3.12120e-02,4.71280e+00
3.22112e-02,4.39486e+00
3.32425e-02,4.09830e+00
3.43067e-02,3.82170e+00
3.54051e-02,3.56371e+00
3.65386e-02,3.32308e+00
3.77083e-02,3.09865e+00
3.89156e-02,2.88931e+00
4.01614e-02,2.69407e+00
4.14472e-02,2.51198e+00
4.27741e-02,2.34214e+00
4.41436e-02,2.18373e+00
4.55568e-02,2.03600e+00
4.70153e-02,1.89821e+00
4.85205e-02,1.76971e+00
5.00739e-02,1.64986e+00
5.16770e-02,1.53809e+00
5.33314e-02,1.43385e+00
5.50388e-02,1.33664e+00
5.68009e-02,1.24598e+00
5.86194e-02,1.16143e+00
6.04961e-02,1.08258e+00
6.24329e-02,1.00906e+00
6.44316e-02,9.40490e-01
6.64944e-02,8.76551e-01
6.86232e-02,8.16926e-01
7.08202e-02,7.61327e-01
7.30875e-02,7.09483e-01
7.54274e-02,6.61140e-01
7.78422e-02,6.16064e-01
8.03343e-02,5.74034e-01
8.29062e-02,5.34845e-01
8.55605e-02,4.98307e-01
8.82997e-02,4.64240e-01
9.11266e-02,4.32478e-01
9.40440e-02,4.02866e-01
9.70548e-02,3.75260e-01
1.00162e-01,3.49524e-01
1.03369e-01,3.25532e-01
1.06678e-01,3.03167e-01
1.10093e-01,2.82318e-01
1.13618e-01,2.62885e-01
1.17255e-01,2.44771e-01
1.21009e-01,2.27887e-01
1.24883e-01,2.12151e-01
1.28882e-01,1.97485e-01
1.33008e-01,1.83816e-01
1.37266e-01,1.71079e-01
1.41661e-01,1.59209e-01
1.46196e-01,1.48148e-01
1.50876e-01,1.37842e-01
1.55707e-01,1.28239e-01
1.60691e-01,1.19292e-01
1.65836e-01,1.10957e-01
1.71145e-01,1.03193e-01
1.76624e-01,9.59595e-02
1.82279e-01,8.92223e-02
1.88115e-01,8.29472e-02
1.94137e-01,7.71031e-02
2.00353e-01,7.16606e-02
2.06767e-01,6.65927e-02
2.13386e-01,6.18739e-02
2.20218e-01,5.74805e-02
2.27268e-01,5.33905e-02
2.34544e-01,4.95832e-02
2.42053e-01,4.60394e-02
2.49802e-01,4.27413e-02
2.57800e-01,3.96721e-02
2.66053e-01,3.68163e-02
2.74571e-01,3.41592e-02
2.83361e-01,3.16874e-02
2.92433e-01,2.93883e-02
3.01795e-01,2.72500e-02
3.11457e-01,2.52616e-02
3.21429e-01,2.34128e-02
3.31719e-01,2.16940e-02
3.42339e-01,2.00965e-02
3.53299e-01,1.86117e-02
3.64610e-01,1.72321e-02
3.76283e-01,1.59503e-02
3.88330e-01,1.47598e-02
4.00762e-01,1.36540e-02
4.13592e-01,1.26273e-02
4.26834e-01,1.16742e-02
4.40499e-01,1.07896e-02
4.54601e-01,9.96868e-03
4.69155e-01,9.20709e-03
4.84175e-01,8.50071e-03
4.99676e-01,7.84568e-03
5.15673e-01,7.23843e-03
5.32182e-01,6.67562e-03
5.49220e-01,6.15414e-03
5.66803e-01,5.67110e-03
5.84950e-01,5.22379e-03
6.03677e-01,4.80969e-03
6.23003e-01,4.42646e-03
6.42949e-01,4.07192e-03
6.63533e-01,3.74402e-03
6.84776e-01,3.44087e-03
7.06699e-01,3.16071e-03
7.29324e-01,2.90189e-03
7.52673e-01,2.66287e-03
7.76770e-01,2.44223e-03
8.01638e-01,2.23864e-03
8.27302e-01,2.05085e-03
8.53789e-01,1.87773e-03
8.81123e-01,1.71819e-03
9.09332e-01,1.57124e-03
9.38444e-01,1.43594e-03
9.68488e-01,1.31144e-03
9.99494e-01,1.19693e-03
1.03149e+00,1.09167e-03
1.06452e+00,9.94945e-04
1.09860e+00,9.06124e-04
1.13377e+00,8.24602e-04
1.17007e+00,7.49823e-04
1.20753e+00,6.81266e-04
1.24618e+00,6.18451e-04
1.28608e+00,5.60931e-04
1.32725e+00,5.08291e-04
1.36975e+00,4.60147e-04
1.41360e+00,4.16141e-04
1.45885e+00,3.75944e-04
1.50556e+00,3.39248e-04
1.55376e+00,3.05771e-04
1.60350e+00,2.75249e-04
1.65484e+00,2.47440e-04
1.70782e+00,2.22120e-04
1.76250e+00,1.99080e-04
1.81892e+00,1.78130e-04
1.87715e+00,1.59093e-04
1.93725e+00,1.41804e-04
1.99927e+00,1.26115e-04
2.06328e+00,1.11887e-04
2.12934e+00,9.89916e-05
2.19751e+00,8.73123e-05
2.26786e+00,7.67414e-05
2.34046e+00,6.71798e-05
2.41539e+00,5.85368e-05
2.49272e+00,5.07291e-05
2.57253e+00,4.36806e-05
2.65489e+00,3.73213e-05
2.73988e+00,3.15875e-05
2.82760e+00,2.64208e-05
2.91812e+00,2.17678e-05
3.01155e+00,1.75801e-05
3.10796e+00,1.38132e-05
3.20746e+00,1.04268e-05
3.31015e+00,7.38420e-06
3.41613e+00,4.65197e-06
3.52549e+00,2.19975e-06
3.63836e+00,0.00000e+00
