m1=558994.348, m2=17.365, gsp=2.325, rhosp=1161.015
fGW[Hz],dPh[rad]
1.59617e-03,8.20034e+03
1.60901e-03,7.95787e+03
1.62196e-03,7.72251e+03
1.63501e-03,7.49406e+03
1.64817e-03,7.27232e+03
1.66143e-03,7.05709e+03
1.67480e-03,6.84818e+03
1.68828e-03,6.64540e+03
1.70186e-03,6.44858e+03
1.71556e-03,6.25755e+03
1.72936e-03,6.07213e+03
1.74328e-03,5.89216e+03
1.75731e-03,5.71748e+03
1.77145e-03,5.54794e+03
1.78570e-03,5.38338e+03
1.80007e-03,5.22367e+03
1.81456e-03,5.06866e+03
1.82916e-03,4.91821e+03
1.84388e-03,4.77218e+03
1.85872e-03,4.63046e+03
1.87368e-03,4.49291e+03
1.88875e-03,4.35941e+03
1.90395e-03,4.22985e+03
1.91927e-03,4.10410e+03
1.93472e-03,3.98206e+03
1.95029e-03,3.86361e+03
1.96598e-03,3.74866e+03
1.98180e-03,3.63710e+03
1.99775e-03,3.52882e+03
2.01383e-03,3.42374e+03
2.03003e-03,3.32176e+03
2.04637e-03,3.22279e+03
2.06283e-03,3.12674e+03
2.07943e-03,3.03352e+03
2.09617e-03,2.94305e+03
2.11303e-03,2.85526e+03
2.13004e-03,2.77006e+03
2.14718e-03,2.68737e+03
2.16446e-03,2.60713e+03
2.18187e-03,2.52925e+03
2.19943e-03,2.45368e+03
2.21713e-03,2.38034e+03
2.23497e-03,2.30917e+03
2.25296e-03,2.24010e+03
2.27109e-03,2.17307e+03
2.28936e-03,2.10802e+03
2.30779e-03,2.04490e+03
2.32636e-03,1.98364e+03
2.34508e-03,1.92420e+03
2.36395e-03,1.86651e+03
2.38297e-03,1.81053e+03
2.40215e-03,1.75621e+03
2.42148e-03,1.70349e+03
2.44096e-03,1.65234e+03
2.46061e-03,1.60270e+03
2.48041e-03,1.55452e+03
2.50037e-03,1.50778e+03
2.52049e-03,1.46242e+03
2.54077e-03,1.41840e+03
2.56122e-03,1.37568e+03
2.58183e-03,1.33423e+03
2.60260e-03,1.29401e+03
2.62355e-03,1.25498e+03
2.64466e-03,1.21710e+03
2.66594e-03,1.18035e+03
2.68739e-03,1.14469e+03
2.70902e-03,1.11008e+03
2.73082e-03,1.07650e+03
2.75279e-03,1.04392e+03
2.77494e-03,1.01230e+03
2.79727e-03,9.81614e+02
2.81978e-03,9.51842e+02
2.84248e-03,9.22953e+02
2.86535e-03,8.94920e+02
2.88841e-03,8.67719e+02
2.91165e-03,8.41325e+02
2.93508e-03,8.15713e+02
2.95870e-03,7.90862e+02
2.98251e-03,7.66748e+02
3.00651e-03,7.43349e+02
3.03070e-03,7.20645e+02
3.05509e-03,6.98614e+02
3.07967e-03,6.77238e+02
3.10446e-03,6.56495e+02
3.12944e-03,6.36369e+02
3.15462e-03,6.16840e+02
3.18001e-03,5.97891e+02
3.20560e-03,5.79505e+02
3.23139e-03,5.61664e+02
3.25740e-03,5.44353e+02
3.28361e-03,5.27557e+02
3.31003e-03,5.11259e+02
3.33667e-03,4.95445e+02
3.36352e-03,4.80101e+02
3.39058e-03,4.65213e+02
3.41787e-03,4.50767e+02
3.44537e-03,4.36751e+02
3.47310e-03,4.23150e+02
3.50105e-03,4.09954e+02
3.52922e-03,3.97151e+02
3.55762e-03,3.84727e+02
3.58625e-03,3.72673e+02
3.61511e-03,3.60977e+02
3.64420e-03,3.49629e+02
3.67352e-03,3.38618e+02
3.70308e-03,3.27935e+02
3.73288e-03,3.17569e+02
3.76292e-03,3.07511e+02
3.79320e-03,2.97752e+02
3.82373e-03,2.88284e+02
3.85450e-03,2.79097e+02
3.88551e-03,2.70183e+02
3.91678e-03,2.61535e+02
3.94830e-03,2.53143e+02
3.98007e-03,2.45002e+02
4.01210e-03,2.37102e+02
4.04438e-03,2.29437e+02
4.07693e-03,2.22001e+02
4.10974e-03,2.14785e+02
4.14281e-03,2.07785e+02
4.17615e-03,2.00992e+02
4.20975e-03,1.94402e+02
4.24363e-03,1.88008e+02
4.27778e-03,1.81804e+02
4.31220e-03,1.75784e+02
4.34690e-03,1.69944e+02
4.38188e-03,1.64278e+02
4.41714e-03,1.58780e+02
4.45269e-03,1.53446e+02
4.48852e-03,1.48271e+02
4.52464e-03,1.43250e+02
4.56105e-03,1.38378e+02
4.59775e-03,1.33651e+02
4.63475e-03,1.29065e+02
4.67205e-03,1.24615e+02
4.70964e-03,1.20298e+02
4.74754e-03,1.16110e+02
4.78574e-03,1.12046e+02
4.82426e-03,1.08103e+02
4.86308e-03,1.04278e+02
4.90221e-03,1.00567e+02
4.94166e-03,9.69656e+01
4.98142e-03,9.34720e+01
5.02151e-03,9.00823e+01
5.06192e-03,8.67937e+01
5.10265e-03,8.36029e+01
5.14371e-03,8.05073e+01
5.18511e-03,7.75038e+01
5.22683e-03,7.45898e+01
5.26889e-03,7.17626e+01
5.31129e-03,6.90196e+01
5.35403e-03,6.63583e+01
5.39712e-03,6.37764e+01
5.44055e-03,6.12713e+01
5.48433e-03,5.88409e+01
5.52846e-03,5.64829e+01
5.57295e-03,5.41951e+01
5.61779e-03,5.19755e+01
5.66300e-03,4.98221e+01
5.70857e-03,4.77328e+01
5.75451e-03,4.57058e+01
5.80082e-03,4.37392e+01
5.84749e-03,4.18312e+01
5.89455e-03,3.99801e+01
5.94198e-03,3.81841e+01
5.98980e-03,3.64416e+01
6.03800e-03,3.47511e+01
6.08659e-03,3.31110e+01
6.13557e-03,3.15198e+01
6.18494e-03,2.99759e+01
6.23471e-03,2.84781e+01
6.28488e-03,2.70250e+01
6.33546e-03,2.56152e+01
6.38644e-03,2.42474e+01
6.43783e-03,2.29203e+01
6.48964e-03,2.16329e+01
6.54186e-03,2.03838e+01
6.59450e-03,1.91719e+01
6.64757e-03,1.79962e+01
6.70106e-03,1.68555e+01
6.75499e-03,1.57489e+01
6.80934e-03,1.46752e+01
6.86414e-03,1.36335e+01
6.91938e-03,1.26230e+01
6.97506e-03,1.16425e+01
7.03119e-03,1.06913e+01
7.08777e-03,9.76841e+00
7.14480e-03,8.87307e+00
7.20230e-03,8.00443e+00
7.26025e-03,7.16169e+00
7.31868e-03,6.34408e+00
7.37757e-03,5.55085e+00
7.43694e-03,4.78128e+00
7.49678e-03,4.03467e+00
7.55711e-03,3.31031e+00
7.61792e-03,2.60756e+00
7.67923e-03,1.92577e+00
7.74102e-03,1.26432e+00
7.80331e-03,6.22588e-01
7.86611e-03,0.00000e+00
