m1=1012.428, m2=4.417, gsp=2.471, rhosp=82.195
fGW[Hz],dPh[rad]
1.29356e-02,1.41741e+05
1.33194e-02,1.33589e+05
1.37146e-02,1.25904e+05
1.41215e-02,1.18661e+05
1.45405e-02,1.11833e+05
1.49719e-02,1.05398e+05
1.54161e-02,9.93315e+04
1.58735e-02,9.36135e+04
1.63445e-02,8.82238e+04
1.68295e-02,8.31436e+04
1.73288e-02,7.83550e+04
1.78429e-02,7.38415e+04
1.83724e-02,6.95871e+04
1.89175e-02,6.55771e+04
1.94788e-02,6.17973e+04
2.00567e-02,5.82347e+04
2.06518e-02,5.48767e+04
2.12646e-02,5.17116e+04
2.18955e-02,4.87284e+04
2.25451e-02,4.59165e+04
2.32141e-02,4.32663e+04
2.39028e-02,4.07683e+04
2.46120e-02,3.84139e+04
2.53423e-02,3.61948e+04
2.60942e-02,3.41033e+04
2.68684e-02,3.21320e+04
2.76656e-02,3.02741e+04
2.84865e-02,2.85230e+04
2.93317e-02,2.68726e+04
3.02020e-02,2.53172e+04
3.10981e-02,2.38512e+04
3.20208e-02,2.24696e+04
3.29709e-02,2.11674e+04
3.39491e-02,1.99402e+04
3.49564e-02,1.87837e+04
3.59936e-02,1.76937e+04
3.70615e-02,1.66665e+04
3.81612e-02,1.56985e+04
3.92934e-02,1.47862e+04
4.04593e-02,1.39265e+04
4.16597e-02,1.31163e+04
4.28958e-02,1.23528e+04
4.41685e-02,1.16334e+04
4.54790e-02,1.09554e+04
4.68284e-02,1.03165e+04
4.82179e-02,9.71452e+03
4.96485e-02,9.14726e+03
5.11216e-02,8.61275e+03
5.26384e-02,8.10910e+03
5.42002e-02,7.63454e+03
5.58084e-02,7.18741e+03
5.74642e-02,6.76612e+03
5.91692e-02,6.36919e+03
6.09248e-02,5.99522e+03
6.27325e-02,5.64289e+03
6.45938e-02,5.31095e+03
6.65103e-02,4.99824e+03
6.84837e-02,4.70365e+03
7.05156e-02,4.42613e+03
7.26079e-02,4.16470e+03
7.47622e-02,3.91845e+03
7.69804e-02,3.68649e+03
7.92645e-02,3.46800e+03
8.16163e-02,3.26221e+03
8.40379e-02,3.06838e+03
8.65313e-02,2.88583e+03
8.90987e-02,2.71391e+03
9.17424e-02,2.55201e+03
9.44644e-02,2.39954e+03
9.72672e-02,2.25597e+03
1.00153e-01,2.12078e+03
1.03125e-01,1.99349e+03
1.06185e-01,1.87365e+03
1.09335e-01,1.76081e+03
1.12579e-01,1.65459e+03
1.15919e-01,1.55459e+03
1.19359e-01,1.46047e+03
1.22900e-01,1.37187e+03
1.26547e-01,1.28848e+03
1.30301e-01,1.21000e+03
1.34168e-01,1.13615e+03
1.38148e-01,1.06665e+03
1.42247e-01,1.00126e+03
1.46468e-01,9.39741e+02
1.50814e-01,8.81862e+02
1.55288e-01,8.27416e+02
1.59896e-01,7.76204e+02
1.64640e-01,7.28038e+02
1.69525e-01,6.82741e+02
1.74555e-01,6.40147e+02
1.79734e-01,6.00099e+02
1.85067e-01,5.62448e+02
1.90558e-01,5.27056e+02
1.96212e-01,4.93790e+02
2.02033e-01,4.62528e+02
2.08028e-01,4.33151e+02
2.14200e-01,4.05550e+02
2.20556e-01,3.79621e+02
2.27100e-01,3.55267e+02
2.33838e-01,3.32395e+02
2.40776e-01,3.10918e+02
2.47920e-01,2.90755e+02
2.55276e-01,2.71828e+02
2.62850e-01,2.54065e+02
2.70649e-01,2.37397e+02
2.78679e-01,2.21760e+02
2.86948e-01,2.07092e+02
2.95461e-01,1.93337e+02
3.04228e-01,1.80440e+02
3.13254e-01,1.68351e+02
3.22549e-01,1.57021e+02
3.32119e-01,1.46406e+02
3.41973e-01,1.36462e+02
3.52120e-01,1.27150e+02
3.62567e-01,1.18431e+02
3.73325e-01,1.10270e+02
3.84402e-01,1.02634e+02
3.95807e-01,9.54907e+01
4.07551e-01,8.88103e+01
4.19643e-01,8.25647e+01
4.32094e-01,7.67276e+01
4.44915e-01,7.12740e+01
4.58115e-01,6.61805e+01
4.71708e-01,6.14248e+01
4.85704e-01,5.69863e+01
5.00115e-01,5.28452e+01
5.14953e-01,4.89831e+01
5.30232e-01,4.53826e+01
5.45965e-01,4.20273e+01
5.62164e-01,3.89018e+01
5.78843e-01,3.59916e+01
5.96018e-01,3.32830e+01
6.13702e-01,3.07631e+01
6.31911e-01,2.84200e+01
6.50660e-01,2.62421e+01
6.69965e-01,2.42188e+01
6.89844e-01,2.23400e+01
7.10312e-01,2.05962e+01
7.31387e-01,1.89785e+01
7.53088e-01,1.74787e+01
7.75432e-01,1.60887e+01
7.98440e-01,1.48013e+01
8.22130e-01,1.36095e+01
8.46523e-01,1.25067e+01
8.71639e-01,1.14870e+01
8.97501e-01,1.05445e+01
9.24131e-01,9.67393e+00
9.51550e-01,8.87021e+00
9.79783e-01,8.12863e+00
1.00885e+00,7.44478e+00
1.03879e+00,6.81452e+00
1.06961e+00,6.23399e+00
1.10134e+00,5.69958e+00
1.13402e+00,5.20790e+00
1.16767e+00,4.75580e+00
1.20231e+00,4.34034e+00
1.23799e+00,3.95876e+00
1.27472e+00,3.60850e+00
1.31254e+00,3.28719e+00
1.35148e+00,2.99258e+00
1.39158e+00,2.72263e+00
1.43287e+00,2.47540e+00
1.47539e+00,2.24911e+00
1.51916e+00,2.04210e+00
1.56424e+00,1.85283e+00
1.61065e+00,1.67988e+00
1.65844e+00,1.52192e+00
1.70764e+00,1.37773e+00
1.75831e+00,1.24618e+00
1.81048e+00,1.12622e+00
1.86420e+00,1.01689e+00
1.91951e+00,9.17288e-01
1.97646e+00,8.26600e-01
2.03510e+00,7.44065e-01
2.09549e+00,6.68986e-01
2.15766e+00,6.00720e-01
2.22168e+00,5.38677e-01
2.28760e+00,4.82313e-01
2.35547e+00,4.31132e-01
2.42536e+00,3.84675e-01
2.49732e+00,3.42524e-01
2.57142e+00,3.04294e-01
2.64771e+00,2.69634e-01
2.72627e+00,2.38223e-01
2.80716e+00,2.09766e-01
2.89045e+00,1.83994e-01
2.97621e+00,1.60662e-01
3.06452e+00,1.39546e-01
3.15545e+00,1.20441e-01
3.24907e+00,1.03162e-01
3.34547e+00,8.75375e-02
3.44473e+00,7.34145e-02
3.54694e+00,6.06517e-02
3.65218e+00,4.91213e-02
3.76054e+00,3.87070e-02
3.87212e+00,2.93032e-02
3.98701e+00,2.08137e-02
4.10530e+00,1.31515e-02
4.22711e+00,6.23750e-03
4.35253e+00,0.00000e+00
