m1=16038.604, m2=6.407, gsp=2.186, rhosp=3139.898
fGW[Hz],dPh[rad]
5.63695e-03,7.96081e+03
5.74807e-03,7.58534e+03
5.86138e-03,7.22675e+03
5.97692e-03,6.88433e+03
6.09474e-03,6.55736e+03
6.21488e-03,6.24518e+03
6.33738e-03,5.94714e+03
6.46231e-03,5.66262e+03
6.58969e-03,5.39103e+03
6.71959e-03,5.13181e+03
6.85205e-03,4.88442e+03
6.98711e-03,4.64835e+03
7.12484e-03,4.42309e+03
7.26529e-03,4.20816e+03
7.40850e-03,4.00313e+03
7.55454e-03,3.80755e+03
7.70346e-03,3.62100e+03
7.85531e-03,3.44309e+03
8.01015e-03,3.27344e+03
8.16805e-03,3.11167e+03
8.32906e-03,2.95745e+03
8.49324e-03,2.81044e+03
8.66066e-03,2.67032e+03
8.83138e-03,2.53677e+03
9.00547e-03,2.40952e+03
9.18298e-03,2.28827e+03
9.36400e-03,2.17276e+03
9.54858e-03,2.06274e+03
9.73681e-03,1.95795e+03
9.92874e-03,1.85816e+03
1.01245e-02,1.76314e+03
1.03240e-02,1.67269e+03
1.05275e-02,1.58659e+03
1.07351e-02,1.50465e+03
1.09467e-02,1.42668e+03
1.11624e-02,1.35249e+03
1.13825e-02,1.28192e+03
1.16069e-02,1.21480e+03
1.18357e-02,1.15097e+03
1.20690e-02,1.09028e+03
1.23069e-02,1.03259e+03
1.25495e-02,9.77753e+02
1.27968e-02,9.25643e+02
1.30491e-02,8.76132e+02
1.33063e-02,8.29099e+02
1.35686e-02,7.84428e+02
1.38361e-02,7.42008e+02
1.41088e-02,7.01735e+02
1.43869e-02,6.63506e+02
1.46705e-02,6.27225e+02
1.49597e-02,5.92801e+02
1.52546e-02,5.60143e+02
1.55553e-02,5.29169e+02
1.58619e-02,4.99798e+02
1.61746e-02,4.71952e+02
1.64934e-02,4.45559e+02
1.68185e-02,4.20547e+02
1.71501e-02,3.96850e+02
1.74881e-02,3.74403e+02
1.78329e-02,3.53146e+02
1.81844e-02,3.33020e+02
1.85428e-02,3.13969e+02
1.89084e-02,2.95940e+02
1.92811e-02,2.78882e+02
1.96612e-02,2.62747e+02
2.00487e-02,2.47487e+02
2.04439e-02,2.33061e+02
2.08469e-02,2.19424e+02
2.12578e-02,2.06537e+02
2.16769e-02,1.94362e+02
2.21042e-02,1.82863e+02
2.25399e-02,1.72004e+02
2.29842e-02,1.61752e+02
2.34373e-02,1.52076e+02
2.38993e-02,1.42946e+02
2.43704e-02,1.34333e+02
2.48508e-02,1.26210e+02
2.53406e-02,1.18552e+02
2.58401e-02,1.11332e+02
2.63495e-02,1.04528e+02
2.68689e-02,9.81183e+01
2.73986e-02,9.20806e+01
2.79386e-02,8.63950e+01
2.84894e-02,8.10424e+01
2.90510e-02,7.60046e+01
2.96236e-02,7.12643e+01
3.02075e-02,6.68050e+01
3.08030e-02,6.26111e+01
3.14102e-02,5.86679e+01
3.20294e-02,5.49612e+01
3.26607e-02,5.14778e+01
3.33045e-02,4.82051e+01
3.39610e-02,4.51310e+01
3.46305e-02,4.22442e+01
3.53131e-02,3.95340e+01
3.60092e-02,3.69902e+01
3.67190e-02,3.46031e+01
3.74428e-02,3.23637e+01
3.81809e-02,3.02632e+01
3.89335e-02,2.82936e+01
3.97010e-02,2.64472e+01
4.04836e-02,2.47165e+01
4.12816e-02,2.30948e+01
4.20954e-02,2.15755e+01
4.29251e-02,2.01524e+01
4.37713e-02,1.88199e+01
4.46341e-02,1.75723e+01
4.55139e-02,1.64046e+01
4.64111e-02,1.53118e+01
4.73260e-02,1.42893e+01
4.82589e-02,1.33329e+01
4.92102e-02,1.24384e+01
5.01802e-02,1.16021e+01
5.11693e-02,1.08202e+01
5.21780e-02,1.00894e+01
5.32065e-02,9.40645e+00
5.42553e-02,8.76839e+00
5.53248e-02,8.17235e+00
5.64154e-02,7.61567e+00
5.75275e-02,7.09584e+00
5.86615e-02,6.61052e+00
5.98178e-02,6.15748e+00
6.09969e-02,5.73467e+00
6.21993e-02,5.34011e+00
6.34254e-02,4.97200e+00
6.46756e-02,4.62861e+00
6.59505e-02,4.30833e+00
6.72505e-02,4.00965e+00
6.85762e-02,3.73116e+00
6.99280e-02,3.47154e+00
7.13064e-02,3.22953e+00
7.27120e-02,3.00398e+00
7.41453e-02,2.79380e+00
7.56069e-02,2.59797e+00
7.70972e-02,2.41553e+00
7.86170e-02,2.24559e+00
8.01667e-02,2.08731e+00
8.17469e-02,1.93991e+00
8.33583e-02,1.80266e+00
8.50015e-02,1.67488e+00
8.66771e-02,1.55592e+00
8.83857e-02,1.44520e+00
9.01279e-02,1.34215e+00
9.19045e-02,1.24624e+00
9.37162e-02,1.15701e+00
9.55635e-02,1.07398e+00
9.74473e-02,9.96736e-01
9.93681e-02,9.24882e-01
1.01327e-01,8.58048e-01
1.03324e-01,7.95889e-01
1.05361e-01,7.38083e-01
1.07438e-01,6.84330e-01
1.09556e-01,6.34351e-01
1.11715e-01,5.87883e-01
1.13917e-01,5.44684e-01
1.16163e-01,5.04528e-01
1.18453e-01,4.67202e-01
1.20788e-01,4.32510e-01
1.23169e-01,4.00269e-01
1.25597e-01,3.70307e-01
1.28072e-01,3.42465e-01
1.30597e-01,3.16595e-01
1.33171e-01,2.92559e-01
1.35796e-01,2.70229e-01
1.38473e-01,2.49484e-01
1.41203e-01,2.30213e-01
1.43986e-01,2.12313e-01
1.46825e-01,1.95686e-01
1.49719e-01,1.80244e-01
1.52670e-01,1.65902e-01
1.55679e-01,1.52583e-01
1.58748e-01,1.40215e-01
1.61877e-01,1.28730e-01
1.65068e-01,1.18065e-01
1.68322e-01,1.08164e-01
1.71640e-01,9.89701e-02
1.75024e-01,9.04347e-02
1.78474e-01,8.25106e-02
1.81992e-01,7.51544e-02
1.85579e-01,6.83256e-02
1.89237e-01,6.19867e-02
1.92968e-01,5.61027e-02
1.96771e-01,5.06412e-02
2.00650e-01,4.55720e-02
2.04605e-01,4.08672e-02
2.08639e-01,3.65006e-02
2.12751e-01,3.24482e-02
2.16945e-01,2.86873e-02
2.21222e-01,2.51972e-02
2.25582e-01,2.19584e-02
2.30029e-01,1.89529e-02
2.34563e-01,1.61641e-02
2.39187e-01,1.35763e-02
2.43902e-01,1.11751e-02
2.48710e-01,8.94716e-03
2.53612e-01,6.87999e-03
2.58612e-01,4.96204e-03
2.63709e-01,3.18258e-03
2.68908e-01,1.53165e-03
2.74208e-01,0.00000e+00
