m1=2277.805, m2=22.517, gsp=2.142, rhosp=26.391
fGW[Hz],dPh[rad]
5.73813e-03,6.46415e+01
5.90852e-03,6.05364e+01
6.08398e-03,5.66918e+01
6.26464e-03,5.30911e+01
6.45067e-03,4.97189e+01
6.64222e-03,4.65606e+01
6.83946e-03,4.36028e+01
7.04256e-03,4.08327e+01
7.25169e-03,3.82384e+01
7.46703e-03,3.58087e+01
7.68876e-03,3.35332e+01
7.91708e-03,3.14021e+01
8.15217e-03,2.94063e+01
8.39425e-03,2.75371e+01
8.64352e-03,2.57866e+01
8.90019e-03,2.41472e+01
9.16448e-03,2.26119e+01
9.43662e-03,2.11740e+01
9.71684e-03,1.98274e+01
1.00054e-02,1.85663e+01
1.03025e-02,1.73853e+01
1.06084e-02,1.62792e+01
1.09234e-02,1.52434e+01
1.12478e-02,1.42734e+01
1.15818e-02,1.33649e+01
1.19257e-02,1.25141e+01
1.22799e-02,1.17174e+01
1.26445e-02,1.09713e+01
1.30200e-02,1.02726e+01
1.34066e-02,9.61822e+00
1.38047e-02,9.00544e+00
1.42147e-02,8.43160e+00
1.46368e-02,7.89421e+00
1.50714e-02,7.39097e+00
1.55190e-02,6.91971e+00
1.59798e-02,6.47840e+00
1.64543e-02,6.06514e+00
1.69429e-02,5.67815e+00
1.74460e-02,5.31576e+00
1.79641e-02,4.97641e+00
1.84975e-02,4.65864e+00
1.90468e-02,4.36107e+00
1.96124e-02,4.08243e+00
2.01948e-02,3.82152e+00
2.07945e-02,3.57720e+00
2.14120e-02,3.34843e+00
2.20478e-02,3.13422e+00
2.27025e-02,2.93364e+00
2.33767e-02,2.74583e+00
2.40708e-02,2.56997e+00
2.47856e-02,2.40531e+00
2.55216e-02,2.25114e+00
2.62795e-02,2.10679e+00
2.70599e-02,1.97164e+00
2.78634e-02,1.84510e+00
2.86908e-02,1.72662e+00
2.95428e-02,1.61570e+00
3.04201e-02,1.51185e+00
3.13234e-02,1.41462e+00
3.22535e-02,1.32360e+00
3.32113e-02,1.23838e+00
3.41975e-02,1.15860e+00
3.52130e-02,1.08392e+00
3.62587e-02,1.01401e+00
3.73354e-02,9.48561e-01
3.84440e-02,8.87296e-01
3.95856e-02,8.29948e-01
4.07611e-02,7.76268e-01
4.19715e-02,7.26021e-01
4.32179e-02,6.78989e-01
4.45012e-02,6.34969e-01
4.58227e-02,5.93768e-01
4.71834e-02,5.55206e-01
4.85845e-02,5.19117e-01
5.00272e-02,4.85342e-01
5.15128e-02,4.53734e-01
5.30424e-02,4.24154e-01
5.46175e-02,3.96475e-01
5.62394e-02,3.70574e-01
5.79094e-02,3.46338e-01
5.96290e-02,3.23662e-01
6.13997e-02,3.02445e-01
6.32230e-02,2.82594e-01
6.51004e-02,2.64023e-01
6.70335e-02,2.46650e-01
6.90241e-02,2.30398e-01
7.10738e-02,2.15196e-01
7.31843e-02,2.00977e-01
7.53575e-02,1.87677e-01
7.75952e-02,1.75238e-01
7.98994e-02,1.63606e-01
8.22720e-02,1.52728e-01
8.47151e-02,1.42556e-01
8.72307e-02,1.33045e-01
8.98210e-02,1.24152e-01
9.24883e-02,1.15839e-01
9.52347e-02,1.08067e-01
9.80627e-02,1.00803e-01
1.00975e-01,9.40135e-02
1.03973e-01,8.76679e-02
1.07061e-01,8.17379e-02
1.10240e-01,7.61969e-02
1.13513e-01,7.10198e-02
1.16884e-01,6.61831e-02
1.20355e-01,6.16649e-02
1.23929e-01,5.74448e-02
1.27609e-01,5.35036e-02
1.31398e-01,4.98231e-02
1.35300e-01,4.63866e-02
1.39318e-01,4.31783e-02
1.43455e-01,4.01834e-02
1.47715e-01,3.73881e-02
1.52101e-01,3.47796e-02
1.56618e-01,3.23456e-02
1.61269e-01,3.00748e-02
1.66057e-01,2.79566e-02
1.70989e-01,2.59811e-02
1.76066e-01,2.41390e-02
1.81294e-01,2.24216e-02
1.86678e-01,2.08207e-02
1.92221e-01,1.93287e-02
1.97929e-01,1.79385e-02
2.03807e-01,1.66433e-02
2.09859e-01,1.54370e-02
2.16091e-01,1.43137e-02
2.22507e-01,1.32679e-02
2.29115e-01,1.22945e-02
2.35918e-01,1.13887e-02
2.42924e-01,1.05460e-02
2.50137e-01,9.76226e-03
2.57565e-01,9.03348e-03
2.65214e-01,8.35602e-03
2.73089e-01,7.72645e-03
2.81199e-01,7.14155e-03
2.89549e-01,6.59832e-03
2.98147e-01,6.09395e-03
3.07000e-01,5.62580e-03
3.16117e-01,5.19142e-03
3.25504e-01,4.78852e-03
3.35170e-01,4.41493e-03
3.45122e-01,4.06866e-03
3.55371e-01,3.74782e-03
3.65924e-01,3.45067e-03
3.76790e-01,3.17555e-03
3.87978e-01,2.92094e-03
3.99499e-01,2.68540e-03
4.11363e-01,2.46761e-03
4.23578e-01,2.26630e-03
4.36156e-01,2.08032e-03
4.49108e-01,1.90856e-03
4.62444e-01,1.75003e-03
4.76176e-01,1.60377e-03
4.90316e-01,1.46889e-03
5.04876e-01,1.34457e-03
5.19869e-01,1.23004e-03
5.35306e-01,1.12458e-03
5.51202e-01,1.02752e-03
5.67570e-01,9.38244e-04
5.84424e-01,8.56166e-04
6.01778e-01,7.80748e-04
6.19648e-01,7.11486e-04
6.38049e-01,6.47912e-04
6.56995e-01,5.89592e-04
6.76505e-01,5.36122e-04
6.96594e-01,4.87125e-04
7.17279e-01,4.42252e-04
7.38579e-01,4.01180e-04
7.60511e-01,3.63608e-04
7.83094e-01,3.29257e-04
8.06348e-01,2.97870e-04
8.30292e-01,2.69207e-04
8.54948e-01,2.43046e-04
8.80336e-01,2.19183e-04
9.06477e-01,1.97429e-04
9.33395e-01,1.77608e-04
9.61112e-01,1.59558e-04
9.89652e-01,1.43131e-04
1.01904e+00,1.28190e-04
1.04930e+00,1.14606e-04
1.08046e+00,1.02264e-04
1.11254e+00,9.10564e-05
1.14558e+00,8.08840e-05
1.17960e+00,7.16563e-05
1.21463e+00,6.32899e-05
1.25069e+00,5.57083e-05
1.28783e+00,4.88414e-05
1.32608e+00,4.26248e-05
1.36545e+00,3.69998e-05
1.40600e+00,3.19124e-05
1.44775e+00,2.73135e-05
1.49074e+00,2.31580e-05
1.53501e+00,1.94050e-05
1.58059e+00,1.60169e-05
1.62753e+00,1.29595e-05
1.67586e+00,1.02017e-05
1.72562e+00,7.71520e-06
1.77687e+00,5.47419e-06
1.82963e+00,3.45519e-06
1.88396e+00,1.63692e-06
1.93990e+00,0.00000e+00
