m1=95864.200, m2=5.963, gsp=2.015, rhosp=667.223
fGW[Hz],dPh[rad]
3.70334e-03,1.98479e+02
3.75047e-03,1.89498e+02
3.79820e-03,1.80912e+02
3.84653e-03,1.72704e+02
3.89549e-03,1.64858e+02
3.94506e-03,1.57357e+02
3.99527e-03,1.50189e+02
4.04611e-03,1.43338e+02
4.09760e-03,1.36791e+02
4.14975e-03,1.30535e+02
4.20256e-03,1.24558e+02
4.25604e-03,1.18847e+02
4.31021e-03,1.13391e+02
4.36506e-03,1.08180e+02
4.42061e-03,1.03202e+02
4.47687e-03,9.84472e+01
4.53384e-03,9.39064e+01
4.59154e-03,8.95702e+01
4.64998e-03,8.54295e+01
4.70915e-03,8.14758e+01
4.76908e-03,7.77009e+01
4.82978e-03,7.40971e+01
4.89124e-03,7.06567e+01
4.95349e-03,6.73726e+01
5.01653e-03,6.42379e+01
5.08037e-03,6.12461e+01
5.14502e-03,5.83907e+01
5.21050e-03,5.56657e+01
5.27681e-03,5.30654e+01
5.34397e-03,5.05841e+01
5.41197e-03,4.82166e+01
5.48085e-03,4.59579e+01
5.55060e-03,4.38029e+01
5.62124e-03,4.17472e+01
5.69278e-03,3.97862e+01
5.76522e-03,3.79157e+01
5.83859e-03,3.61315e+01
5.91290e-03,3.44299e+01
5.98815e-03,3.28071e+01
6.06435e-03,3.12595e+01
6.14153e-03,2.97837e+01
6.21969e-03,2.83764e+01
6.29884e-03,2.70346e+01
6.37900e-03,2.57552e+01
6.46018e-03,2.45355e+01
6.54240e-03,2.33726e+01
6.62566e-03,2.22641e+01
6.70998e-03,2.12073e+01
6.79537e-03,2.02000e+01
6.88185e-03,1.92398e+01
6.96943e-03,1.83247e+01
7.05813e-03,1.74525e+01
7.14795e-03,1.66212e+01
7.23892e-03,1.58290e+01
7.33104e-03,1.50741e+01
7.42434e-03,1.43547e+01
7.51882e-03,1.36692e+01
7.61451e-03,1.30160e+01
7.71141e-03,1.23936e+01
7.80955e-03,1.18007e+01
7.90894e-03,1.12357e+01
8.00959e-03,1.06975e+01
8.11152e-03,1.01848e+01
8.21475e-03,9.69637e+00
8.31930e-03,9.23109e+00
8.42517e-03,8.78789e+00
8.53239e-03,8.36573e+00
8.64098e-03,7.96362e+00
8.75094e-03,7.58063e+00
8.86231e-03,7.21586e+00
8.97509e-03,6.86846e+00
9.08931e-03,6.53760e+00
9.20499e-03,6.22252e+00
9.32213e-03,5.92246e+00
9.44077e-03,5.63673e+00
9.56092e-03,5.36464e+00
9.68259e-03,5.10555e+00
9.80581e-03,4.85884e+00
9.93061e-03,4.62394e+00
1.00570e-02,4.40028e+00
1.01850e-02,4.18734e+00
1.03146e-02,3.98459e+00
1.04459e-02,3.79157e+00
1.05788e-02,3.60780e+00
1.07134e-02,3.43285e+00
1.08498e-02,3.26630e+00
1.09878e-02,3.10775e+00
1.11277e-02,2.95682e+00
1.12693e-02,2.81315e+00
1.14127e-02,2.67639e+00
1.15579e-02,2.54621e+00
1.17050e-02,2.42230e+00
1.18540e-02,2.30436e+00
1.20049e-02,2.19210e+00
1.21576e-02,2.08525e+00
1.23124e-02,1.98356e+00
1.24690e-02,1.88677e+00
1.26277e-02,1.79465e+00
1.27884e-02,1.70698e+00
1.29512e-02,1.62355e+00
1.31160e-02,1.54414e+00
1.32829e-02,1.46858e+00
1.34520e-02,1.39667e+00
1.36232e-02,1.32824e+00
1.37965e-02,1.26312e+00
1.39721e-02,1.20115e+00
1.41499e-02,1.14218e+00
1.43300e-02,1.08607e+00
1.45124e-02,1.03268e+00
1.46971e-02,9.81870e-01
1.48841e-02,9.33529e-01
1.50735e-02,8.87531e-01
1.52653e-02,8.43765e-01
1.54596e-02,8.02123e-01
1.56564e-02,7.62502e-01
1.58556e-02,7.24805e-01
1.60574e-02,6.88938e-01
1.62617e-02,6.54814e-01
1.64687e-02,6.22348e-01
1.66783e-02,5.91460e-01
1.68905e-02,5.62074e-01
1.71055e-02,5.34117e-01
1.73232e-02,5.07519e-01
1.75436e-02,4.82216e-01
1.77669e-02,4.58143e-01
1.79930e-02,4.35243e-01
1.82220e-02,4.13457e-01
1.84539e-02,3.92732e-01
1.86887e-02,3.73017e-01
1.89266e-02,3.54262e-01
1.91674e-02,3.36421e-01
1.94114e-02,3.19449e-01
1.96584e-02,3.03305e-01
1.99086e-02,2.87948e-01
2.01619e-02,2.73339e-01
2.04185e-02,2.59444e-01
2.06784e-02,2.46225e-01
2.09415e-02,2.33652e-01
2.12080e-02,2.21693e-01
2.14779e-02,2.10317e-01
2.17513e-02,1.99496e-01
2.20281e-02,1.89204e-01
2.23084e-02,1.79414e-01
2.25923e-02,1.70103e-01
2.28798e-02,1.61246e-01
2.31710e-02,1.52822e-01
2.34659e-02,1.44809e-01
2.37645e-02,1.37188e-01
2.40670e-02,1.29940e-01
2.43733e-02,1.23046e-01
2.46834e-02,1.16489e-01
2.49976e-02,1.10252e-01
2.53157e-02,1.04321e-01
2.56379e-02,9.86792e-02
2.59641e-02,9.33136e-02
2.62946e-02,8.82106e-02
2.66292e-02,8.33572e-02
2.69681e-02,7.87414e-02
2.73113e-02,7.43514e-02
2.76589e-02,7.01762e-02
2.80109e-02,6.62054e-02
2.83673e-02,6.24290e-02
2.87283e-02,5.88375e-02
2.90940e-02,5.54218e-02
2.94642e-02,5.21734e-02
2.98392e-02,4.90841e-02
3.02189e-02,4.61461e-02
3.06035e-02,4.33520e-02
3.09930e-02,4.06947e-02
3.13874e-02,3.81677e-02
3.17868e-02,3.57645e-02
3.21914e-02,3.34790e-02
3.26010e-02,3.13055e-02
3.30159e-02,2.92386e-02
3.34361e-02,2.72729e-02
3.38616e-02,2.54036e-02
3.42925e-02,2.36259e-02
3.47290e-02,2.19354e-02
3.51709e-02,2.03278e-02
3.56185e-02,1.87990e-02
3.60718e-02,1.73451e-02
3.65309e-02,1.59626e-02
3.69958e-02,1.46478e-02
3.74666e-02,1.33976e-02
3.79434e-02,1.22086e-02
3.84263e-02,1.10780e-02
3.89153e-02,1.00029e-02
3.94106e-02,8.98046e-03
3.99121e-02,8.00821e-03
4.04200e-02,7.08366e-03
4.09344e-02,6.20449e-03
4.14554e-02,5.36845e-03
4.19830e-02,4.57344e-03
4.25172e-02,3.81744e-03
4.30583e-02,3.09855e-03
4.36063e-02,2.41494e-03
4.41613e-02,1.76489e-03
4.47233e-02,1.14675e-03
4.52924e-02,5.58945e-04
4.58688e-02,0.00000e+00
