m1=40584.731, m2=15.878, gsp=2.428, rhosp=8370.077
fGW[Hz],dPh[rad]
3.18015e-03,3.82509e+05
3.23704e-03,3.66158e+05
3.29495e-03,3.50459e+05
3.35389e-03,3.35387e+05
3.41389e-03,3.20920e+05
3.47497e-03,3.07035e+05
3.53713e-03,2.93710e+05
3.60041e-03,2.80922e+05
3.66482e-03,2.68653e+05
3.73038e-03,2.56883e+05
3.79712e-03,2.45592e+05
3.86505e-03,2.34763e+05
3.93419e-03,2.24377e+05
4.00457e-03,2.14419e+05
4.07621e-03,2.04871e+05
4.14913e-03,1.95717e+05
4.22336e-03,1.86943e+05
4.29892e-03,1.78535e+05
4.37582e-03,1.70477e+05
4.45410e-03,1.62757e+05
4.53378e-03,1.55361e+05
4.61489e-03,1.48276e+05
4.69745e-03,1.41491e+05
4.78149e-03,1.34994e+05
4.86703e-03,1.28774e+05
4.95409e-03,1.22819e+05
5.04272e-03,1.17120e+05
5.13293e-03,1.11665e+05
5.22476e-03,1.06446e+05
5.31823e-03,1.01454e+05
5.41337e-03,9.66778e+04
5.51021e-03,9.21105e+04
5.60879e-03,8.77431e+04
5.70913e-03,8.35678e+04
5.81126e-03,7.95767e+04
5.91522e-03,7.57624e+04
6.02104e-03,7.21177e+04
6.12876e-03,6.86357e+04
6.23840e-03,6.53097e+04
6.35000e-03,6.21334e+04
6.46360e-03,5.91004e+04
6.57923e-03,5.62050e+04
6.69693e-03,5.34414e+04
6.81674e-03,5.08040e+04
6.93869e-03,4.82877e+04
7.06282e-03,4.58873e+04
7.18917e-03,4.35979e+04
7.31778e-03,4.14149e+04
7.44869e-03,3.93337e+04
7.58195e-03,3.73499e+04
7.71758e-03,3.54594e+04
7.85565e-03,3.36581e+04
7.99618e-03,3.19422e+04
8.13923e-03,3.03080e+04
8.28484e-03,2.87519e+04
8.43305e-03,2.72705e+04
8.58392e-03,2.58605e+04
8.73748e-03,2.45187e+04
8.89379e-03,2.32421e+04
9.05289e-03,2.20278e+04
9.21485e-03,2.08730e+04
9.37970e-03,1.97750e+04
9.54750e-03,1.87312e+04
9.71830e-03,1.77392e+04
9.89215e-03,1.67966e+04
1.00691e-02,1.59011e+04
1.02493e-02,1.50506e+04
1.04326e-02,1.42429e+04
1.06192e-02,1.34761e+04
1.08092e-02,1.27483e+04
1.10026e-02,1.20576e+04
1.11994e-02,1.14023e+04
1.13998e-02,1.07806e+04
1.16037e-02,1.01911e+04
1.18113e-02,9.63203e+03
1.20226e-02,9.10207e+03
1.22377e-02,8.59978e+03
1.24566e-02,8.12381e+03
1.26795e-02,7.67287e+03
1.29063e-02,7.24574e+03
1.31372e-02,6.84123e+03
1.33722e-02,6.45824e+03
1.36114e-02,6.09568e+03
1.38549e-02,5.75253e+03
1.41028e-02,5.42783e+03
1.43551e-02,5.12064e+03
1.46119e-02,4.83007e+03
1.48733e-02,4.55527e+03
1.51394e-02,4.29545e+03
1.54102e-02,4.04982e+03
1.56859e-02,3.81767e+03
1.59665e-02,3.59828e+03
1.62521e-02,3.39100e+03
1.65429e-02,3.19520e+03
1.68388e-02,3.01027e+03
1.71400e-02,2.83564e+03
1.74467e-02,2.67076e+03
1.77588e-02,2.51512e+03
1.80765e-02,2.36823e+03
1.83999e-02,2.22961e+03
1.87290e-02,2.09883e+03
1.90641e-02,1.97545e+03
1.94051e-02,1.85909e+03
1.97523e-02,1.74935e+03
2.01057e-02,1.64589e+03
2.04653e-02,1.54835e+03
2.08314e-02,1.45640e+03
2.12041e-02,1.36975e+03
2.15834e-02,1.28810e+03
2.19696e-02,1.21117e+03
2.23626e-02,1.13870e+03
2.27627e-02,1.07044e+03
2.31699e-02,1.00615e+03
2.35844e-02,9.45619e+02
2.40063e-02,8.88625e+02
2.44357e-02,8.34971e+02
2.48729e-02,7.84468e+02
2.53179e-02,7.36938e+02
2.57708e-02,6.92210e+02
2.62318e-02,6.50125e+02
2.67011e-02,6.10531e+02
2.71788e-02,5.73285e+02
2.76650e-02,5.38253e+02
2.81599e-02,5.05305e+02
2.86637e-02,4.74322e+02
2.91764e-02,4.45189e+02
2.96984e-02,4.17800e+02
3.02297e-02,3.92051e+02
3.07705e-02,3.67848e+02
3.13210e-02,3.45100e+02
3.18813e-02,3.23722e+02
3.24516e-02,3.03633e+02
3.30322e-02,2.84757e+02
3.36231e-02,2.67022e+02
3.42246e-02,2.50361e+02
3.48369e-02,2.34710e+02
3.54601e-02,2.20010e+02
3.60945e-02,2.06203e+02
3.67402e-02,1.93237e+02
3.73974e-02,1.81061e+02
3.80665e-02,1.69628e+02
3.87475e-02,1.58894e+02
3.94406e-02,1.48816e+02
4.01462e-02,1.39355e+02
4.08644e-02,1.30474e+02
4.15955e-02,1.22138e+02
4.23396e-02,1.14314e+02
4.30970e-02,1.06971e+02
4.38680e-02,1.00080e+02
4.46528e-02,9.36136e+01
4.54516e-02,8.75458e+01
4.62647e-02,8.18526e+01
4.70924e-02,7.65110e+01
4.79349e-02,7.14997e+01
4.87924e-02,6.67985e+01
4.96653e-02,6.23884e+01
5.05538e-02,5.82517e+01
5.14582e-02,5.43715e+01
5.23787e-02,5.07322e+01
5.33158e-02,4.73190e+01
5.42696e-02,4.41179e+01
5.52404e-02,4.11160e+01
5.62286e-02,3.83009e+01
5.72346e-02,3.56612e+01
5.82585e-02,3.31861e+01
5.93007e-02,3.08652e+01
6.03615e-02,2.86893e+01
6.14414e-02,2.66492e+01
6.25406e-02,2.47365e+01
6.36594e-02,2.29435e+01
6.47982e-02,2.12626e+01
6.59574e-02,1.96869e+01
6.71374e-02,1.82098e+01
6.83385e-02,1.68253e+01
6.95610e-02,1.55275e+01
7.08054e-02,1.43112e+01
7.20721e-02,1.31711e+01
7.33614e-02,1.21026e+01
7.46739e-02,1.11012e+01
7.60097e-02,1.01627e+01
7.73695e-02,9.28315e+00
7.87536e-02,8.45892e+00
8.01625e-02,7.68652e+00
8.15966e-02,6.96272e+00
8.30563e-02,6.28448e+00
8.45422e-02,5.64894e+00
8.60546e-02,5.05343e+00
8.75941e-02,4.49545e+00
8.91611e-02,3.97263e+00
9.07561e-02,3.48277e+00
9.23797e-02,3.02381e+00
9.40324e-02,2.59380e+00
9.57146e-02,2.19093e+00
9.74269e-02,1.81348e+00
9.91698e-02,1.45987e+00
1.00944e-01,1.12859e+00
1.02750e-01,8.18244e-01
1.04588e-01,5.27506e-01
1.06459e-01,2.55143e-01
1.08363e-01,0.00000e+00
