m1=26653.015, m2=10.124, gsp=2.447, rhosp=186.016
fGW[Hz],dPh[rad]
4.18206e-03,3.29059e+05
4.26001e-03,3.14780e+05
4.33942e-03,3.01082e+05
4.42030e-03,2.87941e+05
4.50270e-03,2.75337e+05
4.58663e-03,2.63248e+05
4.67212e-03,2.51655e+05
4.75921e-03,2.40539e+05
4.84792e-03,2.29881e+05
4.93828e-03,2.19663e+05
5.03033e-03,2.09869e+05
5.12410e-03,2.00481e+05
5.21961e-03,1.91485e+05
5.31690e-03,1.82864e+05
5.41601e-03,1.74604e+05
5.51696e-03,1.66692e+05
5.61979e-03,1.59112e+05
5.72455e-03,1.51853e+05
5.83125e-03,1.44902e+05
5.93994e-03,1.38246e+05
6.05066e-03,1.31874e+05
6.16345e-03,1.25774e+05
6.27833e-03,1.19936e+05
6.39536e-03,1.14350e+05
6.51457e-03,1.09005e+05
6.63600e-03,1.03891e+05
6.75969e-03,9.90000e+04
6.88569e-03,9.43222e+04
7.01404e-03,8.98493e+04
7.14478e-03,8.55729e+04
7.27795e-03,8.14850e+04
7.41361e-03,7.75781e+04
7.55180e-03,7.38446e+04
7.69257e-03,7.02777e+04
7.83595e-03,6.68703e+04
7.98201e-03,6.36160e+04
8.13080e-03,6.05083e+04
8.28235e-03,5.75414e+04
8.43674e-03,5.47092e+04
8.59399e-03,5.20062e+04
8.75418e-03,4.94270e+04
8.91736e-03,4.69664e+04
9.08358e-03,4.46194e+04
9.25289e-03,4.23812e+04
9.42537e-03,4.02471e+04
9.60105e-03,3.82127e+04
9.78001e-03,3.62738e+04
9.96231e-03,3.44262e+04
1.01480e-02,3.26661e+04
1.03372e-02,3.09896e+04
1.05298e-02,2.93931e+04
1.07261e-02,2.78730e+04
1.09261e-02,2.64262e+04
1.11297e-02,2.50492e+04
1.13372e-02,2.37391e+04
1.15485e-02,2.24928e+04
1.17638e-02,2.13075e+04
1.19830e-02,2.01805e+04
1.22064e-02,1.91092e+04
1.24339e-02,1.80909e+04
1.26657e-02,1.71234e+04
1.29018e-02,1.62043e+04
1.31422e-02,1.53313e+04
1.33872e-02,1.45024e+04
1.36368e-02,1.37154e+04
1.38909e-02,1.29686e+04
1.41499e-02,1.22598e+04
1.44136e-02,1.15875e+04
1.46823e-02,1.09498e+04
1.49560e-02,1.03451e+04
1.52347e-02,9.77185e+03
1.55187e-02,9.22851e+03
1.58080e-02,8.71365e+03
1.61026e-02,8.22588e+03
1.64028e-02,7.76390e+03
1.67085e-02,7.32643e+03
1.70200e-02,6.91227e+03
1.73372e-02,6.52026e+03
1.76604e-02,6.14932e+03
1.79896e-02,5.79837e+03
1.83249e-02,5.46643e+03
1.86665e-02,5.15254e+03
1.90144e-02,4.85577e+03
1.93688e-02,4.57525e+03
1.97298e-02,4.31016e+03
2.00976e-02,4.05970e+03
2.04722e-02,3.82312e+03
2.08538e-02,3.59969e+03
2.12425e-02,3.38873e+03
2.16385e-02,3.18959e+03
2.20418e-02,3.00163e+03
2.24527e-02,2.82428e+03
2.28712e-02,2.65697e+03
2.32975e-02,2.49916e+03
2.37318e-02,2.35034e+03
2.41741e-02,2.21002e+03
2.46247e-02,2.07776e+03
2.50837e-02,1.95311e+03
2.55513e-02,1.83565e+03
2.60275e-02,1.72500e+03
2.65127e-02,1.62077e+03
2.70069e-02,1.52261e+03
2.75103e-02,1.43019e+03
2.80231e-02,1.34319e+03
2.85454e-02,1.26130e+03
2.90775e-02,1.18423e+03
2.96195e-02,1.11172e+03
3.01716e-02,1.04351e+03
3.07340e-02,9.79349e+02
3.13069e-02,9.19011e+02
3.18904e-02,8.62278e+02
3.24848e-02,8.08941e+02
3.30904e-02,7.58806e+02
3.37072e-02,7.11688e+02
3.43354e-02,6.67411e+02
3.49755e-02,6.25812e+02
3.56274e-02,5.86733e+02
3.62915e-02,5.50027e+02
3.69679e-02,5.15555e+02
3.76570e-02,4.83185e+02
3.83589e-02,4.52794e+02
3.90739e-02,4.24264e+02
3.98023e-02,3.97485e+02
4.05442e-02,3.72352e+02
4.12999e-02,3.48767e+02
4.20697e-02,3.26638e+02
4.28539e-02,3.05877e+02
4.36527e-02,2.86402e+02
4.44664e-02,2.68135e+02
4.52952e-02,2.51004e+02
4.61395e-02,2.34939e+02
4.69995e-02,2.19876e+02
4.78756e-02,2.05754e+02
4.87680e-02,1.92515e+02
4.96770e-02,1.80105e+02
5.06030e-02,1.68474e+02
5.15462e-02,1.57574e+02
5.25070e-02,1.47359e+02
5.34857e-02,1.37788e+02
5.44827e-02,1.28821e+02
5.54982e-02,1.20420e+02
5.65327e-02,1.12551e+02
5.75865e-02,1.05180e+02
5.86599e-02,9.82758e+01
5.97533e-02,9.18101e+01
6.08671e-02,8.57553e+01
6.20016e-02,8.00857e+01
6.31573e-02,7.47771e+01
6.43346e-02,6.98070e+01
6.55337e-02,6.51540e+01
6.67553e-02,6.07982e+01
6.79996e-02,5.67210e+01
6.92671e-02,5.29047e+01
7.05582e-02,4.93329e+01
7.18734e-02,4.59901e+01
7.32131e-02,4.28618e+01
7.45778e-02,3.99344e+01
7.59679e-02,3.71952e+01
7.73839e-02,3.46322e+01
7.88263e-02,3.22342e+01
8.02956e-02,2.99907e+01
8.17923e-02,2.78919e+01
8.33169e-02,2.59285e+01
8.48699e-02,2.40919e+01
8.64519e-02,2.23739e+01
8.80633e-02,2.07670e+01
8.97048e-02,1.92641e+01
9.13769e-02,1.78584e+01
9.30801e-02,1.65438e+01
9.48151e-02,1.53144e+01
9.65825e-02,1.41648e+01
9.83827e-02,1.30897e+01
1.00217e-01,1.20844e+01
1.02085e-01,1.11445e+01
1.03987e-01,1.02656e+01
1.05926e-01,9.44382e+00
1.07900e-01,8.67553e+00
1.09911e-01,7.95724e+00
1.11960e-01,7.28572e+00
1.14047e-01,6.65794e+00
1.16173e-01,6.07106e+00
1.18338e-01,5.52245e+00
1.20544e-01,5.00962e+00
1.22791e-01,4.53025e+00
1.25080e-01,4.08217e+00
1.27411e-01,3.66335e+00
1.29786e-01,3.27188e+00
1.32205e-01,2.90599e+00
1.34670e-01,2.56401e+00
1.37180e-01,2.24440e+00
1.39737e-01,1.94569e+00
1.42342e-01,1.66652e+00
1.44995e-01,1.40562e+00
1.47697e-01,1.16181e+00
1.50450e-01,9.33952e-01
1.53255e-01,7.21024e-01
1.56111e-01,5.22046e-01
1.59021e-01,3.36108e-01
1.61985e-01,1.62358e-01
1.65005e-01,0.00000e+00
