m1=25661.705, m2=7.694, gsp=2.475, rhosp=131.320
fGW[Hz],dPh[rad]
4.67951e-03,6.24526e+05
4.76495e-03,5.97327e+05
4.85195e-03,5.71229e+05
4.94054e-03,5.46192e+05
5.03075e-03,5.22174e+05
5.12260e-03,4.99137e+05
5.21613e-03,4.77043e+05
5.31137e-03,4.55857e+05
5.40835e-03,4.35544e+05
5.50709e-03,4.16071e+05
5.60764e-03,3.97405e+05
5.71003e-03,3.79514e+05
5.81429e-03,3.62371e+05
5.92045e-03,3.45944e+05
6.02854e-03,3.30207e+05
6.13861e-03,3.15133e+05
6.25070e-03,3.00697e+05
6.36482e-03,2.86872e+05
6.48103e-03,2.73635e+05
6.59937e-03,2.60964e+05
6.71986e-03,2.48836e+05
6.84255e-03,2.37229e+05
6.96749e-03,2.26123e+05
7.09470e-03,2.15498e+05
7.22424e-03,2.05335e+05
7.35614e-03,1.95616e+05
7.49046e-03,1.86322e+05
7.62722e-03,1.77437e+05
7.76648e-03,1.68944e+05
7.90828e-03,1.60827e+05
8.05268e-03,1.53071e+05
8.19970e-03,1.45662e+05
8.34942e-03,1.38584e+05
8.50186e-03,1.31826e+05
8.65709e-03,1.25372e+05
8.81516e-03,1.19212e+05
8.97611e-03,1.13332e+05
9.14000e-03,1.07721e+05
9.30688e-03,1.02367e+05
9.47681e-03,9.72609e+04
9.64984e-03,9.23910e+04
9.82603e-03,8.77476e+04
1.00054e-02,8.33211e+04
1.01881e-02,7.91022e+04
1.03741e-02,7.50819e+04
1.05636e-02,7.12518e+04
1.07564e-02,6.76036e+04
1.09528e-02,6.41295e+04
1.11528e-02,6.08218e+04
1.13564e-02,5.76732e+04
1.15638e-02,5.46767e+04
1.17749e-02,5.18256e+04
1.19899e-02,4.91134e+04
1.22088e-02,4.65340e+04
1.24317e-02,4.40813e+04
1.26587e-02,4.17496e+04
1.28899e-02,3.95336e+04
1.31252e-02,3.74278e+04
1.33648e-02,3.54272e+04
1.36089e-02,3.35271e+04
1.38573e-02,3.17228e+04
1.41104e-02,3.00097e+04
1.43680e-02,2.83838e+04
1.46303e-02,2.68408e+04
1.48974e-02,2.53769e+04
1.51694e-02,2.39883e+04
1.54464e-02,2.26714e+04
1.57284e-02,2.14229e+04
1.60156e-02,2.02394e+04
1.63080e-02,1.91178e+04
1.66058e-02,1.80550e+04
1.69090e-02,1.70482e+04
1.72177e-02,1.60948e+04
1.75321e-02,1.51919e+04
1.78522e-02,1.43372e+04
1.81781e-02,1.35282e+04
1.85101e-02,1.27627e+04
1.88480e-02,1.20384e+04
1.91921e-02,1.13533e+04
1.95426e-02,1.07055e+04
1.98994e-02,1.00929e+04
2.02627e-02,9.51383e+03
2.06327e-02,8.96655e+03
2.10094e-02,8.44940e+03
2.13930e-02,7.96082e+03
2.17836e-02,7.49933e+03
2.21813e-02,7.06352e+03
2.25863e-02,6.65202e+03
2.29987e-02,6.26356e+03
2.34186e-02,5.89691e+03
2.38462e-02,5.55092e+03
2.42816e-02,5.22448e+03
2.47250e-02,4.91654e+03
2.51764e-02,4.62611e+03
2.56361e-02,4.35223e+03
2.61041e-02,4.09401e+03
2.65808e-02,3.85060e+03
2.70661e-02,3.62118e+03
2.75603e-02,3.40499e+03
2.80635e-02,3.20130e+03
2.85759e-02,3.00941e+03
2.90976e-02,2.82867e+03
2.96289e-02,2.65846e+03
3.01699e-02,2.49819e+03
3.07207e-02,2.34730e+03
3.12816e-02,2.20527e+03
3.18528e-02,2.07159e+03
3.24344e-02,1.94579e+03
3.30266e-02,1.82742e+03
3.36296e-02,1.71606e+03
3.42436e-02,1.61131e+03
3.48688e-02,1.51279e+03
3.55055e-02,1.42014e+03
3.61537e-02,1.33302e+03
3.68138e-02,1.25111e+03
3.74860e-02,1.17412e+03
3.81704e-02,1.10174e+03
3.88674e-02,1.03372e+03
3.95770e-02,9.69804e+02
4.02996e-02,9.09744e+02
4.10354e-02,8.53317e+02
4.17847e-02,8.00308e+02
4.25476e-02,7.50517e+02
4.33245e-02,7.03752e+02
4.41155e-02,6.59834e+02
4.49210e-02,6.18593e+02
4.57411e-02,5.79871e+02
4.65763e-02,5.43517e+02
4.74267e-02,5.09390e+02
4.82926e-02,4.77355e+02
4.91744e-02,4.47287e+02
5.00722e-02,4.19068e+02
5.09865e-02,3.92587e+02
5.19174e-02,3.67738e+02
5.28653e-02,3.44422e+02
5.38306e-02,3.22548e+02
5.48134e-02,3.02027e+02
5.58142e-02,2.82777e+02
5.68333e-02,2.64720e+02
5.78710e-02,2.47785e+02
5.89276e-02,2.31901e+02
6.00035e-02,2.17006e+02
6.10991e-02,2.03038e+02
6.22147e-02,1.89941e+02
6.33506e-02,1.77661e+02
6.45073e-02,1.66147e+02
6.56851e-02,1.55353e+02
6.68844e-02,1.45234e+02
6.81056e-02,1.35749e+02
6.93491e-02,1.26858e+02
7.06153e-02,1.18525e+02
7.19046e-02,1.10714e+02
7.32175e-02,1.03395e+02
7.45543e-02,9.65348e+01
7.59155e-02,9.01064e+01
7.73016e-02,8.40827e+01
7.87130e-02,7.84383e+01
8.01502e-02,7.31497e+01
8.16136e-02,6.81946e+01
8.31038e-02,6.35522e+01
8.46211e-02,5.92030e+01
8.61661e-02,5.51286e+01
8.77394e-02,5.13117e+01
8.93414e-02,4.77363e+01
9.09726e-02,4.43871e+01
9.26336e-02,4.12501e+01
9.43249e-02,3.83118e+01
9.60472e-02,3.55597e+01
9.78008e-02,3.29822e+01
9.95865e-02,3.05682e+01
1.01405e-01,2.83075e+01
1.03256e-01,2.61903e+01
1.05142e-01,2.42076e+01
1.07061e-01,2.23510e+01
1.09016e-01,2.06124e+01
1.11007e-01,1.89844e+01
1.13033e-01,1.74600e+01
1.15097e-01,1.60327e+01
1.17199e-01,1.46963e+01
1.19338e-01,1.34450e+01
1.21517e-01,1.22734e+01
1.23736e-01,1.11765e+01
1.25995e-01,1.01496e+01
1.28296e-01,9.18823e+00
1.30638e-01,8.28817e+00
1.33023e-01,7.44557e+00
1.35452e-01,6.65677e+00
1.37925e-01,5.91834e+00
1.40444e-01,5.22710e+00
1.43008e-01,4.58002e+00
1.45619e-01,3.97431e+00
1.48278e-01,3.40732e+00
1.50985e-01,2.87659e+00
1.53742e-01,2.37981e+00
1.56549e-01,1.91481e+00
1.59407e-01,1.47958e+00
1.62318e-01,1.07220e+00
1.65281e-01,6.90902e-01
1.68299e-01,3.34022e-01
1.71372e-01,0.00000e+00
