m1=18708.613, m2=15.293, gsp=2.238, rhosp=1992.184
fGW[Hz],dPh[rad]
3.91434e-03,8.68081e+03
3.99574e-03,8.27604e+03
4.07882e-03,7.88955e+03
4.16363e-03,7.52054e+03
4.25021e-03,7.16823e+03
4.33859e-03,6.83188e+03
4.42880e-03,6.51078e+03
4.52089e-03,6.20426e+03
4.61490e-03,5.91166e+03
4.71086e-03,5.63238e+03
4.80881e-03,5.36581e+03
4.90880e-03,5.11140e+03
5.01087e-03,4.86859e+03
5.11507e-03,4.63688e+03
5.22143e-03,4.41578e+03
5.33000e-03,4.20480e+03
5.44083e-03,4.00350e+03
5.55396e-03,3.81145e+03
5.66945e-03,3.62822e+03
5.78734e-03,3.45344e+03
5.90767e-03,3.28672e+03
6.03052e-03,3.12770e+03
6.15591e-03,2.97603e+03
6.28391e-03,2.83139e+03
6.41458e-03,2.69346e+03
6.54796e-03,2.56194e+03
6.68411e-03,2.43655e+03
6.82310e-03,2.31700e+03
6.96497e-03,2.20304e+03
7.10980e-03,2.09441e+03
7.25764e-03,1.99087e+03
7.40855e-03,1.89220e+03
7.56260e-03,1.79816e+03
7.71985e-03,1.70857e+03
7.88037e-03,1.62320e+03
8.04423e-03,1.54188e+03
8.21150e-03,1.46441e+03
8.38225e-03,1.39063e+03
8.55654e-03,1.32036e+03
8.73446e-03,1.25345e+03
8.91608e-03,1.18974e+03
9.10148e-03,1.12909e+03
9.29073e-03,1.07135e+03
9.48392e-03,1.01640e+03
9.68112e-03,9.64105e+02
9.88242e-03,9.14342e+02
1.00879e-02,8.66996e+02
1.02977e-02,8.21957e+02
1.05118e-02,7.79116e+02
1.07304e-02,7.38374e+02
1.09535e-02,6.99633e+02
1.11813e-02,6.62800e+02
1.14138e-02,6.27786e+02
1.16511e-02,5.94506e+02
1.18934e-02,5.62881e+02
1.21407e-02,5.32832e+02
1.23931e-02,5.04285e+02
1.26508e-02,4.77171e+02
1.29139e-02,4.51421e+02
1.31824e-02,4.26971e+02
1.34565e-02,4.03760e+02
1.37363e-02,3.81729e+02
1.40219e-02,3.60822e+02
1.43135e-02,3.40985e+02
1.46111e-02,3.22168e+02
1.49149e-02,3.04320e+02
1.52251e-02,2.87397e+02
1.55416e-02,2.71352e+02
1.58648e-02,2.56144e+02
1.61947e-02,2.41732e+02
1.65314e-02,2.28078e+02
1.68752e-02,2.15143e+02
1.72261e-02,2.02894e+02
1.75843e-02,1.91296e+02
1.79499e-02,1.80318e+02
1.83231e-02,1.69928e+02
1.87041e-02,1.60097e+02
1.90931e-02,1.50797e+02
1.94901e-02,1.42003e+02
1.98953e-02,1.33688e+02
2.03090e-02,1.25828e+02
2.07313e-02,1.18400e+02
2.11624e-02,1.11383e+02
2.16024e-02,1.04755e+02
2.20516e-02,9.84956e+01
2.25102e-02,9.25869e+01
2.29782e-02,8.70102e+01
2.34560e-02,8.17483e+01
2.39437e-02,7.67849e+01
2.44416e-02,7.21042e+01
2.49498e-02,6.76912e+01
2.54686e-02,6.35320e+01
2.59982e-02,5.96128e+01
2.65388e-02,5.59210e+01
2.70906e-02,5.24442e+01
2.76540e-02,4.91709e+01
2.82290e-02,4.60900e+01
2.88160e-02,4.31910e+01
2.94151e-02,4.04640e+01
3.00268e-02,3.78995e+01
3.06511e-02,3.54885e+01
3.12885e-02,3.32224e+01
3.19391e-02,3.10931e+01
3.26032e-02,2.90930e+01
3.32811e-02,2.72147e+01
3.39732e-02,2.54514e+01
3.46796e-02,2.37964e+01
3.54007e-02,2.22435e+01
3.61368e-02,2.07869e+01
3.68882e-02,1.94209e+01
3.76552e-02,1.81404e+01
3.84382e-02,1.69402e+01
3.92375e-02,1.58156e+01
4.00534e-02,1.47623e+01
4.08862e-02,1.37758e+01
4.17364e-02,1.28523e+01
4.26042e-02,1.19880e+01
4.34901e-02,1.11792e+01
4.43944e-02,1.04226e+01
4.53175e-02,9.71508e+00
4.62598e-02,9.05355e+00
4.72217e-02,8.43522e+00
4.82037e-02,7.85740e+00
4.92060e-02,7.31758e+00
5.02291e-02,6.81339e+00
5.12736e-02,6.34258e+00
5.23397e-02,5.90307e+00
5.34281e-02,5.49286e+00
5.45390e-02,5.11009e+00
5.56731e-02,4.75302e+00
5.68307e-02,4.41999e+00
5.80124e-02,4.10945e+00
5.92187e-02,3.81996e+00
6.04500e-02,3.55014e+00
6.17070e-02,3.29872e+00
6.29901e-02,3.06448e+00
6.42999e-02,2.84630e+00
6.56369e-02,2.64313e+00
6.70017e-02,2.45396e+00
6.83949e-02,2.27787e+00
6.98171e-02,2.11398e+00
7.12688e-02,1.96148e+00
7.27508e-02,1.81961e+00
7.42635e-02,1.68764e+00
7.58077e-02,1.56491e+00
7.73840e-02,1.45079e+00
7.89931e-02,1.34470e+00
8.06356e-02,1.24609e+00
8.23123e-02,1.15444e+00
8.40239e-02,1.06928e+00
8.57710e-02,9.90160e-01
8.75545e-02,9.16664e-01
8.93750e-02,8.48403e-01
9.12335e-02,7.85013e-01
9.31305e-02,7.26154e-01
9.50670e-02,6.71511e-01
9.70438e-02,6.20789e-01
9.90617e-02,5.73712e-01
1.01121e-01,5.30025e-01
1.03224e-01,4.89488e-01
1.05371e-01,4.51879e-01
1.07562e-01,4.16991e-01
1.09798e-01,3.84630e-01
1.12081e-01,3.54618e-01
1.14412e-01,3.26786e-01
1.16791e-01,3.00979e-01
1.19219e-01,2.77053e-01
1.21698e-01,2.54872e-01
1.24229e-01,2.34311e-01
1.26812e-01,2.15254e-01
1.29449e-01,1.97593e-01
1.32140e-01,1.81227e-01
1.34888e-01,1.66061e-01
1.37693e-01,1.52010e-01
1.40556e-01,1.38993e-01
1.43479e-01,1.26934e-01
1.46462e-01,1.15764e-01
1.49508e-01,1.05418e-01
1.52616e-01,9.58360e-02
1.55790e-01,8.69623e-02
1.59029e-01,7.87451e-02
1.62336e-01,7.11364e-02
1.65711e-01,6.40915e-02
1.69157e-01,5.75692e-02
1.72675e-01,5.15309e-02
1.76265e-01,4.59412e-02
1.79930e-01,4.07671e-02
1.83672e-01,3.59778e-02
1.87491e-01,3.15451e-02
1.91389e-01,2.74426e-02
1.95369e-01,2.36459e-02
1.99431e-01,2.01324e-02
2.03578e-01,1.68812e-02
2.07811e-01,1.38727e-02
2.12132e-01,1.10891e-02
2.16543e-01,8.51353e-03
2.21046e-01,6.13065e-03
2.25642e-01,3.92612e-03
2.30334e-01,1.88666e-03
2.35124e-01,0.00000e+00
