m1=47893.047, m2=59.232, gsp=2.319, rhosp=23.799
fGW[Hz],dPh[rad]
1.86252e-03,5.77279e+03
1.89937e-03,5.52167e+03
1.93694e-03,5.28110e+03
1.97526e-03,5.05066e+03
2.01434e-03,4.82993e+03
2.05419e-03,4.61850e+03
2.09483e-03,4.41599e+03
2.13627e-03,4.22204e+03
2.17853e-03,4.03629e+03
2.22163e-03,3.85840e+03
2.26558e-03,3.68805e+03
2.31040e-03,3.52493e+03
2.35611e-03,3.36874e+03
2.40272e-03,3.21919e+03
2.45025e-03,3.07600e+03
2.49872e-03,2.93892e+03
2.54816e-03,2.80769e+03
2.59857e-03,2.68207e+03
2.64997e-03,2.56182e+03
2.70240e-03,2.44673e+03
2.75586e-03,2.33657e+03
2.81038e-03,2.23115e+03
2.86598e-03,2.13026e+03
2.92268e-03,2.03373e+03
2.98050e-03,1.94135e+03
3.03946e-03,1.85298e+03
3.09959e-03,1.76842e+03
3.16091e-03,1.68754e+03
3.22344e-03,1.61017e+03
3.28721e-03,1.53616e+03
3.35224e-03,1.46539e+03
3.41856e-03,1.39770e+03
3.48619e-03,1.33297e+03
3.55516e-03,1.27108e+03
3.62549e-03,1.21191e+03
3.69721e-03,1.15535e+03
3.77036e-03,1.10127e+03
3.84495e-03,1.04959e+03
3.92101e-03,1.00019e+03
3.99858e-03,9.52991e+02
4.07768e-03,9.07886e+02
4.15835e-03,8.64792e+02
4.24062e-03,8.23622e+02
4.32451e-03,7.84296e+02
4.41006e-03,7.46735e+02
4.49731e-03,7.10864e+02
4.58628e-03,6.76610e+02
4.67701e-03,6.43906e+02
4.76954e-03,6.12684e+02
4.86389e-03,5.82880e+02
4.96012e-03,5.54436e+02
5.05824e-03,5.27290e+02
5.15831e-03,5.01389e+02
5.26036e-03,4.76678e+02
5.36442e-03,4.53106e+02
5.47055e-03,4.30623e+02
5.57877e-03,4.09183e+02
5.68914e-03,3.88740e+02
5.80169e-03,3.69250e+02
5.91646e-03,3.50672e+02
6.03351e-03,3.32966e+02
6.15287e-03,3.16094e+02
6.27459e-03,3.00019e+02
6.39872e-03,2.84706e+02
6.52531e-03,2.70122e+02
6.65440e-03,2.56233e+02
6.78605e-03,2.43010e+02
6.92030e-03,2.30422e+02
7.05720e-03,2.18442e+02
7.19681e-03,2.07041e+02
7.33919e-03,1.96195e+02
7.48438e-03,1.85877e+02
7.63245e-03,1.76065e+02
7.78344e-03,1.66735e+02
7.93742e-03,1.57865e+02
8.09445e-03,1.49435e+02
8.25458e-03,1.41423e+02
8.41788e-03,1.33812e+02
8.58441e-03,1.26582e+02
8.75424e-03,1.19716e+02
8.92743e-03,1.13196e+02
9.10404e-03,1.07008e+02
9.28414e-03,1.01135e+02
9.46781e-03,9.55622e+01
9.65512e-03,9.02759e+01
9.84613e-03,8.52622e+01
1.00409e-02,8.05084e+01
1.02396e-02,7.60020e+01
1.04421e-02,7.17310e+01
1.06487e-02,6.76842e+01
1.08594e-02,6.38508e+01
1.10742e-02,6.02203e+01
1.12933e-02,5.67829e+01
1.15167e-02,5.35291e+01
1.17445e-02,5.04498e+01
1.19769e-02,4.75364e+01
1.22138e-02,4.47808e+01
1.24554e-02,4.21749e+01
1.27019e-02,3.97112e+01
1.29531e-02,3.73827e+01
1.32094e-02,3.51824e+01
1.34707e-02,3.31039e+01
1.37372e-02,3.11408e+01
1.40090e-02,2.92873e+01
1.42861e-02,2.75377e+01
1.45687e-02,2.58865e+01
1.48569e-02,2.43287e+01
1.51509e-02,2.28594e+01
1.54506e-02,2.14739e+01
1.57563e-02,2.01677e+01
1.60680e-02,1.89366e+01
1.63858e-02,1.77766e+01
1.67100e-02,1.66839e+01
1.70406e-02,1.56549e+01
1.73777e-02,1.46860e+01
1.77215e-02,1.37740e+01
1.80721e-02,1.29157e+01
1.84296e-02,1.21083e+01
1.87942e-02,1.13488e+01
1.91660e-02,1.06347e+01
1.95451e-02,9.96328e+00
1.99318e-02,9.33226e+00
2.03261e-02,8.73932e+00
2.07282e-02,8.18230e+00
2.11383e-02,7.65915e+00
2.15565e-02,7.16792e+00
2.19829e-02,6.70678e+00
2.24178e-02,6.27398e+00
2.28613e-02,5.86788e+00
2.33136e-02,5.48691e+00
2.37748e-02,5.12960e+00
2.42452e-02,4.79455e+00
2.47248e-02,4.48046e+00
2.52139e-02,4.18606e+00
2.57127e-02,3.91018e+00
2.62214e-02,3.65172e+00
2.67402e-02,3.40963e+00
2.72692e-02,3.18291e+00
2.78086e-02,2.97063e+00
2.83588e-02,2.77191e+00
2.89198e-02,2.58592e+00
2.94919e-02,2.41188e+00
3.00754e-02,2.24906e+00
3.06704e-02,2.09675e+00
3.12771e-02,1.95431e+00
3.18959e-02,1.82112e+00
3.25269e-02,1.69660e+00
3.31703e-02,1.58020e+00
3.38266e-02,1.47142e+00
3.44958e-02,1.36978e+00
3.51782e-02,1.27482e+00
3.58741e-02,1.18611e+00
3.65838e-02,1.10326e+00
3.73076e-02,1.02590e+00
3.80456e-02,9.53665e-01
3.87983e-02,8.86231e-01
3.95658e-02,8.23288e-01
4.03486e-02,7.64544e-01
4.11468e-02,7.09728e-01
4.19608e-02,6.58584e-01
4.27909e-02,6.10871e-01
4.36375e-02,5.66366e-01
4.45007e-02,5.24859e-01
4.53811e-02,4.86151e-01
4.62789e-02,4.50059e-01
4.71944e-02,4.16409e-01
4.81281e-02,3.85041e-01
4.90802e-02,3.55803e-01
5.00512e-02,3.28552e-01
5.10413e-02,3.03158e-01
5.20511e-02,2.79495e-01
5.30808e-02,2.57447e-01
5.41309e-02,2.36908e-01
5.52018e-02,2.17775e-01
5.62939e-02,1.99953e-01
5.74075e-02,1.83355e-01
5.85432e-02,1.67898e-01
5.97014e-02,1.53504e-01
6.08825e-02,1.40102e-01
6.20869e-02,1.27624e-01
6.33152e-02,1.16008e-01
6.45678e-02,1.05194e-01
6.58451e-02,9.51289e-02
6.71477e-02,8.57605e-02
6.84761e-02,7.70415e-02
6.98308e-02,6.89275e-02
7.12123e-02,6.13769e-02
7.26211e-02,5.43512e-02
7.40578e-02,4.78143e-02
7.55228e-02,4.17325e-02
7.70169e-02,3.60745e-02
7.85406e-02,3.08111e-02
8.00943e-02,2.59150e-02
8.16788e-02,2.13609e-02
8.32947e-02,1.71251e-02
8.49425e-02,1.31856e-02
8.66230e-02,9.52182e-03
8.83366e-02,6.11463e-03
9.00842e-02,2.94622e-03
9.18664e-02,0.00000e+00
