m1=309549.681, m2=3.376, gsp=2.332, rhosp=282.124
fGW[Hz],dPh[rad]
3.41962e-03,8.49669e+03
3.44418e-03,8.26992e+03
3.46891e-03,8.04917e+03
3.49383e-03,7.83427e+03
3.51892e-03,7.62507e+03
3.54419e-03,7.42142e+03
3.56964e-03,7.22317e+03
3.59528e-03,7.03018e+03
3.62110e-03,6.84231e+03
3.64710e-03,6.65942e+03
3.67330e-03,6.48138e+03
3.69968e-03,6.30807e+03
3.72625e-03,6.13936e+03
3.75301e-03,5.97512e+03
3.77996e-03,5.81524e+03
3.80711e-03,5.65961e+03
3.83445e-03,5.50810e+03
3.86199e-03,5.36062e+03
3.88972e-03,5.21705e+03
3.91766e-03,5.07729e+03
3.94579e-03,4.94124e+03
3.97413e-03,4.80881e+03
4.00267e-03,4.67989e+03
4.03142e-03,4.55439e+03
4.06037e-03,4.43223e+03
4.08953e-03,4.31331e+03
4.11890e-03,4.19754e+03
4.14848e-03,4.08486e+03
4.17827e-03,3.97516e+03
4.20828e-03,3.86838e+03
4.23850e-03,3.76443e+03
4.26894e-03,3.66325e+03
4.29960e-03,3.56475e+03
4.33048e-03,3.46887e+03
4.36158e-03,3.37554e+03
4.39290e-03,3.28469e+03
4.42445e-03,3.19625e+03
4.45622e-03,3.11016e+03
4.48823e-03,3.02636e+03
4.52046e-03,2.94478e+03
4.55292e-03,2.86538e+03
4.58562e-03,2.78808e+03
4.61855e-03,2.71284e+03
4.65172e-03,2.63960e+03
4.68513e-03,2.56830e+03
4.71878e-03,2.49890e+03
4.75267e-03,2.43134e+03
4.78680e-03,2.36558e+03
4.82117e-03,2.30157e+03
4.85580e-03,2.23926e+03
4.89067e-03,2.17861e+03
4.92579e-03,2.11957e+03
4.96117e-03,2.06210e+03
4.99680e-03,2.00615e+03
5.03268e-03,1.95170e+03
5.06883e-03,1.89869e+03
5.10523e-03,1.84709e+03
5.14189e-03,1.79687e+03
5.17882e-03,1.74798e+03
5.21601e-03,1.70039e+03
5.25347e-03,1.65407e+03
5.29120e-03,1.60897e+03
5.32920e-03,1.56508e+03
5.36748e-03,1.52236e+03
5.40602e-03,1.48077e+03
5.44485e-03,1.44029e+03
5.48395e-03,1.40088e+03
5.52333e-03,1.36253e+03
5.56300e-03,1.32519e+03
5.60295e-03,1.28885e+03
5.64319e-03,1.25347e+03
5.68372e-03,1.21904e+03
5.72454e-03,1.18552e+03
5.76565e-03,1.15289e+03
5.80706e-03,1.12113e+03
5.84876e-03,1.09022e+03
5.89076e-03,1.06013e+03
5.93307e-03,1.03084e+03
5.97568e-03,1.00233e+03
6.01859e-03,9.74577e+02
6.06182e-03,9.47564e+02
6.10535e-03,9.21270e+02
6.14920e-03,8.95675e+02
6.19336e-03,8.70762e+02
6.23784e-03,8.46512e+02
6.28264e-03,8.22908e+02
6.32776e-03,7.99932e+02
6.37320e-03,7.77567e+02
6.41897e-03,7.55798e+02
6.46507e-03,7.34608e+02
6.51150e-03,7.13983e+02
6.55826e-03,6.93906e+02
6.60536e-03,6.74364e+02
6.65280e-03,6.55343e+02
6.70058e-03,6.36827e+02
6.74870e-03,6.18805e+02
6.79717e-03,6.01263e+02
6.84598e-03,5.84187e+02
6.89515e-03,5.67567e+02
6.94467e-03,5.51389e+02
6.99454e-03,5.35641e+02
7.04477e-03,5.20313e+02
7.09537e-03,5.05393e+02
7.14632e-03,4.90871e+02
7.19764e-03,4.76735e+02
7.24934e-03,4.62976e+02
7.30140e-03,4.49583e+02
7.35383e-03,4.36547e+02
7.40665e-03,4.23858e+02
7.45984e-03,4.11507e+02
7.51341e-03,3.99484e+02
7.56737e-03,3.87783e+02
7.62172e-03,3.76392e+02
7.67645e-03,3.65305e+02
7.73158e-03,3.54514e+02
7.78711e-03,3.44010e+02
7.84303e-03,3.33786e+02
7.89936e-03,3.23834e+02
7.95609e-03,3.14147e+02
8.01323e-03,3.04718e+02
8.07078e-03,2.95540e+02
8.12874e-03,2.86607e+02
8.18712e-03,2.77912e+02
8.24591e-03,2.69448e+02
8.30513e-03,2.61210e+02
8.36478e-03,2.53192e+02
8.42485e-03,2.45387e+02
8.48536e-03,2.37790e+02
8.54630e-03,2.30395e+02
8.60767e-03,2.23198e+02
8.66949e-03,2.16192e+02
8.73175e-03,2.09373e+02
8.79446e-03,2.02735e+02
8.85762e-03,1.96275e+02
8.92123e-03,1.89986e+02
8.98530e-03,1.83865e+02
9.04983e-03,1.77907e+02
9.11482e-03,1.72108e+02
9.18028e-03,1.66464e+02
9.24621e-03,1.60970e+02
9.31261e-03,1.55622e+02
9.37949e-03,1.50417e+02
9.44686e-03,1.45350e+02
9.51470e-03,1.40419e+02
9.58303e-03,1.35619e+02
9.65185e-03,1.30946e+02
9.72117e-03,1.26399e+02
9.79098e-03,1.21972e+02
9.86130e-03,1.17664e+02
9.93212e-03,1.13470e+02
1.00034e-02,1.09388e+02
1.00753e-02,1.05415e+02
1.01476e-02,1.01548e+02
1.02205e-02,9.77839e+01
1.02939e-02,9.41201e+01
1.03679e-02,9.05539e+01
1.04423e-02,8.70828e+01
1.05173e-02,8.37042e+01
1.05928e-02,8.04156e+01
1.06689e-02,7.72147e+01
1.07455e-02,7.40992e+01
1.08227e-02,7.10666e+01
1.09004e-02,6.81149e+01
1.09787e-02,6.52419e+01
1.10576e-02,6.24455e+01
1.11370e-02,5.97236e+01
1.12169e-02,5.70742e+01
1.12975e-02,5.44955e+01
1.13786e-02,5.19855e+01
1.14604e-02,4.95424e+01
1.15427e-02,4.71645e+01
1.16256e-02,4.48499e+01
1.17090e-02,4.25971e+01
1.17931e-02,4.04043e+01
1.18778e-02,3.82699e+01
1.19631e-02,3.61925e+01
1.20491e-02,3.41704e+01
1.21356e-02,3.22022e+01
1.22227e-02,3.02865e+01
1.23105e-02,2.84219e+01
1.23989e-02,2.66070e+01
1.24880e-02,2.48405e+01
1.25777e-02,2.31211e+01
1.26680e-02,2.14475e+01
1.27590e-02,1.98185e+01
1.28506e-02,1.82330e+01
1.29429e-02,1.66897e+01
1.30358e-02,1.51876e+01
1.31295e-02,1.37255e+01
1.32237e-02,1.23024e+01
1.33187e-02,1.09172e+01
1.34144e-02,9.56903e+00
1.35107e-02,8.25676e+00
1.36077e-02,6.97947e+00
1.37055e-02,5.73624e+00
1.38039e-02,4.52616e+00
1.39030e-02,3.34835e+00
1.40029e-02,2.20194e+00
1.41034e-02,1.08609e+00
1.42047e-02,0.00000e+00
