m1=217375.556, m2=38.973, gsp=2.131, rhosp=9030.335
fGW[Hz],dPh[rad]
1.49273e-03,1.72308e+03
1.51241e-03,1.65000e+03
1.53235e-03,1.57987e+03
1.55255e-03,1.51256e+03
1.57302e-03,1.44798e+03
1.59376e-03,1.38602e+03
1.61477e-03,1.32658e+03
1.63606e-03,1.26956e+03
1.65763e-03,1.21488e+03
1.67949e-03,1.16244e+03
1.70163e-03,1.11216e+03
1.72407e-03,1.06395e+03
1.74680e-03,1.01774e+03
1.76983e-03,9.73439e+02
1.79316e-03,9.30981e+02
1.81680e-03,8.90291e+02
1.84076e-03,8.51302e+02
1.86503e-03,8.13945e+02
1.88962e-03,7.78157e+02
1.91453e-03,7.43875e+02
1.93977e-03,7.11039e+02
1.96535e-03,6.79593e+02
1.99126e-03,6.49479e+02
2.01751e-03,6.20646e+02
2.04411e-03,5.93041e+02
2.07106e-03,5.66614e+02
2.09837e-03,5.41320e+02
2.12603e-03,5.17110e+02
2.15406e-03,4.93942e+02
2.18246e-03,4.71772e+02
2.21124e-03,4.50560e+02
2.24039e-03,4.30267e+02
2.26993e-03,4.10854e+02
2.29986e-03,3.92286e+02
2.33018e-03,3.74527e+02
2.36090e-03,3.57544e+02
2.39203e-03,3.41304e+02
2.42356e-03,3.25777e+02
2.45552e-03,3.10932e+02
2.48789e-03,2.96742e+02
2.52069e-03,2.83178e+02
2.55393e-03,2.70214e+02
2.58760e-03,2.57824e+02
2.62172e-03,2.45985e+02
2.65628e-03,2.34673e+02
2.69130e-03,2.23865e+02
2.72679e-03,2.13539e+02
2.76274e-03,2.03676e+02
2.79916e-03,1.94255e+02
2.83607e-03,1.85258e+02
2.87346e-03,1.76665e+02
2.91134e-03,1.68460e+02
2.94973e-03,1.60625e+02
2.98862e-03,1.53145e+02
3.02802e-03,1.46003e+02
3.06794e-03,1.39186e+02
3.10839e-03,1.32679e+02
3.14937e-03,1.26469e+02
3.19090e-03,1.20541e+02
3.23297e-03,1.14885e+02
3.27559e-03,1.09488e+02
3.31878e-03,1.04338e+02
3.36253e-03,9.94240e+01
3.40687e-03,9.47364e+01
3.45178e-03,9.02646e+01
3.49729e-03,8.59992e+01
3.54340e-03,8.19307e+01
3.59012e-03,7.80504e+01
3.63745e-03,7.43499e+01
3.68541e-03,7.08210e+01
3.73400e-03,6.74561e+01
3.78323e-03,6.42476e+01
3.83311e-03,6.11886e+01
3.88365e-03,5.82723e+01
3.93485e-03,5.54921e+01
3.98673e-03,5.28419e+01
4.03929e-03,5.03158e+01
4.09255e-03,4.79080e+01
4.14651e-03,4.56133e+01
4.20118e-03,4.34264e+01
4.25657e-03,4.13423e+01
4.31269e-03,3.93564e+01
4.36955e-03,3.74641e+01
4.42716e-03,3.56611e+01
4.48553e-03,3.39433e+01
4.54466e-03,3.23067e+01
4.60458e-03,3.07477e+01
4.66529e-03,2.92625e+01
4.72680e-03,2.78478e+01
4.78912e-03,2.65003e+01
4.85226e-03,2.52169e+01
4.91624e-03,2.39945e+01
4.98105e-03,2.28304e+01
5.04673e-03,2.17217e+01
5.11326e-03,2.06660e+01
5.18068e-03,1.96607e+01
5.24898e-03,1.87034e+01
5.31819e-03,1.77919e+01
5.38830e-03,1.69241e+01
5.45935e-03,1.60979e+01
5.53132e-03,1.53114e+01
5.60425e-03,1.45625e+01
5.67814e-03,1.38497e+01
5.75300e-03,1.31711e+01
5.82885e-03,1.25252e+01
5.90570e-03,1.19104e+01
5.98356e-03,1.13252e+01
6.06245e-03,1.07682e+01
6.14238e-03,1.02382e+01
6.22337e-03,9.73368e+00
6.30542e-03,9.25357e+00
6.38855e-03,8.79669e+00
6.47278e-03,8.36191e+00
6.55812e-03,7.94818e+00
6.64458e-03,7.55450e+00
6.73219e-03,7.17991e+00
6.82095e-03,6.82348e+00
6.91088e-03,6.48436e+00
7.00199e-03,6.16171e+00
7.09431e-03,5.85474e+00
7.18784e-03,5.56270e+00
7.28261e-03,5.28487e+00
7.37863e-03,5.02056e+00
7.47591e-03,4.76912e+00
7.57448e-03,4.52993e+00
7.67434e-03,4.30241e+00
7.77552e-03,4.08598e+00
7.87804e-03,3.88012e+00
7.98191e-03,3.68431e+00
8.08714e-03,3.49806e+00
8.19377e-03,3.32092e+00
8.30179e-03,3.15244e+00
8.41125e-03,2.99219e+00
8.52215e-03,2.83979e+00
8.63451e-03,2.69486e+00
8.74835e-03,2.55702e+00
8.86369e-03,2.42593e+00
8.98055e-03,2.30127e+00
9.09895e-03,2.18272e+00
9.21892e-03,2.06999e+00
9.34046e-03,1.96279e+00
9.46361e-03,1.86086e+00
9.58838e-03,1.76393e+00
9.71480e-03,1.67176e+00
9.84288e-03,1.58412e+00
9.97265e-03,1.50079e+00
1.01041e-02,1.42156e+00
1.02374e-02,1.34623e+00
1.03723e-02,1.27460e+00
1.05091e-02,1.20650e+00
1.06476e-02,1.14175e+00
1.07880e-02,1.08020e+00
1.09303e-02,1.02167e+00
1.10744e-02,9.66032e-01
1.12204e-02,9.13135e-01
1.13683e-02,8.62846e-01
1.15182e-02,8.15038e-01
1.16700e-02,7.69589e-01
1.18239e-02,7.26383e-01
1.19798e-02,6.85310e-01
1.21377e-02,6.46265e-01
1.22978e-02,6.09149e-01
1.24599e-02,5.73866e-01
1.26242e-02,5.40327e-01
1.27906e-02,5.08445e-01
1.29593e-02,4.78140e-01
1.31301e-02,4.49333e-01
1.33032e-02,4.21951e-01
1.34786e-02,3.95923e-01
1.36563e-02,3.71183e-01
1.38364e-02,3.47668e-01
1.40188e-02,3.25316e-01
1.42036e-02,3.04072e-01
1.43909e-02,2.83879e-01
1.45806e-02,2.64686e-01
1.47729e-02,2.46444e-01
1.49677e-02,2.29106e-01
1.51650e-02,2.12627e-01
1.53649e-02,1.96965e-01
1.55675e-02,1.82079e-01
1.57728e-02,1.67931e-01
1.59807e-02,1.54485e-01
1.61914e-02,1.41706e-01
1.64049e-02,1.29560e-01
1.66212e-02,1.18017e-01
1.68403e-02,1.07047e-01
1.70623e-02,9.66213e-02
1.72873e-02,8.67129e-02
1.75152e-02,7.72965e-02
1.77461e-02,6.83475e-02
1.79801e-02,5.98428e-02
1.82172e-02,5.17605e-02
1.84574e-02,4.40796e-02
1.87007e-02,3.67802e-02
1.89473e-02,2.98434e-02
1.91971e-02,2.32513e-02
1.94502e-02,1.69868e-02
1.97066e-02,1.10335e-02
1.99664e-02,5.37615e-03
2.02297e-02,0.00000e+00
