m1=103414.101, m2=7.786, gsp=2.428, rhosp=15.702
fGW[Hz],dPh[rad]
3.28800e-03,1.10512e+05
3.33056e-03,1.05809e+05
3.37368e-03,1.01299e+05
3.41736e-03,9.69748e+04
3.46160e-03,9.28288e+04
3.50641e-03,8.88541e+04
3.55181e-03,8.50438e+04
3.59779e-03,8.13917e+04
3.64436e-03,7.78913e+04
3.69154e-03,7.45366e+04
3.73933e-03,7.13219e+04
3.78774e-03,6.82416e+04
3.83678e-03,6.52903e+04
3.88645e-03,6.24628e+04
3.93676e-03,5.97542e+04
3.98773e-03,5.71596e+04
4.03935e-03,5.46745e+04
4.09165e-03,5.22943e+04
4.14462e-03,5.00150e+04
4.19827e-03,4.78322e+04
4.25262e-03,4.57422e+04
4.30768e-03,4.37411e+04
4.36344e-03,4.18253e+04
4.41993e-03,3.99912e+04
4.47715e-03,3.82356e+04
4.53511e-03,3.65551e+04
4.59382e-03,3.49467e+04
4.65330e-03,3.34074e+04
4.71354e-03,3.19342e+04
4.77456e-03,3.05246e+04
4.83637e-03,2.91757e+04
4.89898e-03,2.78851e+04
4.96240e-03,2.66504e+04
5.02664e-03,2.54691e+04
5.09172e-03,2.43391e+04
5.15764e-03,2.32582e+04
5.22441e-03,2.22242e+04
5.29204e-03,2.12354e+04
5.36055e-03,2.02896e+04
5.42995e-03,1.93851e+04
5.50024e-03,1.85202e+04
5.57145e-03,1.76931e+04
5.64358e-03,1.69023e+04
5.71664e-03,1.61462e+04
5.79065e-03,1.54233e+04
5.86561e-03,1.47321e+04
5.94155e-03,1.40714e+04
6.01847e-03,1.34399e+04
6.09638e-03,1.28362e+04
6.17530e-03,1.22591e+04
6.25525e-03,1.17076e+04
6.33623e-03,1.11805e+04
6.41826e-03,1.06767e+04
6.50135e-03,1.01953e+04
6.58551e-03,9.73523e+03
6.67077e-03,9.29562e+03
6.75713e-03,8.87556e+03
6.84460e-03,8.47420e+03
6.93321e-03,8.09073e+03
7.02297e-03,7.72436e+03
7.11389e-03,7.37435e+03
7.20599e-03,7.03997e+03
7.29927e-03,6.72055e+03
7.39377e-03,6.41541e+03
7.48949e-03,6.12395e+03
7.58645e-03,5.84555e+03
7.68466e-03,5.57964e+03
7.78415e-03,5.32567e+03
7.88492e-03,5.08310e+03
7.98700e-03,4.85145e+03
8.09040e-03,4.63022e+03
8.19513e-03,4.41895e+03
8.30123e-03,4.21719e+03
8.40869e-03,4.02454e+03
8.51755e-03,3.84058e+03
8.62782e-03,3.66492e+03
8.73951e-03,3.49720e+03
8.85266e-03,3.33707e+03
8.96726e-03,3.18417e+03
9.08335e-03,3.03820e+03
9.20094e-03,2.89884e+03
9.32006e-03,2.76580e+03
9.44071e-03,2.63879e+03
9.56293e-03,2.51754e+03
9.68673e-03,2.40180e+03
9.81214e-03,2.29131e+03
9.93916e-03,2.18585e+03
1.00678e-02,2.08518e+03
1.01982e-02,1.98909e+03
1.03302e-02,1.89737e+03
1.04639e-02,1.80983e+03
1.05994e-02,1.72629e+03
1.07366e-02,1.64654e+03
1.08756e-02,1.57044e+03
1.10164e-02,1.49781e+03
1.11590e-02,1.42849e+03
1.13035e-02,1.36234e+03
1.14498e-02,1.29921e+03
1.15981e-02,1.23897e+03
1.17482e-02,1.18148e+03
1.19003e-02,1.12662e+03
1.20543e-02,1.07428e+03
1.22104e-02,1.02433e+03
1.23685e-02,9.76664e+02
1.25286e-02,9.31185e+02
1.26908e-02,8.87790e+02
1.28551e-02,8.46385e+02
1.30215e-02,8.06880e+02
1.31901e-02,7.69187e+02
1.33608e-02,7.33224e+02
1.35338e-02,6.98912e+02
1.37090e-02,6.66176e+02
1.38865e-02,6.34945e+02
1.40663e-02,6.05149e+02
1.42484e-02,5.76722e+02
1.44328e-02,5.49603e+02
1.46197e-02,5.23731e+02
1.48089e-02,4.99050e+02
1.50007e-02,4.75505e+02
1.51949e-02,4.53044e+02
1.53916e-02,4.31618e+02
1.55908e-02,4.11178e+02
1.57927e-02,3.91680e+02
1.59971e-02,3.73081e+02
1.62042e-02,3.55340e+02
1.64140e-02,3.38416e+02
1.66265e-02,3.22273e+02
1.68417e-02,3.06875e+02
1.70598e-02,2.92188e+02
1.72806e-02,2.78178e+02
1.75043e-02,2.64815e+02
1.77309e-02,2.52069e+02
1.79605e-02,2.39912e+02
1.81930e-02,2.28317e+02
1.84285e-02,2.17257e+02
1.86671e-02,2.06708e+02
1.89088e-02,1.96647e+02
1.91535e-02,1.87052e+02
1.94015e-02,1.77900e+02
1.96527e-02,1.69171e+02
1.99071e-02,1.60846e+02
2.01648e-02,1.52906e+02
2.04259e-02,1.45333e+02
2.06903e-02,1.38112e+02
2.09581e-02,1.31224e+02
2.12295e-02,1.24655e+02
2.15043e-02,1.18391e+02
2.17827e-02,1.12416e+02
2.20647e-02,1.06718e+02
2.23503e-02,1.01285e+02
2.26397e-02,9.61028e+01
2.29328e-02,9.11610e+01
2.32297e-02,8.64482e+01
2.35304e-02,8.19539e+01
2.38350e-02,7.76679e+01
2.41436e-02,7.35807e+01
2.44561e-02,6.96830e+01
2.47728e-02,6.59660e+01
2.50935e-02,6.24215e+01
2.54183e-02,5.90414e+01
2.57474e-02,5.58181e+01
2.60807e-02,5.27444e+01
2.64183e-02,4.98133e+01
2.67604e-02,4.70183e+01
2.71068e-02,4.43530e+01
2.74577e-02,4.18114e+01
2.78132e-02,3.93879e+01
2.81732e-02,3.70768e+01
2.85380e-02,3.48731e+01
2.89074e-02,3.27717e+01
2.92817e-02,3.07679e+01
2.96607e-02,2.88572e+01
3.00447e-02,2.70352e+01
3.04337e-02,2.52979e+01
3.08277e-02,2.36413e+01
3.12268e-02,2.20617e+01
3.16310e-02,2.05555e+01
3.20405e-02,1.91193e+01
3.24553e-02,1.77498e+01
3.28755e-02,1.64440e+01
3.33011e-02,1.51989e+01
3.37322e-02,1.40117e+01
3.41689e-02,1.28796e+01
3.46112e-02,1.18003e+01
3.50593e-02,1.07711e+01
3.55132e-02,9.78972e+00
3.59729e-02,8.85401e+00
3.64386e-02,7.96183e+00
3.69104e-02,7.11114e+00
3.73882e-02,6.30002e+00
3.78722e-02,5.52664e+00
3.83625e-02,4.78923e+00
3.88592e-02,4.08613e+00
3.93622e-02,3.41574e+00
3.98718e-02,2.77654e+00
4.03880e-02,2.16709e+00
4.09108e-02,1.58600e+00
4.14405e-02,1.03195e+00
4.19770e-02,5.03679e-01
4.25204e-02,0.00000e+00
