m1=5524.613, m2=8.363, gsp=2.204, rhosp=135.814
fGW[Hz],dPh[rad]
6.65941e-03,1.91531e+03
6.82145e-03,1.81485e+03
6.98743e-03,1.71961e+03
7.15745e-03,1.62930e+03
7.33161e-03,1.54368e+03
7.51001e-03,1.46251e+03
7.69274e-03,1.38556e+03
7.87993e-03,1.31260e+03
8.07167e-03,1.24343e+03
8.26807e-03,1.17786e+03
8.46925e-03,1.11571e+03
8.67533e-03,1.05678e+03
8.88643e-03,1.00092e+03
9.10265e-03,9.47976e+02
9.32415e-03,8.97786e+02
9.55103e-03,8.50212e+02
9.78343e-03,8.05119e+02
1.00215e-02,7.62378e+02
1.02653e-02,7.21867e+02
1.05151e-02,6.83472e+02
1.07710e-02,6.47082e+02
1.10331e-02,6.12594e+02
1.13015e-02,5.79911e+02
1.15765e-02,5.48937e+02
1.18582e-02,5.19585e+02
1.21467e-02,4.91771e+02
1.24423e-02,4.65414e+02
1.27451e-02,4.40440e+02
1.30552e-02,4.16777e+02
1.33728e-02,3.94357e+02
1.36982e-02,3.73115e+02
1.40315e-02,3.52991e+02
1.43730e-02,3.33926e+02
1.47227e-02,3.15865e+02
1.50809e-02,2.98756e+02
1.54479e-02,2.82550e+02
1.58238e-02,2.67200e+02
1.62088e-02,2.52661e+02
1.66032e-02,2.38891e+02
1.70072e-02,2.25850e+02
1.74210e-02,2.13501e+02
1.78449e-02,2.01807e+02
1.82791e-02,1.90734e+02
1.87239e-02,1.80249e+02
1.91795e-02,1.70323e+02
1.96462e-02,1.60926e+02
2.01243e-02,1.52029e+02
2.06139e-02,1.43609e+02
2.11155e-02,1.35638e+02
2.16293e-02,1.28094e+02
2.21556e-02,1.20955e+02
2.26947e-02,1.14199e+02
2.32469e-02,1.07806e+02
2.38126e-02,1.01757e+02
2.43920e-02,9.60349e+01
2.49855e-02,9.06215e+01
2.55935e-02,8.55009e+01
2.62162e-02,8.06578e+01
2.68541e-02,7.60774e+01
2.75076e-02,7.17461e+01
2.81769e-02,6.76507e+01
2.88625e-02,6.37787e+01
2.95648e-02,6.01183e+01
3.02842e-02,5.66584e+01
3.10211e-02,5.33884e+01
3.17759e-02,5.02982e+01
3.25491e-02,4.73783e+01
3.33411e-02,4.46196e+01
3.41524e-02,4.20136e+01
3.49834e-02,3.95522e+01
3.58346e-02,3.72276e+01
3.67066e-02,3.50326e+01
3.75997e-02,3.29602e+01
3.85146e-02,3.10039e+01
3.94518e-02,2.91575e+01
4.04118e-02,2.74151e+01
4.13951e-02,2.57710e+01
4.24023e-02,2.42201e+01
4.34341e-02,2.27572e+01
4.44909e-02,2.13777e+01
4.55735e-02,2.00769e+01
4.66824e-02,1.88508e+01
4.78183e-02,1.76950e+01
4.89819e-02,1.66060e+01
5.01737e-02,1.55800e+01
5.13946e-02,1.46135e+01
5.26452e-02,1.37033e+01
5.39261e-02,1.28464e+01
5.52383e-02,1.20397e+01
5.65824e-02,1.12806e+01
5.79592e-02,1.05663e+01
5.93695e-02,9.89445e+00
6.08141e-02,9.26259e+00
6.22938e-02,8.66853e+00
6.38096e-02,8.11014e+00
6.53623e-02,7.58543e+00
6.69527e-02,7.09248e+00
6.85818e-02,6.62952e+00
7.02506e-02,6.19483e+00
7.19600e-02,5.78680e+00
7.37109e-02,5.40392e+00
7.55045e-02,5.04473e+00
7.73417e-02,4.70788e+00
7.92236e-02,4.39206e+00
8.11513e-02,4.09607e+00
8.31260e-02,3.81875e+00
8.51486e-02,3.55899e+00
8.72205e-02,3.31578e+00
8.93428e-02,3.08812e+00
9.15167e-02,2.87510e+00
9.37436e-02,2.67585e+00
9.60246e-02,2.48953e+00
9.83611e-02,2.31538e+00
1.00754e-01,2.15265e+00
1.03206e-01,2.00065e+00
1.05717e-01,1.85872e+00
1.08290e-01,1.72625e+00
1.10925e-01,1.60265e+00
1.13624e-01,1.48737e+00
1.16389e-01,1.37989e+00
1.19221e-01,1.27972e+00
1.22121e-01,1.18639e+00
1.25093e-01,1.09948e+00
1.28137e-01,1.01857e+00
1.31255e-01,9.43285e-01
1.34448e-01,8.73251e-01
1.37720e-01,8.08129e-01
1.41071e-01,7.47600e-01
1.44504e-01,6.91361e-01
1.48020e-01,6.39127e-01
1.51621e-01,5.90634e-01
1.55311e-01,5.45629e-01
1.59090e-01,5.03879e-01
1.62961e-01,4.65163e-01
1.66926e-01,4.29273e-01
1.70988e-01,3.96017e-01
1.75149e-01,3.65213e-01
1.79410e-01,3.36690e-01
1.83776e-01,3.10290e-01
1.88248e-01,2.85864e-01
1.92828e-01,2.63272e-01
1.97520e-01,2.42385e-01
2.02326e-01,2.23080e-01
2.07249e-01,2.05244e-01
2.12292e-01,1.88771e-01
2.17458e-01,1.73563e-01
2.22749e-01,1.59526e-01
2.28169e-01,1.46576e-01
2.33721e-01,1.34631e-01
2.39408e-01,1.23619e-01
2.45234e-01,1.13468e-01
2.51201e-01,1.04115e-01
2.57313e-01,9.54993e-02
2.63574e-01,8.75658e-02
2.69988e-01,8.02625e-02
2.76557e-01,7.35412e-02
2.83286e-01,6.73574e-02
2.90180e-01,6.16697e-02
2.97240e-01,5.64399e-02
3.04473e-01,5.16323e-02
3.11882e-01,4.72140e-02
3.19470e-01,4.31546e-02
3.27244e-01,3.94258e-02
3.35207e-01,3.60017e-02
3.43363e-01,3.28580e-02
3.51718e-01,2.99725e-02
3.60276e-01,2.73246e-02
3.69042e-01,2.48953e-02
3.78022e-01,2.26670e-02
3.87220e-01,2.06235e-02
3.96643e-01,1.87500e-02
4.06294e-01,1.70325e-02
4.16180e-01,1.54584e-02
4.26307e-01,1.40161e-02
4.36680e-01,1.26947e-02
4.47305e-01,1.14843e-02
4.58189e-01,1.03759e-02
4.69338e-01,9.36085e-03
4.80758e-01,8.43160e-03
4.92457e-01,7.58099e-03
5.04439e-01,6.80249e-03
5.16714e-01,6.09010e-03
5.29287e-01,5.43830e-03
5.42165e-01,4.84201e-03
5.55358e-01,4.29659e-03
5.68871e-01,3.79776e-03
5.82713e-01,3.34160e-03
5.96892e-01,2.92451e-03
6.11416e-01,2.54320e-03
6.26293e-01,2.19463e-03
6.41532e-01,1.87603e-03
6.57142e-01,1.58485e-03
6.73132e-01,1.31877e-03
6.89511e-01,1.07564e-03
7.06289e-01,8.53501e-04
7.23475e-01,6.50566e-04
7.41079e-01,4.65191e-04
7.59111e-01,2.95870e-04
7.77582e-01,1.41227e-04
7.96503e-01,0.00000e+00
