m1=14082.678, m2=68.603, gsp=2.062, rhosp=36.482
fGW[Hz],dPh[rad]
2.39483e-03,2.10404e+01
2.45419e-03,1.98832e+01
2.51503e-03,1.87895e+01
2.57738e-03,1.77555e+01
2.64127e-03,1.67783e+01
2.70674e-03,1.58545e+01
2.77384e-03,1.49814e+01
2.84260e-03,1.41561e+01
2.91307e-03,1.33760e+01
2.98528e-03,1.26387e+01
3.05928e-03,1.19418e+01
3.13512e-03,1.12831e+01
3.21283e-03,1.06605e+01
3.29247e-03,1.00720e+01
3.37409e-03,9.51584e+00
3.45773e-03,8.99018e+00
3.54345e-03,8.49336e+00
3.63128e-03,8.02380e+00
3.72130e-03,7.58001e+00
3.81355e-03,7.16059e+00
3.90808e-03,6.76420e+00
4.00496e-03,6.38958e+00
4.10424e-03,6.03553e+00
4.20598e-03,5.70094e+00
4.31024e-03,5.38474e+00
4.41709e-03,5.08593e+00
4.52658e-03,4.80354e+00
4.63879e-03,4.53669e+00
4.75378e-03,4.28451e+00
4.87162e-03,4.04622e+00
4.99239e-03,3.82104e+00
5.11614e-03,3.60826e+00
5.24297e-03,3.40720e+00
5.37293e-03,3.21722e+00
5.50612e-03,3.03771e+00
5.64261e-03,2.86809e+00
5.78249e-03,2.70784e+00
5.92583e-03,2.55642e+00
6.07273e-03,2.41336e+00
6.22326e-03,2.27821e+00
6.37753e-03,2.15052e+00
6.53562e-03,2.02988e+00
6.69764e-03,1.91592e+00
6.86366e-03,1.80826e+00
7.03381e-03,1.70655e+00
7.20817e-03,1.61048e+00
7.38685e-03,1.51973e+00
7.56996e-03,1.43401e+00
7.75762e-03,1.35304e+00
7.94992e-03,1.27657e+00
8.14699e-03,1.20434e+00
8.34895e-03,1.13612e+00
8.55591e-03,1.07169e+00
8.76800e-03,1.01085e+00
8.98535e-03,9.53392e-01
9.20809e-03,8.99135e-01
9.43635e-03,8.47901e-01
9.67026e-03,7.99524e-01
9.90998e-03,7.53847e-01
1.01556e-02,7.10722e-01
1.04074e-02,6.70006e-01
1.06654e-02,6.31568e-01
1.09298e-02,5.95283e-01
1.12007e-02,5.61030e-01
1.14784e-02,5.28699e-01
1.17629e-02,4.98182e-01
1.20545e-02,4.69381e-01
1.23533e-02,4.42199e-01
1.26595e-02,4.16548e-01
1.29733e-02,3.92342e-01
1.32949e-02,3.69503e-01
1.36245e-02,3.47953e-01
1.39622e-02,3.27622e-01
1.43084e-02,3.08442e-01
1.46630e-02,2.90350e-01
1.50265e-02,2.73284e-01
1.53990e-02,2.57189e-01
1.57807e-02,2.42009e-01
1.61719e-02,2.27694e-01
1.65728e-02,2.14197e-01
1.69836e-02,2.01470e-01
1.74046e-02,1.89473e-01
1.78361e-02,1.78163e-01
1.82782e-02,1.67502e-01
1.87313e-02,1.57455e-01
1.91957e-02,1.47987e-01
1.96715e-02,1.39065e-01
2.01591e-02,1.30659e-01
2.06589e-02,1.22740e-01
2.11710e-02,1.15280e-01
2.16958e-02,1.08254e-01
2.22336e-02,1.01638e-01
2.27847e-02,9.54083e-02
2.33496e-02,8.95430e-02
2.39284e-02,8.40217e-02
2.45215e-02,7.88249e-02
2.51294e-02,7.39344e-02
2.57523e-02,6.93326e-02
2.63907e-02,6.50033e-02
2.70449e-02,6.09309e-02
2.77153e-02,5.71009e-02
2.84023e-02,5.34994e-02
2.91064e-02,5.01133e-02
2.98279e-02,4.69304e-02
3.05673e-02,4.39390e-02
3.13251e-02,4.11280e-02
3.21016e-02,3.84872e-02
3.28974e-02,3.60067e-02
3.37128e-02,3.36773e-02
3.45486e-02,3.14902e-02
3.54050e-02,2.94371e-02
3.62826e-02,2.75103e-02
3.71820e-02,2.57023e-02
3.81037e-02,2.40064e-02
3.90483e-02,2.24158e-02
4.00163e-02,2.09245e-02
4.10082e-02,1.95265e-02
4.20248e-02,1.82164e-02
4.30665e-02,1.69889e-02
4.41341e-02,1.58391e-02
4.52282e-02,1.47625e-02
4.63493e-02,1.37546e-02
4.74983e-02,1.28114e-02
4.86757e-02,1.19288e-02
4.98823e-02,1.11033e-02
5.11189e-02,1.03315e-02
5.23860e-02,9.60996e-03
5.36846e-02,8.93570e-03
5.50154e-02,8.30583e-03
5.63792e-02,7.71759e-03
5.77768e-02,7.16843e-03
5.92090e-02,6.65592e-03
6.06767e-02,6.17776e-03
6.21809e-02,5.73183e-03
6.37223e-02,5.31608e-03
6.53019e-02,4.92861e-03
6.69206e-02,4.56762e-03
6.85795e-02,4.23144e-03
7.02796e-02,3.91847e-03
7.20217e-02,3.62721e-03
7.38071e-02,3.35626e-03
7.56367e-02,3.10430e-03
7.75116e-02,2.87009e-03
7.94331e-02,2.65246e-03
8.14021e-02,2.45031e-03
8.34200e-02,2.26263e-03
8.54879e-02,2.08843e-03
8.76071e-02,1.92682e-03
8.97787e-02,1.77695e-03
9.20043e-02,1.63801e-03
9.42850e-02,1.50927e-03
9.66222e-02,1.39002e-03
9.90174e-02,1.27961e-03
1.01472e-01,1.17741e-03
1.03987e-01,1.08287e-03
1.06565e-01,9.95433e-04
1.09207e-01,9.14606e-04
1.11914e-01,8.39918e-04
1.14688e-01,7.70928e-04
1.17531e-01,7.07229e-04
1.20444e-01,6.48436e-04
1.23430e-01,5.94194e-04
1.26490e-01,5.44168e-04
1.29625e-01,4.98051e-04
1.32839e-01,4.55551e-04
1.36132e-01,4.16400e-04
1.39506e-01,3.80349e-04
1.42964e-01,3.47162e-04
1.46508e-01,3.16625e-04
1.50140e-01,2.88536e-04
1.53862e-01,2.62708e-04
1.57676e-01,2.38966e-04
1.61585e-01,2.17151e-04
1.65590e-01,1.97113e-04
1.69695e-01,1.78712e-04
1.73902e-01,1.61822e-04
1.78213e-01,1.46322e-04
1.82630e-01,1.32103e-04
1.87157e-01,1.19064e-04
1.91797e-01,1.07110e-04
1.96551e-01,9.61533e-05
2.01424e-01,8.61147e-05
2.06417e-01,7.69197e-05
2.11534e-01,6.84996e-05
2.16777e-01,6.07913e-05
2.22151e-01,5.37366e-05
2.27658e-01,4.72818e-05
2.33301e-01,4.13773e-05
2.39085e-01,3.59776e-05
2.45011e-01,3.10408e-05
2.51085e-01,2.65283e-05
2.57309e-01,2.24045e-05
2.63687e-01,1.86368e-05
2.70224e-01,1.51953e-05
2.76923e-01,1.20523e-05
2.83787e-01,9.18267e-06
2.90822e-01,6.56305e-06
2.98031e-01,4.17216e-06
3.05419e-01,1.99046e-06
3.12990e-01,0.00000e+00
