m1=1839.939, m2=10.111, gsp=2.171, rhosp=103.882
fGW[Hz],dPh[rad]
8.16793e-03,3.36967e+02
8.40449e-03,3.16224e+02
8.64789e-03,2.96756e+02
8.89835e-03,2.78485e+02
9.15606e-03,2.61336e+02
9.42124e-03,2.45242e+02
9.69409e-03,2.30137e+02
9.97485e-03,2.15961e+02
1.02637e-02,2.02656e+02
1.05610e-02,1.90169e+02
1.08669e-02,1.78450e+02
1.11816e-02,1.67451e+02
1.15054e-02,1.57129e+02
1.18386e-02,1.47441e+02
1.21815e-02,1.38349e+02
1.25343e-02,1.29817e+02
1.28973e-02,1.21809e+02
1.32708e-02,1.14294e+02
1.36552e-02,1.07241e+02
1.40506e-02,1.00622e+02
1.44576e-02,9.44100e+01
1.48763e-02,8.85804e+01
1.53071e-02,8.31096e+01
1.57505e-02,7.79754e+01
1.62066e-02,7.31573e+01
1.66760e-02,6.86357e+01
1.71589e-02,6.43924e+01
1.76559e-02,6.04104e+01
1.81672e-02,5.66737e+01
1.86934e-02,5.31670e+01
1.92348e-02,4.98763e+01
1.97918e-02,4.67883e+01
2.03651e-02,4.38905e+01
2.09549e-02,4.11713e+01
2.15617e-02,3.86197e+01
2.21862e-02,3.62253e+01
2.28288e-02,3.39785e+01
2.34899e-02,3.18703e+01
2.41702e-02,2.98920e+01
2.48702e-02,2.80358e+01
2.55905e-02,2.62940e+01
2.63317e-02,2.46598e+01
2.70943e-02,2.31264e+01
2.78790e-02,2.16876e+01
2.86864e-02,2.03377e+01
2.95172e-02,1.90711e+01
3.03720e-02,1.78827e+01
3.12517e-02,1.67678e+01
3.21568e-02,1.57218e+01
3.30881e-02,1.47405e+01
3.40464e-02,1.38198e+01
3.50324e-02,1.29561e+01
3.60470e-02,1.21458e+01
3.70910e-02,1.13856e+01
3.81652e-02,1.06726e+01
3.92705e-02,1.00036e+01
4.04078e-02,9.37617e+00
4.15781e-02,8.78759e+00
4.27823e-02,8.23550e+00
4.40213e-02,7.71766e+00
4.52963e-02,7.23195e+00
4.66081e-02,6.77640e+00
4.79580e-02,6.34914e+00
4.93469e-02,5.94843e+00
5.07761e-02,5.57263e+00
5.22466e-02,5.22021e+00
5.37598e-02,4.88972e+00
5.53167e-02,4.57981e+00
5.69188e-02,4.28921e+00
5.85673e-02,4.01673e+00
6.02635e-02,3.76124e+00
6.20088e-02,3.52171e+00
6.38047e-02,3.29713e+00
6.56525e-02,3.08660e+00
6.75540e-02,2.88923e+00
6.95104e-02,2.70422e+00
7.15236e-02,2.53080e+00
7.35950e-02,2.36826e+00
7.57264e-02,2.21591e+00
7.79196e-02,2.07314e+00
8.01763e-02,1.93934e+00
8.24983e-02,1.81396e+00
8.48876e-02,1.69648e+00
8.73461e-02,1.58641e+00
8.98757e-02,1.48328e+00
9.24787e-02,1.38667e+00
9.51570e-02,1.29618e+00
9.79129e-02,1.21142e+00
1.00749e-01,1.13203e+00
1.03666e-01,1.05768e+00
1.06669e-01,9.88066e-01
1.09758e-01,9.22882e-01
1.12937e-01,8.61854e-01
1.16208e-01,8.04724e-01
1.19573e-01,7.51248e-01
1.23036e-01,7.01198e-01
1.26600e-01,6.54360e-01
1.30266e-01,6.10533e-01
1.34039e-01,5.69529e-01
1.37921e-01,5.31169e-01
1.41915e-01,4.95290e-01
1.46025e-01,4.61734e-01
1.50255e-01,4.30357e-01
1.54606e-01,4.01020e-01
1.59084e-01,3.73595e-01
1.63691e-01,3.47962e-01
1.68432e-01,3.24008e-01
1.73310e-01,3.01626e-01
1.78329e-01,2.80717e-01
1.83494e-01,2.61188e-01
1.88808e-01,2.42951e-01
1.94276e-01,2.25923e-01
1.99903e-01,2.10028e-01
2.05692e-01,1.95194e-01
2.11650e-01,1.81353e-01
2.17779e-01,1.68441e-01
2.24087e-01,1.56399e-01
2.30577e-01,1.45170e-01
2.37254e-01,1.34703e-01
2.44126e-01,1.24948e-01
2.51196e-01,1.15859e-01
2.58471e-01,1.07394e-01
2.65957e-01,9.95104e-02
2.73659e-01,9.21717e-02
2.81585e-01,8.53419e-02
2.89740e-01,7.89878e-02
2.98131e-01,7.30781e-02
3.06766e-01,6.75835e-02
3.15650e-01,6.24764e-02
3.24792e-01,5.77314e-02
3.34198e-01,5.33241e-02
3.43877e-01,4.92321e-02
3.53837e-01,4.54342e-02
3.64084e-01,4.19107e-02
3.74629e-01,3.86430e-02
3.85479e-01,3.56137e-02
3.96643e-01,3.28066e-02
4.08130e-01,3.02064e-02
4.19950e-01,2.77990e-02
4.32113e-01,2.55711e-02
4.44627e-01,2.35101e-02
4.57504e-01,2.16045e-02
4.70754e-01,1.98433e-02
4.84388e-01,1.82163e-02
4.98417e-01,1.67141e-02
5.12852e-01,1.53278e-02
5.27705e-01,1.40489e-02
5.42988e-01,1.28699e-02
5.58714e-01,1.17835e-02
5.74895e-01,1.07828e-02
5.91545e-01,9.86167e-03
6.08677e-01,9.01415e-03
6.26305e-01,8.23479e-03
6.44444e-01,7.51848e-03
6.63108e-01,6.86049e-03
6.82313e-01,6.25638e-03
7.02074e-01,5.70205e-03
7.22407e-01,5.19366e-03
7.43329e-01,4.72767e-03
7.64857e-01,4.30077e-03
7.87009e-01,3.90990e-03
8.09802e-01,3.55221e-03
8.33255e-01,3.22507e-03
8.57387e-01,2.92601e-03
8.82219e-01,2.65280e-03
9.07769e-01,2.40331e-03
9.34060e-01,2.17562e-03
9.61111e-01,1.96793e-03
9.88947e-01,1.77859e-03
1.01759e+00,1.60606e-03
1.04706e+00,1.44893e-03
1.07738e+00,1.30590e-03
1.10859e+00,1.17577e-03
1.14069e+00,1.05743e-03
1.17373e+00,9.49876e-04
1.20772e+00,8.52166e-04
1.24270e+00,7.63440e-04
1.27869e+00,6.82911e-04
1.31572e+00,6.09856e-04
1.35383e+00,5.43609e-04
1.39304e+00,4.83564e-04
1.43338e+00,4.29162e-04
1.47490e+00,3.79895e-04
1.51761e+00,3.35296e-04
1.56156e+00,2.94938e-04
1.60679e+00,2.58434e-04
1.65332e+00,2.25427e-04
1.70121e+00,1.95594e-04
1.75048e+00,1.68639e-04
1.80117e+00,1.44294e-04
1.85334e+00,1.22312e-04
1.90701e+00,1.02472e-04
1.96224e+00,8.45701e-05
2.01907e+00,6.84222e-05
2.07755e+00,5.38610e-05
2.13772e+00,4.07343e-05
2.19963e+00,2.89043e-05
2.26334e+00,1.82458e-05
2.32889e+00,8.64527e-06
2.39633e+00,0.00000e+00
