m1=165116.149, m2=3.990, gsp=2.048, rhosp=14.115
fGW[Hz],dPh[rad]
3.75829e-03,5.35020e+01
3.79545e-03,5.14922e+01
3.83298e-03,4.95573e+01
3.87088e-03,4.76945e+01
3.90916e-03,4.59011e+01
3.94781e-03,4.41747e+01
3.98685e-03,4.25127e+01
4.02627e-03,4.09127e+01
4.06609e-03,3.93725e+01
4.10629e-03,3.78898e+01
4.14690e-03,3.64626e+01
4.18790e-03,3.50887e+01
4.22931e-03,3.37662e+01
4.27113e-03,3.24932e+01
4.31337e-03,3.12678e+01
4.35602e-03,3.00883e+01
4.39909e-03,2.89530e+01
4.44259e-03,2.78602e+01
4.48652e-03,2.68084e+01
4.53088e-03,2.57960e+01
4.57569e-03,2.48216e+01
4.62093e-03,2.38838e+01
4.66662e-03,2.29811e+01
4.71277e-03,2.21124e+01
4.75937e-03,2.12762e+01
4.80643e-03,2.04715e+01
4.85396e-03,1.96970e+01
4.90195e-03,1.89517e+01
4.95043e-03,1.82343e+01
4.99938e-03,1.75439e+01
5.04881e-03,1.68795e+01
5.09873e-03,1.62401e+01
5.14915e-03,1.56248e+01
5.20007e-03,1.50326e+01
5.25149e-03,1.44628e+01
5.30341e-03,1.39144e+01
5.35586e-03,1.33867e+01
5.40882e-03,1.28788e+01
5.46230e-03,1.23901e+01
5.51631e-03,1.19199e+01
5.57086e-03,1.14673e+01
5.62594e-03,1.10319e+01
5.68157e-03,1.06129e+01
5.73775e-03,1.02097e+01
5.79449e-03,9.82167e+00
5.85179e-03,9.44833e+00
5.90965e-03,9.08910e+00
5.96809e-03,8.74344e+00
6.02710e-03,8.41084e+00
6.08670e-03,8.09081e+00
6.14688e-03,7.78288e+00
6.20767e-03,7.48659e+00
6.26905e-03,7.20151e+00
6.33104e-03,6.92721e+00
6.39364e-03,6.66328e+00
6.45686e-03,6.40935e+00
6.52071e-03,6.16502e+00
6.58519e-03,5.92994e+00
6.65030e-03,5.70377e+00
6.71606e-03,5.48615e+00
6.78247e-03,5.27678e+00
6.84954e-03,5.07535e+00
6.91727e-03,4.88154e+00
6.98567e-03,4.69508e+00
7.05474e-03,4.51568e+00
7.12450e-03,4.34308e+00
7.19495e-03,4.17703e+00
7.26610e-03,4.01728e+00
7.33794e-03,3.86358e+00
7.41050e-03,3.71571e+00
7.48378e-03,3.57346e+00
7.55778e-03,3.43660e+00
7.63251e-03,3.30493e+00
7.70799e-03,3.17826e+00
7.78420e-03,3.05640e+00
7.86118e-03,2.93916e+00
7.93891e-03,2.82638e+00
8.01741e-03,2.71788e+00
8.09669e-03,2.61350e+00
8.17675e-03,2.51309e+00
8.25760e-03,2.41649e+00
8.33925e-03,2.32355e+00
8.42172e-03,2.23416e+00
8.50499e-03,2.14815e+00
8.58909e-03,2.06542e+00
8.67402e-03,1.98583e+00
8.75979e-03,1.90927e+00
8.84641e-03,1.83562e+00
8.93388e-03,1.76477e+00
9.02222e-03,1.69661e+00
9.11144e-03,1.63105e+00
9.20153e-03,1.56798e+00
9.29252e-03,1.50731e+00
9.38441e-03,1.44895e+00
9.47720e-03,1.39281e+00
9.57091e-03,1.33880e+00
9.66555e-03,1.28685e+00
9.76113e-03,1.23688e+00
9.85765e-03,1.18881e+00
9.95512e-03,1.14257e+00
1.00536e-02,1.09809e+00
1.01530e-02,1.05530e+00
1.02534e-02,1.01415e+00
1.03548e-02,9.74556e-01
1.04571e-02,9.36475e-01
1.05605e-02,8.99843e-01
1.06650e-02,8.64608e-01
1.07704e-02,8.30714e-01
1.08769e-02,7.98112e-01
1.09845e-02,7.66753e-01
1.10931e-02,7.36588e-01
1.12028e-02,7.07573e-01
1.13136e-02,6.79663e-01
1.14254e-02,6.52818e-01
1.15384e-02,6.26995e-01
1.16525e-02,6.02157e-01
1.17677e-02,5.78266e-01
1.18841e-02,5.55286e-01
1.20016e-02,5.33182e-01
1.21203e-02,5.11921e-01
1.22401e-02,4.91470e-01
1.23612e-02,4.71800e-01
1.24834e-02,4.52879e-01
1.26068e-02,4.34681e-01
1.27315e-02,4.17176e-01
1.28574e-02,4.00340e-01
1.29845e-02,3.84145e-01
1.31129e-02,3.68568e-01
1.32426e-02,3.53586e-01
1.33735e-02,3.39175e-01
1.35058e-02,3.25315e-01
1.36393e-02,3.11983e-01
1.37742e-02,2.99160e-01
1.39104e-02,2.86826e-01
1.40479e-02,2.74963e-01
1.41868e-02,2.63553e-01
1.43271e-02,2.52578e-01
1.44688e-02,2.42022e-01
1.46118e-02,2.31870e-01
1.47563e-02,2.22104e-01
1.49022e-02,2.12712e-01
1.50496e-02,2.03678e-01
1.51984e-02,1.94989e-01
1.53487e-02,1.86632e-01
1.55005e-02,1.78594e-01
1.56537e-02,1.70863e-01
1.58085e-02,1.63428e-01
1.59649e-02,1.56276e-01
1.61227e-02,1.49397e-01
1.62821e-02,1.42781e-01
1.64431e-02,1.36418e-01
1.66057e-02,1.30298e-01
1.67699e-02,1.24411e-01
1.69358e-02,1.18750e-01
1.71032e-02,1.13305e-01
1.72723e-02,1.08067e-01
1.74431e-02,1.03030e-01
1.76156e-02,9.81854e-02
1.77898e-02,9.35258e-02
1.79657e-02,8.90442e-02
1.81434e-02,8.47339e-02
1.83228e-02,8.05883e-02
1.85039e-02,7.66011e-02
1.86869e-02,7.27662e-02
1.88717e-02,6.90779e-02
1.90583e-02,6.55306e-02
1.92468e-02,6.21188e-02
1.94371e-02,5.88374e-02
1.96293e-02,5.56815e-02
1.98234e-02,5.26461e-02
2.00194e-02,4.97268e-02
2.02173e-02,4.69191e-02
2.04173e-02,4.42187e-02
2.06191e-02,4.16215e-02
2.08230e-02,3.91236e-02
2.10289e-02,3.67212e-02
2.12369e-02,3.44106e-02
2.14469e-02,3.21884e-02
2.16589e-02,3.00511e-02
2.18731e-02,2.79956e-02
2.20894e-02,2.60186e-02
2.23078e-02,2.41172e-02
2.25284e-02,2.22885e-02
2.27512e-02,2.05297e-02
2.29761e-02,1.88382e-02
2.32033e-02,1.72114e-02
2.34328e-02,1.56468e-02
2.36645e-02,1.41420e-02
2.38985e-02,1.26947e-02
2.41348e-02,1.13028e-02
2.43734e-02,9.96414e-03
2.46144e-02,8.67666e-03
2.48578e-02,7.43841e-03
2.51036e-02,6.24753e-03
2.53519e-02,5.10218e-03
2.56025e-02,4.00065e-03
2.58557e-02,2.94124e-03
2.61114e-02,1.92235e-03
2.63696e-02,9.42435e-04
2.66303e-02,0.00000e+00
