m1=133269.219, m2=30.982, gsp=2.124, rhosp=643.793
fGW[Hz],dPh[rad]
1.83854e-03,8.99343e+02
1.86542e-03,8.60083e+02
1.89268e-03,8.22432e+02
1.92034e-03,7.86330e+02
1.94841e-03,7.51717e+02
1.97689e-03,7.18535e+02
2.00578e-03,6.86730e+02
2.03510e-03,6.56249e+02
2.06484e-03,6.27041e+02
2.09502e-03,5.99056e+02
2.12564e-03,5.72247e+02
2.15671e-03,5.46567e+02
2.18823e-03,5.21974e+02
2.22021e-03,4.98423e+02
2.25266e-03,4.75874e+02
2.28558e-03,4.54287e+02
2.31899e-03,4.33624e+02
2.35288e-03,4.13848e+02
2.38727e-03,3.94924e+02
2.42216e-03,3.76817e+02
2.45756e-03,3.59496e+02
2.49348e-03,3.42927e+02
2.52993e-03,3.27081e+02
2.56690e-03,3.11928e+02
2.60442e-03,2.97439e+02
2.64249e-03,2.83589e+02
2.68111e-03,2.70349e+02
2.72029e-03,2.57696e+02
2.76005e-03,2.45605e+02
2.80039e-03,2.34053e+02
2.84132e-03,2.23016e+02
2.88285e-03,2.12475e+02
2.92498e-03,2.02407e+02
2.96773e-03,1.92793e+02
3.01111e-03,1.83614e+02
3.05512e-03,1.74851e+02
3.09977e-03,1.66486e+02
3.14508e-03,1.58503e+02
3.19104e-03,1.50886e+02
3.23768e-03,1.43617e+02
3.28500e-03,1.36684e+02
3.33302e-03,1.30070e+02
3.38173e-03,1.23762e+02
3.43116e-03,1.17746e+02
3.48130e-03,1.12011e+02
3.53219e-03,1.06543e+02
3.58381e-03,1.01331e+02
3.63619e-03,9.63635e+01
3.68934e-03,9.16296e+01
3.74326e-03,8.71189e+01
3.79797e-03,8.28214e+01
3.85348e-03,7.87277e+01
3.90980e-03,7.48285e+01
3.96694e-03,7.11151e+01
4.02492e-03,6.75791e+01
4.08375e-03,6.42124e+01
4.14344e-03,6.10073e+01
4.20399e-03,5.79565e+01
4.26544e-03,5.50528e+01
4.32778e-03,5.22895e+01
4.39103e-03,4.96602e+01
4.45521e-03,4.71586e+01
4.52033e-03,4.47788e+01
4.58639e-03,4.25152e+01
4.65343e-03,4.03623e+01
4.72144e-03,3.83149e+01
4.79045e-03,3.63681e+01
4.86046e-03,3.45172e+01
4.93150e-03,3.27576e+01
5.00358e-03,3.10850e+01
5.07671e-03,2.94953e+01
5.15091e-03,2.79845e+01
5.22619e-03,2.65489e+01
5.30257e-03,2.51849e+01
5.38007e-03,2.38889e+01
5.45871e-03,2.26579e+01
5.53849e-03,2.14886e+01
5.61944e-03,2.03780e+01
5.70157e-03,1.93233e+01
5.78490e-03,1.83218e+01
5.86945e-03,1.73709e+01
5.95524e-03,1.64681e+01
6.04228e-03,1.56111e+01
6.13059e-03,1.47976e+01
6.22019e-03,1.40254e+01
6.31110e-03,1.32926e+01
6.40334e-03,1.25972e+01
6.49693e-03,1.19374e+01
6.59189e-03,1.13113e+01
6.68823e-03,1.07173e+01
6.78599e-03,1.01538e+01
6.88517e-03,9.61936e+00
6.98580e-03,9.11239e+00
7.08790e-03,8.63158e+00
7.19150e-03,8.17560e+00
7.29660e-03,7.74321e+00
7.40325e-03,7.33321e+00
7.51145e-03,6.94448e+00
7.62124e-03,6.57594e+00
7.73262e-03,6.22657e+00
7.84564e-03,5.89538e+00
7.96031e-03,5.58147e+00
8.07665e-03,5.28394e+00
8.19470e-03,5.00196e+00
8.31447e-03,4.73473e+00
8.43599e-03,4.48150e+00
8.55929e-03,4.24156e+00
8.68439e-03,4.01421e+00
8.81132e-03,3.79881e+00
8.94010e-03,3.59474e+00
9.07076e-03,3.40143e+00
9.20334e-03,3.21831e+00
9.33785e-03,3.04485e+00
9.47433e-03,2.88056e+00
9.61280e-03,2.72496e+00
9.75330e-03,2.57759e+00
9.89585e-03,2.43804e+00
1.00405e-02,2.30588e+00
1.01872e-02,2.18074e+00
1.03361e-02,2.06225e+00
1.04872e-02,1.95006e+00
1.06405e-02,1.84384e+00
1.07960e-02,1.74328e+00
1.09538e-02,1.64808e+00
1.11139e-02,1.55796e+00
1.12763e-02,1.47265e+00
1.14411e-02,1.39190e+00
1.16083e-02,1.31547e+00
1.17780e-02,1.24312e+00
1.19501e-02,1.17466e+00
1.21248e-02,1.10986e+00
1.23020e-02,1.04853e+00
1.24818e-02,9.90500e-01
1.26642e-02,9.35583e-01
1.28493e-02,8.83617e-01
1.30371e-02,8.34445e-01
1.32277e-02,7.87919e-01
1.34210e-02,7.43897e-01
1.36172e-02,7.02247e-01
1.38162e-02,6.62841e-01
1.40181e-02,6.25561e-01
1.42230e-02,5.90292e-01
1.44309e-02,5.56927e-01
1.46418e-02,5.25364e-01
1.48558e-02,4.95507e-01
1.50729e-02,4.67264e-01
1.52932e-02,4.40549e-01
1.55168e-02,4.15280e-01
1.57435e-02,3.91380e-01
1.59736e-02,3.68774e-01
1.62071e-02,3.47393e-01
1.64440e-02,3.27172e-01
1.66843e-02,3.08048e-01
1.69282e-02,2.89961e-01
1.71756e-02,2.72857e-01
1.74266e-02,2.56681e-01
1.76813e-02,2.41384e-01
1.79398e-02,2.26919e-01
1.82020e-02,2.13241e-01
1.84680e-02,2.00306e-01
1.87379e-02,1.88076e-01
1.90118e-02,1.76511e-01
1.92896e-02,1.65576e-01
1.95716e-02,1.55237e-01
1.98576e-02,1.45461e-01
2.01479e-02,1.36218e-01
2.04423e-02,1.27479e-01
2.07411e-02,1.19216e-01
2.10442e-02,1.11405e-01
2.13518e-02,1.04019e-01
2.16639e-02,9.70374e-02
2.19805e-02,9.04366e-02
2.23018e-02,8.41964e-02
2.26277e-02,7.82971e-02
2.29585e-02,7.27203e-02
2.32940e-02,6.74483e-02
2.36345e-02,6.24646e-02
2.39799e-02,5.77534e-02
2.43304e-02,5.33000e-02
2.46860e-02,4.90903e-02
2.50468e-02,4.51110e-02
2.54129e-02,4.13496e-02
2.57843e-02,3.77941e-02
2.61611e-02,3.44333e-02
2.65435e-02,3.12566e-02
2.69314e-02,2.82540e-02
2.73251e-02,2.54159e-02
2.77244e-02,2.27334e-02
2.81296e-02,2.01980e-02
2.85408e-02,1.78016e-02
2.89579e-02,1.55366e-02
2.93812e-02,1.33958e-02
2.98106e-02,1.13725e-02
3.02463e-02,9.46022e-03
3.06883e-02,7.65289e-03
3.11369e-02,5.94475e-03
3.15920e-02,4.33039e-03
3.20537e-02,2.80468e-03
3.25222e-02,1.36274e-03
3.29975e-02,0.00000e+00
