m1=6524.034, m2=4.634, gsp=2.312, rhosp=50.970
fGW[Hz],dPh[rad]
7.97052e-03,2.31662e+04
8.15027e-03,2.20406e+04
8.33406e-03,2.09683e+04
8.52201e-03,1.99469e+04
8.71419e-03,1.89738e+04
8.91070e-03,1.80469e+04
9.11165e-03,1.71640e+04
9.31712e-03,1.63231e+04
9.52723e-03,1.55222e+04
9.74208e-03,1.47594e+04
9.96178e-03,1.40329e+04
1.01864e-02,1.33411e+04
1.04161e-02,1.26823e+04
1.06510e-02,1.20550e+04
1.08912e-02,1.14577e+04
1.11368e-02,1.08890e+04
1.13880e-02,1.03475e+04
1.16448e-02,9.83202e+03
1.19074e-02,9.34130e+03
1.21759e-02,8.87417e+03
1.24505e-02,8.42954e+03
1.27313e-02,8.00633e+03
1.30184e-02,7.60355e+03
1.33119e-02,7.22024e+03
1.36121e-02,6.85547e+03
1.39191e-02,6.50838e+03
1.42330e-02,6.17813e+03
1.45540e-02,5.86393e+03
1.48822e-02,5.56503e+03
1.52178e-02,5.28069e+03
1.55610e-02,5.01023e+03
1.59119e-02,4.75299e+03
1.62707e-02,4.50836e+03
1.66376e-02,4.27573e+03
1.70128e-02,4.05453e+03
1.73965e-02,3.84422e+03
1.77888e-02,3.64429e+03
1.81899e-02,3.45423e+03
1.86001e-02,3.27359e+03
1.90196e-02,3.10191e+03
1.94485e-02,2.93877e+03
1.98871e-02,2.78375e+03
2.03356e-02,2.63648e+03
2.07942e-02,2.49658e+03
2.12631e-02,2.36369e+03
2.17426e-02,2.23748e+03
2.22329e-02,2.11764e+03
2.27343e-02,2.00385e+03
2.32470e-02,1.89582e+03
2.37712e-02,1.79327e+03
2.43073e-02,1.69595e+03
2.48554e-02,1.60360e+03
2.54159e-02,1.51597e+03
2.59891e-02,1.43284e+03
2.65752e-02,1.35399e+03
2.71745e-02,1.27921e+03
2.77873e-02,1.20830e+03
2.84139e-02,1.14108e+03
2.90547e-02,1.07736e+03
2.97099e-02,1.01697e+03
3.03799e-02,9.59749e+02
3.10650e-02,9.05538e+02
3.17655e-02,8.54190e+02
3.24819e-02,8.05563e+02
3.32144e-02,7.59522e+02
3.39634e-02,7.15937e+02
3.47293e-02,6.74687e+02
3.55125e-02,6.35655e+02
3.63133e-02,5.98729e+02
3.71322e-02,5.63804e+02
3.79696e-02,5.30779e+02
3.88258e-02,4.99556e+02
3.97014e-02,4.70046e+02
4.05967e-02,4.42160e+02
4.15122e-02,4.15816e+02
4.24483e-02,3.90935e+02
4.34056e-02,3.67441e+02
4.43844e-02,3.45262e+02
4.53853e-02,3.24331e+02
4.64088e-02,3.04583e+02
4.74554e-02,2.85955e+02
4.85256e-02,2.68389e+02
4.96199e-02,2.51830e+02
5.07388e-02,2.36223e+02
5.18830e-02,2.21518e+02
5.30531e-02,2.07667e+02
5.42495e-02,1.94625e+02
5.54728e-02,1.82347e+02
5.67238e-02,1.70793e+02
5.80030e-02,1.59923e+02
5.93110e-02,1.49700e+02
6.06485e-02,1.40088e+02
6.20162e-02,1.31053e+02
6.34148e-02,1.22564e+02
6.48448e-02,1.14590e+02
6.63071e-02,1.07103e+02
6.78024e-02,1.00074e+02
6.93314e-02,9.34779e+01
7.08949e-02,8.72903e+01
7.24937e-02,8.14877e+01
7.41285e-02,7.60478e+01
7.58002e-02,7.09497e+01
7.75095e-02,6.61735e+01
7.92575e-02,6.17004e+01
8.10448e-02,5.75125e+01
8.28724e-02,5.35930e+01
8.47413e-02,4.99258e+01
8.66523e-02,4.64960e+01
8.86064e-02,4.32891e+01
9.06046e-02,4.02917e+01
9.26478e-02,3.74911e+01
9.47371e-02,3.48753e+01
9.68735e-02,3.24327e+01
9.90581e-02,3.01527e+01
1.01292e-01,2.80252e+01
1.03576e-01,2.60407e+01
1.05912e-01,2.41900e+01
1.08300e-01,2.24648e+01
1.10743e-01,2.08570e+01
1.13240e-01,1.93592e+01
1.15794e-01,1.79642e+01
1.18405e-01,1.66654e+01
1.21075e-01,1.54566e+01
1.23805e-01,1.43318e+01
1.26597e-01,1.32855e+01
1.29452e-01,1.23125e+01
1.32372e-01,1.14080e+01
1.35357e-01,1.05673e+01
1.38409e-01,9.78631e+00
1.41530e-01,9.06084e+00
1.44722e-01,8.38719e+00
1.47986e-01,7.76180e+00
1.51323e-01,7.18140e+00
1.54735e-01,6.64287e+00
1.58225e-01,6.14334e+00
1.61793e-01,5.68009e+00
1.65442e-01,5.25060e+00
1.69172e-01,4.85250e+00
1.72987e-01,4.48359e+00
1.76888e-01,4.14182e+00
1.80878e-01,3.82525e+00
1.84956e-01,3.53210e+00
1.89127e-01,3.26070e+00
1.93392e-01,3.00948e+00
1.97754e-01,2.77699e+00
2.02213e-01,2.56189e+00
2.06773e-01,2.36291e+00
2.11436e-01,2.17888e+00
2.16204e-01,2.00872e+00
2.21080e-01,1.85140e+00
2.26066e-01,1.70598e+00
2.31164e-01,1.57159e+00
2.36377e-01,1.44741e+00
2.41707e-01,1.33269e+00
2.47158e-01,1.22673e+00
2.52731e-01,1.12886e+00
2.58431e-01,1.03850e+00
2.64259e-01,9.55066e-01
2.70218e-01,8.78049e-01
2.76312e-01,8.06964e-01
2.82543e-01,7.41363e-01
2.88914e-01,6.80832e-01
2.95430e-01,6.24986e-01
3.02092e-01,5.73469e-01
3.08904e-01,5.25952e-01
3.15871e-01,4.82130e-01
3.22994e-01,4.41719e-01
3.30278e-01,4.04460e-01
3.37726e-01,3.70109e-01
3.45342e-01,3.38444e-01
3.53130e-01,3.09257e-01
3.61093e-01,2.82358e-01
3.69236e-01,2.57568e-01
3.77563e-01,2.34726e-01
3.86077e-01,2.13681e-01
3.94783e-01,1.94291e-01
4.03686e-01,1.76430e-01
4.12790e-01,1.59977e-01
4.22099e-01,1.44823e-01
4.31617e-01,1.30867e-01
4.41351e-01,1.18015e-01
4.51304e-01,1.06180e-01
4.61481e-01,9.52822e-02
4.71888e-01,8.52489e-02
4.82529e-01,7.60119e-02
4.93411e-01,6.75084e-02
5.04538e-01,5.96807e-02
5.15916e-01,5.24755e-02
5.27550e-01,4.58437e-02
5.39447e-01,3.97401e-02
5.51612e-01,3.41229e-02
5.64051e-01,2.89535e-02
5.76771e-01,2.41966e-02
5.89778e-01,1.98194e-02
6.03078e-01,1.57919e-02
6.16678e-01,1.20862e-02
6.30585e-01,8.67678e-03
6.44805e-01,5.54014e-03
6.59346e-01,2.65454e-03
6.74215e-01,0.00000e+00
