m1=117120.806, m2=15.920, gsp=2.018, rhosp=83.481
fGW[Hz],dPh[rad]
2.43742e-03,9.19739e+01
2.47114e-03,8.78158e+01
2.50534e-03,8.38363e+01
2.54000e-03,8.00284e+01
2.57515e-03,7.63851e+01
2.61078e-03,7.28996e+01
2.64690e-03,6.95656e+01
2.68353e-03,6.63769e+01
2.72066e-03,6.33276e+01
2.75830e-03,6.04119e+01
2.79647e-03,5.76242e+01
2.83516e-03,5.49594e+01
2.87439e-03,5.24123e+01
2.91416e-03,4.99780e+01
2.95448e-03,4.76518e+01
2.99536e-03,4.54292e+01
3.03681e-03,4.33058e+01
3.07883e-03,4.12774e+01
3.12143e-03,3.93401e+01
3.16462e-03,3.74899e+01
3.20841e-03,3.57232e+01
3.25280e-03,3.40364e+01
3.29781e-03,3.24260e+01
3.34344e-03,3.08888e+01
3.38970e-03,2.94217e+01
3.43660e-03,2.80215e+01
3.48415e-03,2.66855e+01
3.53236e-03,2.54107e+01
3.58124e-03,2.41946e+01
3.63079e-03,2.30346e+01
3.68103e-03,2.19282e+01
3.73196e-03,2.08730e+01
3.78360e-03,1.98669e+01
3.83595e-03,1.89075e+01
3.88903e-03,1.79929e+01
3.94284e-03,1.71211e+01
3.99740e-03,1.62901e+01
4.05271e-03,1.54981e+01
4.10878e-03,1.47434e+01
4.16563e-03,1.40242e+01
4.22327e-03,1.33391e+01
4.28171e-03,1.26863e+01
4.34095e-03,1.20646e+01
4.40102e-03,1.14724e+01
4.46191e-03,1.09084e+01
4.52365e-03,1.03713e+01
4.58624e-03,9.85995e+00
4.64970e-03,9.37308e+00
4.71403e-03,8.90958e+00
4.77926e-03,8.46837e+00
4.84539e-03,8.04842e+00
4.91243e-03,7.64874e+00
4.98040e-03,7.26840e+00
5.04932e-03,6.90648e+00
5.11918e-03,6.56213e+00
5.19001e-03,6.23452e+00
5.26183e-03,5.92287e+00
5.33463e-03,5.62641e+00
5.40844e-03,5.34445e+00
5.48328e-03,5.07628e+00
5.55915e-03,4.82127e+00
5.63607e-03,4.57877e+00
5.71405e-03,4.34820e+00
5.79312e-03,4.12898e+00
5.87327e-03,3.92058e+00
5.95454e-03,3.72247e+00
6.03693e-03,3.53417e+00
6.12046e-03,3.35519e+00
6.20515e-03,3.18510e+00
6.29101e-03,3.02345e+00
6.37805e-03,2.86985e+00
6.46630e-03,2.72390e+00
6.55577e-03,2.58524e+00
6.64648e-03,2.45349e+00
6.73845e-03,2.32834e+00
6.83169e-03,2.20946e+00
6.92621e-03,2.09653e+00
7.02205e-03,1.98928e+00
7.11921e-03,1.88742e+00
7.21772e-03,1.79068e+00
7.31758e-03,1.69882e+00
7.41883e-03,1.61159e+00
7.52149e-03,1.52876e+00
7.62556e-03,1.45013e+00
7.73107e-03,1.37547e+00
7.83804e-03,1.30459e+00
7.94649e-03,1.23731e+00
8.05645e-03,1.17345e+00
8.16792e-03,1.11282e+00
8.28094e-03,1.05529e+00
8.39552e-03,1.00068e+00
8.51168e-03,9.48856e-01
8.62945e-03,8.99675e-01
8.74886e-03,8.53006e-01
8.86991e-03,8.08721e-01
8.99264e-03,7.66702e-01
9.11707e-03,7.26834e-01
9.24322e-03,6.89008e-01
9.37111e-03,6.53122e-01
9.50078e-03,6.19078e-01
9.63224e-03,5.86783e-01
9.76551e-03,5.56147e-01
9.90063e-03,5.27088e-01
1.00376e-02,4.99525e-01
1.01765e-02,4.73382e-01
1.03173e-02,4.48586e-01
1.04601e-02,4.25070e-01
1.06048e-02,4.02768e-01
1.07515e-02,3.81619e-01
1.09003e-02,3.61563e-01
1.10511e-02,3.42544e-01
1.12040e-02,3.24510e-01
1.13591e-02,3.07411e-01
1.15162e-02,2.91197e-01
1.16756e-02,2.75825e-01
1.18371e-02,2.61250e-01
1.20009e-02,2.47432e-01
1.21670e-02,2.34332e-01
1.23353e-02,2.21913e-01
1.25060e-02,2.10140e-01
1.26790e-02,1.98980e-01
1.28545e-02,1.88400e-01
1.30323e-02,1.78372e-01
1.32127e-02,1.68867e-01
1.33955e-02,1.59857e-01
1.35808e-02,1.51318e-01
1.37687e-02,1.43224e-01
1.39593e-02,1.35552e-01
1.41524e-02,1.28282e-01
1.43482e-02,1.21392e-01
1.45468e-02,1.14862e-01
1.47480e-02,1.08673e-01
1.49521e-02,1.02809e-01
1.51590e-02,9.72510e-02
1.53687e-02,9.19846e-02
1.55814e-02,8.69941e-02
1.57970e-02,8.22653e-02
1.60156e-02,7.77844e-02
1.62372e-02,7.35386e-02
1.64618e-02,6.95156e-02
1.66896e-02,6.57037e-02
1.69205e-02,6.20921e-02
1.71546e-02,5.86702e-02
1.73920e-02,5.54281e-02
1.76327e-02,5.23564e-02
1.78766e-02,4.94463e-02
1.81240e-02,4.66892e-02
1.83748e-02,4.40772e-02
1.86290e-02,4.16027e-02
1.88868e-02,3.92584e-02
1.91481e-02,3.70376e-02
1.94130e-02,3.49338e-02
1.96817e-02,3.29408e-02
1.99540e-02,3.10529e-02
2.02301e-02,2.92645e-02
2.05100e-02,2.75704e-02
2.07938e-02,2.59657e-02
2.10815e-02,2.44456e-02
2.13732e-02,2.30058e-02
2.16689e-02,2.16419e-02
2.19687e-02,2.03500e-02
2.22727e-02,1.91264e-02
2.25809e-02,1.79674e-02
2.28933e-02,1.68696e-02
2.32101e-02,1.58299e-02
2.35313e-02,1.48451e-02
2.38568e-02,1.39123e-02
2.41869e-02,1.30289e-02
2.45216e-02,1.21921e-02
2.48609e-02,1.13997e-02
2.52049e-02,1.06491e-02
2.55536e-02,9.93832e-03
2.59072e-02,9.26511e-03
2.62657e-02,8.62754e-03
2.66291e-02,8.02372e-03
2.69976e-02,7.45187e-03
2.73711e-02,6.91030e-03
2.77499e-02,6.39742e-03
2.81338e-02,5.91170e-03
2.85231e-02,5.45172e-03
2.89178e-02,5.01612e-03
2.93179e-02,4.60360e-03
2.97235e-02,4.21294e-03
3.01348e-02,3.84299e-03
3.05518e-02,3.49266e-03
3.09745e-02,3.16091e-03
3.14031e-02,2.84674e-03
3.18376e-02,2.54924e-03
3.22781e-02,2.26753e-03
3.27248e-02,2.00075e-03
3.31776e-02,1.74813e-03
3.36366e-02,1.50892e-03
3.41020e-02,1.28240e-03
3.45739e-02,1.06791e-03
3.50523e-02,8.64796e-04
3.55373e-02,6.72469e-04
3.60290e-02,4.90352e-04
3.65275e-02,3.17906e-04
3.70329e-02,1.54617e-04
3.75453e-02,0.00000e+00
