m1=186512.845, m2=11.124, gsp=2.031, rhosp=6819.863
fGW[Hz],dPh[rad]
2.48192e-03,3.34863e+02
2.51015e-03,3.20940e+02
2.53871e-03,3.07583e+02
2.56759e-03,2.94770e+02
2.59680e-03,2.82480e+02
2.62635e-03,2.70692e+02
2.65623e-03,2.59385e+02
2.68645e-03,2.48542e+02
2.71701e-03,2.38143e+02
2.74792e-03,2.28171e+02
2.77918e-03,2.18608e+02
2.81080e-03,2.09439e+02
2.84278e-03,2.00647e+02
2.87512e-03,1.92217e+02
2.90783e-03,1.84136e+02
2.94091e-03,1.76387e+02
2.97437e-03,1.68960e+02
3.00821e-03,1.61840e+02
3.04243e-03,1.55014e+02
3.07704e-03,1.48472e+02
3.11205e-03,1.42201e+02
3.14745e-03,1.36191e+02
3.18326e-03,1.30431e+02
3.21948e-03,1.24910e+02
3.25610e-03,1.19620e+02
3.29315e-03,1.14550e+02
3.33061e-03,1.09692e+02
3.36850e-03,1.05037e+02
3.40683e-03,1.00577e+02
3.44558e-03,9.63027e+01
3.48478e-03,9.22079e+01
3.52443e-03,8.82848e+01
3.56453e-03,8.45262e+01
3.60508e-03,8.09255e+01
3.64609e-03,7.74762e+01
3.68757e-03,7.41718e+01
3.72953e-03,7.10066e+01
3.77196e-03,6.79747e+01
3.81487e-03,6.50706e+01
3.85827e-03,6.22890e+01
3.90216e-03,5.96249e+01
3.94656e-03,5.70732e+01
3.99146e-03,5.46295e+01
4.03687e-03,5.22892e+01
4.08279e-03,5.00479e+01
4.12924e-03,4.79015e+01
4.17622e-03,4.58462e+01
4.22373e-03,4.38780e+01
4.27178e-03,4.19934e+01
4.32038e-03,4.01888e+01
4.36953e-03,3.84609e+01
4.41924e-03,3.68065e+01
4.46952e-03,3.52225e+01
4.52037e-03,3.37059e+01
4.57179e-03,3.22540e+01
4.62381e-03,3.08639e+01
4.67641e-03,2.95331e+01
4.72961e-03,2.82591e+01
4.78342e-03,2.70394e+01
4.83784e-03,2.58719e+01
4.89288e-03,2.47543e+01
4.94854e-03,2.36845e+01
5.00484e-03,2.26604e+01
5.06178e-03,2.16802e+01
5.11937e-03,2.07420e+01
5.17761e-03,1.98440e+01
5.23651e-03,1.89844e+01
5.29609e-03,1.81617e+01
5.35634e-03,1.73744e+01
5.41728e-03,1.66208e+01
5.47891e-03,1.58996e+01
5.54124e-03,1.52094e+01
5.60428e-03,1.45488e+01
5.66804e-03,1.39167e+01
5.73252e-03,1.33117e+01
5.79774e-03,1.27328e+01
5.86370e-03,1.21788e+01
5.93041e-03,1.16487e+01
5.99788e-03,1.11414e+01
6.06611e-03,1.06559e+01
6.13513e-03,1.01915e+01
6.20492e-03,9.74700e+00
6.27552e-03,9.32173e+00
6.34691e-03,8.91481e+00
6.41912e-03,8.52547e+00
6.49215e-03,8.15294e+00
6.56600e-03,7.79652e+00
6.64070e-03,7.45550e+00
6.71625e-03,7.12922e+00
6.79266e-03,6.81706e+00
6.86994e-03,6.51841e+00
6.94810e-03,6.23268e+00
7.02715e-03,5.95933e+00
7.10709e-03,5.69781e+00
7.18795e-03,5.44762e+00
7.26972e-03,5.20828e+00
7.35243e-03,4.97931e+00
7.43607e-03,4.76026e+00
7.52067e-03,4.55072e+00
7.60623e-03,4.35027e+00
7.69277e-03,4.15851e+00
7.78028e-03,3.97508e+00
7.86880e-03,3.79961e+00
7.95832e-03,3.63176e+00
8.04886e-03,3.47121e+00
8.14043e-03,3.31762e+00
8.23304e-03,3.17072e+00
8.32671e-03,3.03020e+00
8.42144e-03,2.89578e+00
8.51724e-03,2.76722e+00
8.61414e-03,2.64424e+00
8.71214e-03,2.52662e+00
8.81126e-03,2.41412e+00
8.91150e-03,2.30651e+00
9.01289e-03,2.20358e+00
9.11542e-03,2.10514e+00
9.21913e-03,2.01099e+00
9.32401e-03,1.92093e+00
9.43009e-03,1.83480e+00
9.53737e-03,1.75243e+00
9.64587e-03,1.67364e+00
9.75561e-03,1.59829e+00
9.86660e-03,1.52622e+00
9.97885e-03,1.45730e+00
1.00924e-02,1.39138e+00
1.02072e-02,1.32834e+00
1.03233e-02,1.26805e+00
1.04408e-02,1.21039e+00
1.05595e-02,1.15525e+00
1.06797e-02,1.10251e+00
1.08012e-02,1.05208e+00
1.09241e-02,1.00384e+00
1.10483e-02,9.57719e-01
1.11740e-02,9.13608e-01
1.13012e-02,8.71424e-01
1.14297e-02,8.31083e-01
1.15598e-02,7.92505e-01
1.16913e-02,7.55613e-01
1.18243e-02,7.20333e-01
1.19588e-02,6.86595e-01
1.20949e-02,6.54333e-01
1.22325e-02,6.23481e-01
1.23716e-02,5.93978e-01
1.25124e-02,5.65766e-01
1.26547e-02,5.38787e-01
1.27987e-02,5.12989e-01
1.29443e-02,4.88319e-01
1.30916e-02,4.64729e-01
1.32405e-02,4.42172e-01
1.33911e-02,4.20601e-01
1.35435e-02,3.99975e-01
1.36976e-02,3.80251e-01
1.38534e-02,3.61391e-01
1.40110e-02,3.43357e-01
1.41704e-02,3.26112e-01
1.43316e-02,3.09623e-01
1.44947e-02,2.93856e-01
1.46596e-02,2.78779e-01
1.48263e-02,2.64363e-01
1.49950e-02,2.50579e-01
1.51656e-02,2.37398e-01
1.53381e-02,2.24795e-01
1.55126e-02,2.12744e-01
1.56891e-02,2.01221e-01
1.58676e-02,1.90204e-01
1.60481e-02,1.79669e-01
1.62307e-02,1.69596e-01
1.64154e-02,1.59964e-01
1.66021e-02,1.50755e-01
1.67910e-02,1.41950e-01
1.69820e-02,1.33530e-01
1.71752e-02,1.25480e-01
1.73706e-02,1.17783e-01
1.75682e-02,1.10424e-01
1.77681e-02,1.03387e-01
1.79702e-02,9.66587e-02
1.81747e-02,9.02257e-02
1.83815e-02,8.40750e-02
1.85906e-02,7.81941e-02
1.88021e-02,7.25712e-02
1.90160e-02,6.71951e-02
1.92323e-02,6.20548e-02
1.94511e-02,5.71401e-02
1.96724e-02,5.24411e-02
1.98962e-02,4.79483e-02
2.01226e-02,4.36527e-02
2.03515e-02,3.95456e-02
2.05830e-02,3.56189e-02
2.08172e-02,3.18644e-02
2.10540e-02,2.82749e-02
2.12936e-02,2.48429e-02
2.15358e-02,2.15615e-02
2.17808e-02,1.84243e-02
2.20286e-02,1.54248e-02
2.22792e-02,1.25570e-02
2.25327e-02,9.81509e-03
2.27890e-02,7.19363e-03
2.30483e-02,4.68729e-03
2.33105e-02,2.29102e-03
2.35757e-02,0.00000e+00
