m1=1612.321, m2=4.632, gsp=2.446, rhosp=444.127
fGW[Hz],dPh[rad]
1.13094e-02,1.63522e+05
1.16255e-02,1.54540e+05
1.19505e-02,1.46050e+05
1.22846e-02,1.38024e+05
1.26280e-02,1.30438e+05
1.29811e-02,1.23266e+05
1.33439e-02,1.16487e+05
1.37170e-02,1.10079e+05
1.41005e-02,1.04022e+05
1.44946e-02,9.82960e+04
1.48998e-02,9.28837e+04
1.53164e-02,8.77678e+04
1.57446e-02,8.29320e+04
1.61847e-02,7.83611e+04
1.66372e-02,7.40405e+04
1.71023e-02,6.99566e+04
1.75804e-02,6.60965e+04
1.80718e-02,6.24479e+04
1.85770e-02,5.89993e+04
1.90964e-02,5.57397e+04
1.96302e-02,5.26588e+04
2.01790e-02,4.97468e+04
2.07431e-02,4.69946e+04
2.13230e-02,4.43933e+04
2.19191e-02,4.19348e+04
2.25318e-02,3.96112e+04
2.31617e-02,3.74151e+04
2.38092e-02,3.53396e+04
2.44748e-02,3.33780e+04
2.51590e-02,3.15242e+04
2.58624e-02,2.97723e+04
2.65854e-02,2.81167e+04
2.73286e-02,2.65520e+04
2.80926e-02,2.50734e+04
2.88779e-02,2.36761e+04
2.96852e-02,2.23558e+04
3.05151e-02,2.11080e+04
3.13682e-02,1.99290e+04
3.22451e-02,1.88149e+04
3.31465e-02,1.77622e+04
3.40731e-02,1.67676e+04
3.50257e-02,1.58277e+04
3.60048e-02,1.49398e+04
3.70114e-02,1.41008e+04
3.80460e-02,1.33081e+04
3.91096e-02,1.25592e+04
4.02030e-02,1.18518e+04
4.13269e-02,1.11834e+04
4.24822e-02,1.05520e+04
4.36698e-02,9.95555e+03
4.48906e-02,9.39214e+03
4.61455e-02,8.85995e+03
4.74356e-02,8.35727e+03
4.87616e-02,7.88247e+03
5.01248e-02,7.43404e+03
5.15261e-02,7.01052e+03
5.29665e-02,6.61055e+03
5.44472e-02,6.23283e+03
5.59693e-02,5.87615e+03
5.75340e-02,5.53934e+03
5.91424e-02,5.22132e+03
6.07957e-02,4.92104e+03
6.24953e-02,4.63755e+03
6.42424e-02,4.36991e+03
6.60383e-02,4.11725e+03
6.78845e-02,3.87875e+03
6.97822e-02,3.65362e+03
7.17330e-02,3.44114e+03
7.37384e-02,3.24060e+03
7.57998e-02,3.05135e+03
7.79188e-02,2.87276e+03
8.00970e-02,2.70425e+03
8.23362e-02,2.54526e+03
8.46380e-02,2.39526e+03
8.70041e-02,2.25377e+03
8.94363e-02,2.12029e+03
9.19365e-02,1.99441e+03
9.45067e-02,1.87568e+03
9.71487e-02,1.76373e+03
9.98645e-02,1.65816e+03
1.02656e-01,1.55864e+03
1.05526e-01,1.46482e+03
1.08476e-01,1.37638e+03
1.11509e-01,1.29303e+03
1.14626e-01,1.21448e+03
1.17830e-01,1.14047e+03
1.21124e-01,1.07075e+03
1.24510e-01,1.00507e+03
1.27991e-01,9.43205e+02
1.31569e-01,8.84949e+02
1.35247e-01,8.30096e+02
1.39028e-01,7.78455e+02
1.42915e-01,7.29848e+02
1.46910e-01,6.84103e+02
1.51017e-01,6.41059e+02
1.55239e-01,6.00565e+02
1.59579e-01,5.62475e+02
1.64040e-01,5.26656e+02
1.68626e-01,4.92977e+02
1.73340e-01,4.61318e+02
1.78185e-01,4.31564e+02
1.83167e-01,4.03607e+02
1.88287e-01,3.77343e+02
1.93551e-01,3.52677e+02
1.98962e-01,3.29517e+02
2.04524e-01,3.07776e+02
2.10241e-01,2.87372e+02
2.16119e-01,2.68229e+02
2.22161e-01,2.50274e+02
2.28371e-01,2.33437e+02
2.34755e-01,2.17654e+02
2.41318e-01,2.02864e+02
2.48064e-01,1.89007e+02
2.54999e-01,1.76029e+02
2.62128e-01,1.63879e+02
2.69456e-01,1.52508e+02
2.76989e-01,1.41868e+02
2.84732e-01,1.31918e+02
2.92692e-01,1.22614e+02
3.00874e-01,1.13919e+02
3.09285e-01,1.05796e+02
3.17931e-01,9.82104e+01
3.26819e-01,9.11290e+01
3.35956e-01,8.45210e+01
3.45348e-01,7.83575e+01
3.55002e-01,7.26110e+01
3.64926e-01,6.72555e+01
3.75128e-01,6.22667e+01
3.85615e-01,5.76214e+01
3.96395e-01,5.32980e+01
4.07476e-01,4.92760e+01
4.18868e-01,4.55361e+01
4.30577e-01,4.20602e+01
4.42614e-01,3.88312e+01
4.54988e-01,3.58330e+01
4.67707e-01,3.30505e+01
4.80782e-01,3.04694e+01
4.94223e-01,2.80763e+01
5.08039e-01,2.58586e+01
5.22242e-01,2.38046e+01
5.36841e-01,2.19031e+01
5.51849e-01,2.01437e+01
5.67276e-01,1.85165e+01
5.83135e-01,1.70125e+01
5.99437e-01,1.56230e+01
6.16194e-01,1.43399e+01
6.33420e-01,1.31558e+01
6.51128e-01,1.20635e+01
6.69330e-01,1.10565e+01
6.88042e-01,1.01285e+01
7.07277e-01,9.27381e+00
7.27049e-01,8.48701e+00
7.47374e-01,7.76309e+00
7.68267e-01,7.09734e+00
7.89745e-01,6.48540e+00
8.11822e-01,5.92318e+00
8.34517e-01,5.40691e+00
8.57847e-01,4.93306e+00
8.81828e-01,4.49833e+00
9.06480e-01,4.09970e+00
9.31821e-01,3.73433e+00
9.57871e-01,3.39960e+00
9.84649e-01,3.09307e+00
1.01218e+00,2.81249e+00
1.04047e+00,2.55578e+00
1.06956e+00,2.32101e+00
1.09946e+00,2.10638e+00
1.13019e+00,1.91026e+00
1.16179e+00,1.73111e+00
1.19427e+00,1.56753e+00
1.22765e+00,1.41823e+00
1.26197e+00,1.28201e+00
1.29725e+00,1.15776e+00
1.33352e+00,1.04448e+00
1.37080e+00,9.41233e-01
1.40912e+00,8.47161e-01
1.44851e+00,7.61478e-01
1.48901e+00,6.83460e-01
1.53063e+00,6.12443e-01
1.57342e+00,5.47818e-01
1.61741e+00,4.89028e-01
1.66262e+00,4.35560e-01
1.70910e+00,3.86945e-01
1.75688e+00,3.42756e-01
1.80600e+00,3.02599e-01
1.85648e+00,2.66116e-01
1.90838e+00,2.32978e-01
1.96173e+00,2.02885e-01
2.01657e+00,1.75565e-01
2.07295e+00,1.50766e-01
2.13090e+00,1.28261e-01
2.19047e+00,1.07842e-01
2.25171e+00,8.93184e-02
2.31465e+00,7.25184e-02
2.37936e+00,5.72839e-02
2.44588e+00,4.34715e-02
2.51425e+00,3.09506e-02
2.58454e+00,1.96022e-02
2.65679e+00,9.31815e-03
2.73106e+00,0.00000e+00
