m1=436910.375, m2=88.875, gsp=2.444, rhosp=8805.277
fGW[Hz],dPh[rad]
9.20303e-04,1.28609e+05
9.31433e-04,1.23708e+05
9.42697e-04,1.18984e+05
9.54097e-04,1.14432e+05
9.65635e-04,1.10046e+05
9.77313e-04,1.05820e+05
9.89131e-04,1.01750e+05
1.00109e-03,9.78281e+04
1.01320e-03,9.40510e+04
1.02545e-03,9.04132e+04
1.03785e-03,8.69100e+04
1.05040e-03,8.35365e+04
1.06311e-03,8.02884e+04
1.07596e-03,7.71612e+04
1.08898e-03,7.41507e+04
1.10214e-03,7.12528e+04
1.11547e-03,6.84635e+04
1.12896e-03,6.57790e+04
1.14262e-03,6.31956e+04
1.15643e-03,6.07096e+04
1.17042e-03,5.83175e+04
1.18457e-03,5.60161e+04
1.19890e-03,5.38021e+04
1.21340e-03,5.16723e+04
1.22807e-03,4.96237e+04
1.24292e-03,4.76533e+04
1.25795e-03,4.57583e+04
1.27317e-03,4.39360e+04
1.28856e-03,4.21838e+04
1.30414e-03,4.04989e+04
1.31992e-03,3.88791e+04
1.33588e-03,3.73219e+04
1.35203e-03,3.58249e+04
1.36838e-03,3.43860e+04
1.38493e-03,3.30031e+04
1.40168e-03,3.16739e+04
1.41863e-03,3.03966e+04
1.43579e-03,2.91692e+04
1.45315e-03,2.79899e+04
1.47072e-03,2.68567e+04
1.48851e-03,2.57681e+04
1.50651e-03,2.47223e+04
1.52473e-03,2.37176e+04
1.54317e-03,2.27527e+04
1.56183e-03,2.18259e+04
1.58072e-03,2.09357e+04
1.59983e-03,2.00809e+04
1.61918e-03,1.92600e+04
1.63876e-03,1.84717e+04
1.65858e-03,1.77149e+04
1.67864e-03,1.69883e+04
1.69894e-03,1.62906e+04
1.71948e-03,1.56209e+04
1.74028e-03,1.49781e+04
1.76132e-03,1.43610e+04
1.78262e-03,1.37687e+04
1.80418e-03,1.32002e+04
1.82600e-03,1.26547e+04
1.84808e-03,1.21311e+04
1.87043e-03,1.16287e+04
1.89305e-03,1.11467e+04
1.91594e-03,1.06841e+04
1.93911e-03,1.02403e+04
1.96256e-03,9.81454e+03
1.98629e-03,9.40607e+03
2.01031e-03,9.01422e+03
2.03463e-03,8.63834e+03
2.05923e-03,8.27779e+03
2.08413e-03,7.93196e+03
2.10934e-03,7.60028e+03
2.13485e-03,7.28217e+03
2.16066e-03,6.97709e+03
2.18679e-03,6.68453e+03
2.21324e-03,6.40398e+03
2.24000e-03,6.13497e+03
2.26709e-03,5.87702e+03
2.29451e-03,5.62970e+03
2.32226e-03,5.39258e+03
2.35034e-03,5.16524e+03
2.37876e-03,4.94729e+03
2.40753e-03,4.73836e+03
2.43664e-03,4.53807e+03
2.46611e-03,4.34608e+03
2.49594e-03,4.16205e+03
2.52612e-03,3.98566e+03
2.55667e-03,3.81660e+03
2.58759e-03,3.65456e+03
2.61888e-03,3.49926e+03
2.65055e-03,3.35044e+03
2.68260e-03,3.20781e+03
2.71504e-03,3.07113e+03
2.74788e-03,2.94016e+03
2.78111e-03,2.81466e+03
2.81474e-03,2.69441e+03
2.84878e-03,2.57918e+03
2.88323e-03,2.46878e+03
2.91810e-03,2.36301e+03
2.95339e-03,2.26167e+03
2.98910e-03,2.16459e+03
3.02525e-03,2.07158e+03
3.06184e-03,1.98248e+03
3.09886e-03,1.89712e+03
3.13634e-03,1.81535e+03
3.17427e-03,1.73703e+03
3.21265e-03,1.66201e+03
3.25151e-03,1.59015e+03
3.29083e-03,1.52132e+03
3.33062e-03,1.45539e+03
3.37090e-03,1.39225e+03
3.41167e-03,1.33177e+03
3.45292e-03,1.27385e+03
3.49468e-03,1.21839e+03
3.53694e-03,1.16527e+03
3.57972e-03,1.11439e+03
3.62301e-03,1.06568e+03
3.66682e-03,1.01903e+03
3.71116e-03,9.74354e+02
3.75604e-03,9.31576e+02
3.80147e-03,8.90615e+02
3.84744e-03,8.51393e+02
3.89397e-03,8.13838e+02
3.94106e-03,7.77879e+02
3.98872e-03,7.43450e+02
4.03695e-03,7.10486e+02
4.08577e-03,6.78925e+02
4.13518e-03,6.48707e+02
4.18519e-03,6.19778e+02
4.23580e-03,5.92081e+02
4.28703e-03,5.65566e+02
4.33887e-03,5.40181e+02
4.39134e-03,5.15880e+02
4.44445e-03,4.92616e+02
4.49819e-03,4.70345e+02
4.55259e-03,4.49027e+02
4.60765e-03,4.28619e+02
4.66337e-03,4.09083e+02
4.71976e-03,3.90384e+02
4.77684e-03,3.72484e+02
4.83461e-03,3.55350e+02
4.89307e-03,3.38950e+02
4.95225e-03,3.23252e+02
5.01214e-03,3.08227e+02
5.07275e-03,2.93845e+02
5.13409e-03,2.80080e+02
5.19618e-03,2.66906e+02
5.25902e-03,2.54296e+02
5.32262e-03,2.42227e+02
5.38699e-03,2.30677e+02
5.45213e-03,2.19622e+02
5.51807e-03,2.09041e+02
5.58480e-03,1.98916e+02
5.65234e-03,1.89225e+02
5.72069e-03,1.79951e+02
5.78987e-03,1.71075e+02
5.85989e-03,1.62581e+02
5.93075e-03,1.54453e+02
6.00248e-03,1.46674e+02
6.07507e-03,1.39229e+02
6.14853e-03,1.32105e+02
6.22289e-03,1.25288e+02
6.29814e-03,1.18764e+02
6.37431e-03,1.12522e+02
6.45139e-03,1.06548e+02
6.52941e-03,1.00831e+02
6.60837e-03,9.53612e+01
6.68829e-03,9.01269e+01
6.76917e-03,8.51182e+01
6.85103e-03,8.03255e+01
6.93388e-03,7.57394e+01
7.01774e-03,7.13512e+01
7.10260e-03,6.71523e+01
7.18850e-03,6.31346e+01
7.27543e-03,5.92903e+01
7.36341e-03,5.56120e+01
7.45246e-03,5.20924e+01
7.54258e-03,4.87248e+01
7.63380e-03,4.55027e+01
7.72612e-03,4.24197e+01
7.81955e-03,3.94700e+01
7.91411e-03,3.66476e+01
8.00982e-03,3.39473e+01
8.10668e-03,3.13637e+01
8.20472e-03,2.88917e+01
8.30394e-03,2.65266e+01
8.40436e-03,2.42638e+01
8.50600e-03,2.20988e+01
8.60886e-03,2.00275e+01
8.71297e-03,1.80458e+01
8.81834e-03,1.61498e+01
8.92498e-03,1.43359e+01
9.03291e-03,1.26004e+01
9.14215e-03,1.09401e+01
9.25271e-03,9.35159e+00
9.36460e-03,7.83187e+00
9.47785e-03,6.37795e+00
9.59247e-03,4.98699e+00
9.70847e-03,3.65626e+00
9.82588e-03,2.38316e+00
9.94470e-03,1.16520e+00
1.00650e-02,0.00000e+00
