m1=104310.141, m2=15.474, gsp=2.185, rhosp=572.194
fGW[Hz],dPh[rad]
2.53592e-03,3.29433e+03
2.57199e-03,3.14802e+03
2.60858e-03,3.00786e+03
2.64569e-03,2.87360e+03
2.68332e-03,2.74500e+03
2.72149e-03,2.62186e+03
2.76021e-03,2.50394e+03
2.79947e-03,2.39105e+03
2.83929e-03,2.28298e+03
2.87968e-03,2.17954e+03
2.92064e-03,2.08055e+03
2.96219e-03,1.98583e+03
3.00433e-03,1.89520e+03
3.04706e-03,1.80851e+03
3.09041e-03,1.72558e+03
3.13437e-03,1.64628e+03
3.17896e-03,1.57044e+03
3.22418e-03,1.49793e+03
3.27004e-03,1.42861e+03
3.31656e-03,1.36235e+03
3.36374e-03,1.29902e+03
3.41159e-03,1.23850e+03
3.46012e-03,1.18068e+03
3.50934e-03,1.12543e+03
3.55926e-03,1.07266e+03
3.60989e-03,1.02226e+03
3.66124e-03,9.74118e+02
3.71332e-03,9.28151e+02
3.76614e-03,8.84263e+02
3.81971e-03,8.42365e+02
3.87405e-03,8.02371e+02
3.92916e-03,7.64201e+02
3.98505e-03,7.27775e+02
4.04174e-03,6.93017e+02
4.09923e-03,6.59856e+02
4.15754e-03,6.28221e+02
4.21668e-03,5.98047e+02
4.27667e-03,5.69268e+02
4.33750e-03,5.41824e+02
4.39920e-03,5.15656e+02
4.46178e-03,4.90708e+02
4.52525e-03,4.66924e+02
4.58962e-03,4.44254e+02
4.65491e-03,4.22647e+02
4.72113e-03,4.02056e+02
4.78829e-03,3.82436e+02
4.85640e-03,3.63742e+02
4.92548e-03,3.45934e+02
4.99555e-03,3.28970e+02
5.06661e-03,3.12812e+02
5.13868e-03,2.97424e+02
5.21178e-03,2.82770e+02
5.28592e-03,2.68817e+02
5.36111e-03,2.55533e+02
5.43737e-03,2.42887e+02
5.51472e-03,2.30849e+02
5.59317e-03,2.19391e+02
5.67273e-03,2.08487e+02
5.75342e-03,1.98110e+02
5.83527e-03,1.88236e+02
5.91827e-03,1.78842e+02
6.00246e-03,1.69904e+02
6.08785e-03,1.61402e+02
6.17445e-03,1.53315e+02
6.26228e-03,1.45624e+02
6.35136e-03,1.38309e+02
6.44171e-03,1.31353e+02
6.53334e-03,1.24739e+02
6.62628e-03,1.18450e+02
6.72054e-03,1.12472e+02
6.81614e-03,1.06788e+02
6.91310e-03,1.01386e+02
7.01143e-03,9.62510e+01
7.11117e-03,9.13707e+01
7.21233e-03,8.67328e+01
7.31492e-03,8.23255e+01
7.41898e-03,7.81378e+01
7.52451e-03,7.41588e+01
7.63155e-03,7.03786e+01
7.74011e-03,6.67874e+01
7.85021e-03,6.33760e+01
7.96188e-03,6.01356e+01
8.07514e-03,5.70578e+01
8.19001e-03,5.41348e+01
8.30651e-03,5.13588e+01
8.42467e-03,4.87226e+01
8.54452e-03,4.62194e+01
8.66606e-03,4.38426e+01
8.78934e-03,4.15860e+01
8.91437e-03,3.94435e+01
9.04117e-03,3.74096e+01
9.16978e-03,3.54788e+01
9.30022e-03,3.36461e+01
9.43252e-03,3.19065e+01
9.56670e-03,3.02554e+01
9.70278e-03,2.86883e+01
9.84081e-03,2.72011e+01
9.98079e-03,2.57898e+01
1.01228e-02,2.44506e+01
1.02668e-02,2.31798e+01
1.04128e-02,2.19740e+01
1.05609e-02,2.08300e+01
1.07112e-02,1.97446e+01
1.08635e-02,1.87148e+01
1.10181e-02,1.77379e+01
1.11748e-02,1.68112e+01
1.13338e-02,1.59321e+01
1.14950e-02,1.50983e+01
1.16585e-02,1.43074e+01
1.18243e-02,1.35572e+01
1.19925e-02,1.28458e+01
1.21631e-02,1.21710e+01
1.23362e-02,1.15311e+01
1.25116e-02,1.09243e+01
1.26896e-02,1.03488e+01
1.28701e-02,9.80312e+00
1.30532e-02,9.28569e+00
1.32389e-02,8.79507e+00
1.34272e-02,8.32988e+00
1.36182e-02,7.88882e+00
1.38119e-02,7.47065e+00
1.40084e-02,7.07420e+00
1.42077e-02,6.69835e+00
1.44098e-02,6.34204e+00
1.46148e-02,6.00426e+00
1.48227e-02,5.68407e+00
1.50335e-02,5.38055e+00
1.52474e-02,5.09284e+00
1.54643e-02,4.82014e+00
1.56842e-02,4.56165e+00
1.59073e-02,4.31665e+00
1.61336e-02,4.08444e+00
1.63631e-02,3.86436e+00
1.65959e-02,3.65577e+00
1.68320e-02,3.45809e+00
1.70714e-02,3.27075e+00
1.73143e-02,3.09321e+00
1.75605e-02,2.92496e+00
1.78103e-02,2.76552e+00
1.80637e-02,2.61443e+00
1.83207e-02,2.47126e+00
1.85813e-02,2.33559e+00
1.88456e-02,2.20704e+00
1.91137e-02,2.08523e+00
1.93856e-02,1.96982e+00
1.96613e-02,1.86046e+00
1.99410e-02,1.75684e+00
2.02247e-02,1.65867e+00
2.05124e-02,1.56566e+00
2.08041e-02,1.47753e+00
2.11001e-02,1.39404e+00
2.14002e-02,1.31494e+00
2.17047e-02,1.24000e+00
2.20134e-02,1.16901e+00
2.23265e-02,1.10175e+00
2.26441e-02,1.03803e+00
2.29663e-02,9.77670e-01
2.32930e-02,9.20490e-01
2.36243e-02,8.66322e-01
2.39604e-02,8.15010e-01
2.43012e-02,7.66403e-01
2.46469e-02,7.20359e-01
2.49975e-02,6.76744e-01
2.53531e-02,6.35430e-01
2.57137e-02,5.96296e-01
2.60795e-02,5.59228e-01
2.64505e-02,5.24117e-01
2.68267e-02,4.90860e-01
2.72083e-02,4.59359e-01
2.75954e-02,4.29523e-01
2.79879e-02,4.01263e-01
2.83861e-02,3.74496e-01
2.87899e-02,3.49145e-01
2.91994e-02,3.25133e-01
2.96148e-02,3.02391e-01
3.00360e-02,2.80852e-01
3.04633e-02,2.60453e-01
3.08966e-02,2.41132e-01
3.13361e-02,2.22834e-01
3.17819e-02,2.05504e-01
3.22340e-02,1.89091e-01
3.26925e-02,1.73547e-01
3.31576e-02,1.58827e-01
3.36292e-02,1.44885e-01
3.41076e-02,1.31682e-01
3.45928e-02,1.19179e-01
3.50849e-02,1.07337e-01
3.55840e-02,9.61236e-02
3.60901e-02,8.55039e-02
3.66035e-02,7.54470e-02
3.71242e-02,6.59232e-02
3.76523e-02,5.69042e-02
3.81879e-02,4.83633e-02
3.87311e-02,4.02753e-02
3.92821e-02,3.26162e-02
3.98409e-02,2.53632e-02
4.04076e-02,1.84950e-02
4.09824e-02,1.19910e-02
4.15654e-02,5.83214e-03
4.21567e-02,0.00000e+00
