m1=104770.256, m2=10.448, gsp=2.387, rhosp=1721.186
fGW[Hz],dPh[rad]
2.93512e-03,1.33819e+05
2.97462e-03,1.28048e+05
3.01465e-03,1.22515e+05
3.05522e-03,1.17211e+05
3.09634e-03,1.12126e+05
3.13801e-03,1.07253e+05
3.18024e-03,1.02583e+05
3.22304e-03,9.81069e+04
3.26641e-03,9.38185e+04
3.31037e-03,8.97100e+04
3.35492e-03,8.57743e+04
3.40007e-03,8.20044e+04
3.44583e-03,7.83937e+04
3.49220e-03,7.49360e+04
3.53920e-03,7.16250e+04
3.58683e-03,6.84548e+04
3.63510e-03,6.54198e+04
3.68402e-03,6.25145e+04
3.73359e-03,5.97336e+04
3.78384e-03,5.70721e+04
3.83476e-03,5.45251e+04
3.88637e-03,5.20879e+04
3.93867e-03,4.97559e+04
3.99168e-03,4.75249e+04
4.04539e-03,4.53907e+04
4.09984e-03,4.33493e+04
4.15501e-03,4.13967e+04
4.21093e-03,3.95294e+04
4.26760e-03,3.77438e+04
4.32503e-03,3.60363e+04
4.38323e-03,3.44039e+04
4.44222e-03,3.28432e+04
4.50200e-03,3.13513e+04
4.56259e-03,2.99252e+04
4.62399e-03,2.85622e+04
4.68622e-03,2.72596e+04
4.74929e-03,2.60148e+04
4.81320e-03,2.48253e+04
4.87797e-03,2.36888e+04
4.94362e-03,2.26030e+04
5.01015e-03,2.15658e+04
5.07758e-03,2.05749e+04
5.14591e-03,1.96284e+04
5.21516e-03,1.87245e+04
5.28534e-03,1.78612e+04
5.35647e-03,1.70368e+04
5.42856e-03,1.62495e+04
5.50161e-03,1.54978e+04
5.57565e-03,1.47802e+04
5.65069e-03,1.40950e+04
5.72673e-03,1.34409e+04
5.80380e-03,1.28165e+04
5.88191e-03,1.22206e+04
5.96106e-03,1.16518e+04
6.04129e-03,1.11089e+04
6.12259e-03,1.05908e+04
6.20498e-03,1.00964e+04
6.28849e-03,9.62469e+03
6.37312e-03,9.17458e+03
6.45888e-03,8.74512e+03
6.54581e-03,8.33540e+03
6.63390e-03,7.94454e+03
6.72317e-03,7.57167e+03
6.81365e-03,7.21601e+03
6.90535e-03,6.87676e+03
6.99828e-03,6.55319e+03
7.09246e-03,6.24460e+03
7.18791e-03,5.95030e+03
7.28464e-03,5.66964e+03
7.38267e-03,5.40201e+03
7.48203e-03,5.14682e+03
7.58272e-03,4.90349e+03
7.68476e-03,4.67149e+03
7.78818e-03,4.45030e+03
7.89299e-03,4.23942e+03
7.99922e-03,4.03839e+03
8.10687e-03,3.84675e+03
8.21597e-03,3.66408e+03
8.32653e-03,3.48995e+03
8.43859e-03,3.32398e+03
8.55215e-03,3.16579e+03
8.66725e-03,3.01502e+03
8.78389e-03,2.87134e+03
8.90210e-03,2.73440e+03
9.02190e-03,2.60391e+03
9.14331e-03,2.47956e+03
9.26636e-03,2.36107e+03
9.39107e-03,2.24816e+03
9.51745e-03,2.14058e+03
9.64553e-03,2.03807e+03
9.77534e-03,1.94041e+03
9.90689e-03,1.84736e+03
1.00402e-02,1.75872e+03
1.01753e-02,1.67427e+03
1.03123e-02,1.59382e+03
1.04510e-02,1.51718e+03
1.05917e-02,1.44418e+03
1.07342e-02,1.37464e+03
1.08787e-02,1.30840e+03
1.10251e-02,1.24531e+03
1.11735e-02,1.18521e+03
1.13238e-02,1.12798e+03
1.14762e-02,1.07347e+03
1.16307e-02,1.02155e+03
1.17872e-02,9.72105e+02
1.19458e-02,9.25017e+02
1.21066e-02,8.80174e+02
1.22695e-02,8.37470e+02
1.24346e-02,7.96804e+02
1.26020e-02,7.58080e+02
1.27716e-02,7.21206e+02
1.29434e-02,6.86093e+02
1.31176e-02,6.52660e+02
1.32942e-02,6.20826e+02
1.34731e-02,5.90515e+02
1.36544e-02,5.61655e+02
1.38381e-02,5.34177e+02
1.40244e-02,5.08016e+02
1.42131e-02,4.83108e+02
1.44044e-02,4.59395e+02
1.45982e-02,4.36819e+02
1.47947e-02,4.15327e+02
1.49938e-02,3.94866e+02
1.51956e-02,3.75388e+02
1.54001e-02,3.56845e+02
1.56073e-02,3.39193e+02
1.58174e-02,3.22390e+02
1.60302e-02,3.06394e+02
1.62460e-02,2.91168e+02
1.64646e-02,2.76674e+02
1.66862e-02,2.62878e+02
1.69107e-02,2.49746e+02
1.71383e-02,2.37247e+02
1.73689e-02,2.25349e+02
1.76027e-02,2.14025e+02
1.78396e-02,2.03247e+02
1.80797e-02,1.92988e+02
1.83230e-02,1.83223e+02
1.85696e-02,1.73930e+02
1.88195e-02,1.65085e+02
1.90727e-02,1.56667e+02
1.93294e-02,1.48655e+02
1.95895e-02,1.41030e+02
1.98532e-02,1.33773e+02
2.01203e-02,1.26867e+02
2.03911e-02,1.20294e+02
2.06655e-02,1.14039e+02
2.09436e-02,1.08087e+02
2.12255e-02,1.02422e+02
2.15111e-02,9.70307e+01
2.18006e-02,9.19004e+01
2.20940e-02,8.70182e+01
2.23913e-02,8.23722e+01
2.26927e-02,7.79510e+01
2.29981e-02,7.37438e+01
2.33076e-02,6.97403e+01
2.36212e-02,6.59306e+01
2.39391e-02,6.23054e+01
2.42613e-02,5.88557e+01
2.45878e-02,5.55731e+01
2.49187e-02,5.24496e+01
2.52540e-02,4.94774e+01
2.55939e-02,4.66492e+01
2.59383e-02,4.39581e+01
2.62874e-02,4.13975e+01
2.66412e-02,3.89610e+01
2.69997e-02,3.66427e+01
2.73630e-02,3.44368e+01
2.77313e-02,3.23379e+01
2.81045e-02,3.03407e+01
2.84827e-02,2.84405e+01
2.88660e-02,2.66325e+01
2.92545e-02,2.49122e+01
2.96482e-02,2.32754e+01
3.00472e-02,2.17181e+01
3.04515e-02,2.02364e+01
3.08614e-02,1.88266e+01
3.12767e-02,1.74852e+01
3.16976e-02,1.62090e+01
3.21242e-02,1.49947e+01
3.25565e-02,1.38395e+01
3.29946e-02,1.27403e+01
3.34386e-02,1.16946e+01
3.38887e-02,1.06997e+01
3.43447e-02,9.75305e+00
3.48069e-02,8.85245e+00
3.52753e-02,7.99562e+00
3.57501e-02,7.18043e+00
3.62312e-02,6.40486e+00
3.67188e-02,5.66700e+00
3.72129e-02,4.96500e+00
3.77137e-02,4.29714e+00
3.82213e-02,3.66175e+00
3.87356e-02,3.05725e+00
3.92569e-02,2.48216e+00
3.97852e-02,1.93503e+00
4.03206e-02,1.41451e+00
4.08633e-02,9.19306e-01
4.14132e-02,4.48194e-01
4.19705e-02,0.00000e+00
