m1=1336.211, m2=21.869, gsp=2.192, rhosp=116.072
fGW[Hz],dPh[rad]
6.63423e-03,1.66162e+02
6.84469e-03,1.55096e+02
7.06182e-03,1.44767e+02
7.28584e-03,1.35126e+02
7.51696e-03,1.26126e+02
7.75542e-03,1.17726e+02
8.00144e-03,1.09885e+02
8.25527e-03,1.02565e+02
8.51714e-03,9.57335e+01
8.78733e-03,8.93565e+01
9.06609e-03,8.34039e+01
9.35369e-03,7.78477e+01
9.65041e-03,7.26614e+01
9.95654e-03,6.78204e+01
1.02724e-02,6.33017e+01
1.05983e-02,5.90839e+01
1.09345e-02,5.51469e+01
1.12813e-02,5.14720e+01
1.16392e-02,4.80419e+01
1.20084e-02,4.48401e+01
1.23894e-02,4.18515e+01
1.27824e-02,3.90620e+01
1.31879e-02,3.64582e+01
1.36062e-02,3.40278e+01
1.40379e-02,3.17592e+01
1.44832e-02,2.96417e+01
1.49426e-02,2.76653e+01
1.54166e-02,2.58205e+01
1.59057e-02,2.40985e+01
1.64103e-02,2.24912e+01
1.69308e-02,2.09910e+01
1.74679e-02,1.95908e+01
1.80220e-02,1.82837e+01
1.85937e-02,1.70638e+01
1.91836e-02,1.59251e+01
1.97921e-02,1.48623e+01
2.04200e-02,1.38703e+01
2.10678e-02,1.29444e+01
2.17361e-02,1.20802e+01
2.24256e-02,1.12736e+01
2.31370e-02,1.05207e+01
2.38710e-02,9.81796e+00
2.46282e-02,9.16209e+00
2.54095e-02,8.54992e+00
2.62155e-02,7.97856e+00
2.70472e-02,7.44529e+00
2.79052e-02,6.94756e+00
2.87904e-02,6.48302e+00
2.97037e-02,6.04945e+00
3.06460e-02,5.64479e+00
3.16181e-02,5.26711e+00
3.26212e-02,4.91462e+00
3.36560e-02,4.58565e+00
3.47236e-02,4.27861e+00
3.58252e-02,3.99206e+00
3.69616e-02,3.72463e+00
3.81341e-02,3.47504e+00
3.93438e-02,3.24210e+00
4.05919e-02,3.02472e+00
4.18796e-02,2.82184e+00
4.32081e-02,2.63251e+00
4.45788e-02,2.45582e+00
4.59930e-02,2.29093e+00
4.74520e-02,2.13705e+00
4.89573e-02,1.99345e+00
5.05103e-02,1.85945e+00
5.21126e-02,1.73440e+00
5.37658e-02,1.61770e+00
5.54714e-02,1.50881e+00
5.72311e-02,1.40720e+00
5.90466e-02,1.31239e+00
6.09197e-02,1.22392e+00
6.28522e-02,1.14136e+00
6.48460e-02,1.06433e+00
6.69031e-02,9.92462e-01
6.90254e-02,9.25403e-01
7.12151e-02,8.62836e-01
7.34742e-02,8.04460e-01
7.58050e-02,7.49997e-01
7.82097e-02,6.99184e-01
8.06908e-02,6.51780e-01
8.32505e-02,6.07555e-01
8.58914e-02,5.66299e-01
8.86161e-02,5.27812e-01
9.14272e-02,4.91910e-01
9.43275e-02,4.58421e-01
9.73198e-02,4.27182e-01
1.00407e-01,3.98045e-01
1.03592e-01,3.70867e-01
1.06878e-01,3.45520e-01
1.10269e-01,3.21879e-01
1.13767e-01,2.99831e-01
1.17376e-01,2.79270e-01
1.21099e-01,2.60097e-01
1.24941e-01,2.42217e-01
1.28904e-01,2.25545e-01
1.32993e-01,2.10000e-01
1.37212e-01,1.95507e-01
1.41565e-01,1.81995e-01
1.46056e-01,1.69398e-01
1.50689e-01,1.57655e-01
1.55469e-01,1.46709e-01
1.60401e-01,1.36506e-01
1.65490e-01,1.26997e-01
1.70739e-01,1.18134e-01
1.76156e-01,1.09875e-01
1.81744e-01,1.02180e-01
1.87509e-01,9.50090e-02
1.93457e-01,8.83283e-02
1.99594e-01,8.21045e-02
2.05926e-01,7.63070e-02
2.12458e-01,7.09070e-02
2.19198e-01,6.58777e-02
2.26152e-01,6.11942e-02
2.33326e-01,5.68332e-02
2.40728e-01,5.27728e-02
2.48364e-01,4.89928e-02
2.56243e-01,4.54743e-02
2.64371e-01,4.21995e-02
2.72758e-01,3.91520e-02
2.81411e-01,3.63164e-02
2.90338e-01,3.36784e-02
2.99548e-01,3.12244e-02
3.09050e-01,2.89420e-02
3.18854e-01,2.68196e-02
3.28969e-01,2.48463e-02
3.39405e-01,2.30119e-02
3.50171e-01,2.13069e-02
3.61280e-01,1.97225e-02
3.72740e-01,1.82504e-02
3.84565e-01,1.68830e-02
3.96764e-01,1.56131e-02
4.09350e-01,1.44340e-02
4.22336e-01,1.33394e-02
4.35734e-01,1.23236e-02
4.49556e-01,1.13810e-02
4.63817e-01,1.05067e-02
4.78531e-01,9.69584e-03
4.93711e-01,8.94409e-03
5.09373e-01,8.24731e-03
5.25531e-01,7.60169e-03
5.42202e-01,7.00363e-03
5.59403e-01,6.44982e-03
5.77148e-01,5.93715e-03
5.95457e-01,5.46271e-03
6.14346e-01,5.02382e-03
6.33835e-01,4.61794e-03
6.53942e-01,4.24274e-03
6.74686e-01,3.89603e-03
6.96089e-01,3.57578e-03
7.18171e-01,3.28008e-03
7.40953e-01,3.00717e-03
7.64458e-01,2.75539e-03
7.88708e-01,2.52322e-03
8.13728e-01,2.30923e-03
8.39542e-01,2.11208e-03
8.66174e-01,1.93054e-03
8.93651e-01,1.76345e-03
9.22000e-01,1.60973e-03
9.51248e-01,1.46841e-03
9.81424e-01,1.33853e-03
1.01256e+00,1.21924e-03
1.04468e+00,1.10974e-03
1.07782e+00,1.00928e-03
1.11201e+00,9.17161e-04
1.14729e+00,8.32746e-04
1.18368e+00,7.55434e-04
1.22123e+00,6.84671e-04
1.25997e+00,6.19940e-04
1.29994e+00,5.60764e-04
1.34118e+00,5.06700e-04
1.38372e+00,4.57337e-04
1.42762e+00,4.12296e-04
1.47290e+00,3.71224e-04
1.51963e+00,3.33795e-04
1.56784e+00,2.99709e-04
1.61757e+00,2.68687e-04
1.66888e+00,2.40471e-04
1.72183e+00,2.14826e-04
1.77645e+00,1.91532e-04
1.83280e+00,1.70387e-04
1.89094e+00,1.51206e-04
1.95093e+00,1.33817e-04
2.01281e+00,1.18063e-04
2.07667e+00,1.03800e-04
2.14254e+00,9.08939e-05
2.21051e+00,7.92241e-05
2.28063e+00,6.86784e-05
2.35298e+00,5.91543e-05
2.42762e+00,5.05583e-05
2.50463e+00,4.28044e-05
2.58409e+00,3.58144e-05
2.66606e+00,2.95166e-05
2.75064e+00,2.38457e-05
2.83789e+00,1.87423e-05
2.92792e+00,1.41521e-05
3.02080e+00,1.00256e-05
3.11663e+00,6.31799e-06
3.21549e+00,2.98848e-06
3.31750e+00,0.00000e+00
