m1=883101.907, m2=3.458, gsp=2.337, rhosp=2058.580
fGW[Hz],dPh[rad]
2.60769e-03,3.41051e+03
2.61618e-03,3.36498e+03
2.62469e-03,3.31999e+03
2.63324e-03,3.27556e+03
2.64181e-03,3.23167e+03
2.65041e-03,3.18831e+03
2.65904e-03,3.14548e+03
2.66769e-03,3.10318e+03
2.67638e-03,3.06139e+03
2.68509e-03,3.02010e+03
2.69383e-03,2.97933e+03
2.70260e-03,2.93904e+03
2.71140e-03,2.89925e+03
2.72023e-03,2.85995e+03
2.72908e-03,2.82112e+03
2.73797e-03,2.78277e+03
2.74688e-03,2.74488e+03
2.75582e-03,2.70746e+03
2.76480e-03,2.67049e+03
2.77380e-03,2.63397e+03
2.78283e-03,2.59790e+03
2.79189e-03,2.56226e+03
2.80097e-03,2.52706e+03
2.81009e-03,2.49229e+03
2.81924e-03,2.45795e+03
2.82842e-03,2.42402e+03
2.83763e-03,2.39051e+03
2.84686e-03,2.35740e+03
2.85613e-03,2.32470e+03
2.86543e-03,2.29239e+03
2.87476e-03,2.26048e+03
2.88412e-03,2.22896e+03
2.89351e-03,2.19783e+03
2.90293e-03,2.16707e+03
2.91238e-03,2.13669e+03
2.92186e-03,2.10667e+03
2.93137e-03,2.07703e+03
2.94091e-03,2.04774e+03
2.95049e-03,2.01881e+03
2.96009e-03,1.99024e+03
2.96973e-03,1.96201e+03
2.97940e-03,1.93413e+03
2.98910e-03,1.90658e+03
2.99883e-03,1.87938e+03
3.00859e-03,1.85250e+03
3.01838e-03,1.82595e+03
3.02821e-03,1.79973e+03
3.03807e-03,1.77382e+03
3.04796e-03,1.74823e+03
3.05788e-03,1.72296e+03
3.06784e-03,1.69799e+03
3.07782e-03,1.67332e+03
3.08784e-03,1.64896e+03
3.09790e-03,1.62489e+03
3.10798e-03,1.60111e+03
3.11810e-03,1.57763e+03
3.12825e-03,1.55443e+03
3.13843e-03,1.53152e+03
3.14865e-03,1.50888e+03
3.15890e-03,1.48652e+03
3.16918e-03,1.46443e+03
3.17950e-03,1.44261e+03
3.18985e-03,1.42106e+03
3.20024e-03,1.39977e+03
3.21065e-03,1.37874e+03
3.22111e-03,1.35797e+03
3.23159e-03,1.33745e+03
3.24211e-03,1.31718e+03
3.25267e-03,1.29715e+03
3.26326e-03,1.27737e+03
3.27388e-03,1.25783e+03
3.28454e-03,1.23853e+03
3.29523e-03,1.21947e+03
3.30596e-03,1.20064e+03
3.31672e-03,1.18203e+03
3.32752e-03,1.16366e+03
3.33835e-03,1.14551e+03
3.34922e-03,1.12757e+03
3.36012e-03,1.10986e+03
3.37106e-03,1.09237e+03
3.38204e-03,1.07508e+03
3.39305e-03,1.05801e+03
3.40409e-03,1.04115e+03
3.41517e-03,1.02449e+03
3.42629e-03,1.00803e+03
3.43745e-03,9.91776e+02
3.44864e-03,9.75719e+02
3.45986e-03,9.59858e+02
3.47113e-03,9.44190e+02
3.48243e-03,9.28713e+02
3.49376e-03,9.13425e+02
3.50514e-03,8.98323e+02
3.51655e-03,8.83405e+02
3.52800e-03,8.68669e+02
3.53948e-03,8.54113e+02
3.55100e-03,8.39734e+02
3.56256e-03,8.25530e+02
3.57416e-03,8.11500e+02
3.58580e-03,7.97640e+02
3.59747e-03,7.83950e+02
3.60918e-03,7.70426e+02
3.62093e-03,7.57068e+02
3.63272e-03,7.43872e+02
3.64455e-03,7.30837e+02
3.65641e-03,7.17961e+02
3.66831e-03,7.05242e+02
3.68026e-03,6.92677e+02
3.69224e-03,6.80267e+02
3.70426e-03,6.68007e+02
3.71632e-03,6.55897e+02
3.72841e-03,6.43934e+02
3.74055e-03,6.32118e+02
3.75273e-03,6.20445e+02
3.76495e-03,6.08915e+02
3.77720e-03,5.97525e+02
3.78950e-03,5.86274e+02
3.80184e-03,5.75160e+02
3.81421e-03,5.64182e+02
3.82663e-03,5.53337e+02
3.83909e-03,5.42625e+02
3.85158e-03,5.32044e+02
3.86412e-03,5.21591e+02
3.87670e-03,5.11266e+02
3.88932e-03,5.01066e+02
3.90199e-03,4.90991e+02
3.91469e-03,4.81039e+02
3.92743e-03,4.71208e+02
3.94022e-03,4.61497e+02
3.95304e-03,4.51905e+02
3.96591e-03,4.42429e+02
3.97882e-03,4.33069e+02
3.99178e-03,4.23823e+02
4.00477e-03,4.14690e+02
4.01781e-03,4.05668e+02
4.03089e-03,3.96756e+02
4.04401e-03,3.87953e+02
4.05718e-03,3.79257e+02
4.07039e-03,3.70667e+02
4.08364e-03,3.62181e+02
4.09693e-03,3.53800e+02
4.11027e-03,3.45520e+02
4.12365e-03,3.37341e+02
4.13707e-03,3.29262e+02
4.15054e-03,3.21282e+02
4.16405e-03,3.13399e+02
4.17761e-03,3.05612e+02
4.19121e-03,2.97919e+02
4.20485e-03,2.90321e+02
4.21854e-03,2.82815e+02
4.23228e-03,2.75401e+02
4.24605e-03,2.68077e+02
4.25988e-03,2.60843e+02
4.27374e-03,2.53697e+02
4.28766e-03,2.46637e+02
4.30162e-03,2.39664e+02
4.31562e-03,2.32776e+02
4.32967e-03,2.25972e+02
4.34376e-03,2.19251e+02
4.35790e-03,2.12612e+02
4.37209e-03,2.06053e+02
4.38633e-03,1.99575e+02
4.40060e-03,1.93176e+02
4.41493e-03,1.86854e+02
4.42930e-03,1.80610e+02
4.44372e-03,1.74442e+02
4.45819e-03,1.68349e+02
4.47270e-03,1.62331e+02
4.48726e-03,1.56385e+02
4.50187e-03,1.50513e+02
4.51653e-03,1.44711e+02
4.53123e-03,1.38981e+02
4.54598e-03,1.33320e+02
4.56078e-03,1.27729e+02
4.57563e-03,1.22205e+02
4.59052e-03,1.16749e+02
4.60547e-03,1.11360e+02
4.62046e-03,1.06036e+02
4.63550e-03,1.00777e+02
4.65059e-03,9.55825e+01
4.66573e-03,9.04510e+01
4.68092e-03,8.53822e+01
4.69616e-03,8.03751e+01
4.71145e-03,7.54291e+01
4.72679e-03,7.05434e+01
4.74218e-03,6.57172e+01
4.75761e-03,6.09499e+01
4.77310e-03,5.62408e+01
4.78864e-03,5.15890e+01
4.80423e-03,4.69940e+01
4.81987e-03,4.24549e+01
4.83556e-03,3.79713e+01
4.85130e-03,3.35423e+01
4.86710e-03,2.91673e+01
4.88294e-03,2.48456e+01
4.89884e-03,2.05766e+01
4.91478e-03,1.63597e+01
4.93078e-03,1.21942e+01
4.94684e-03,8.07952e+00
4.96294e-03,4.01498e+00
4.97910e-03,0.00000e+00
