m1=98638.014, m2=3.593, gsp=2.184, rhosp=54.368
fGW[Hz],dPh[rad]
4.44647e-03,1.69244e+03
4.49828e-03,1.62119e+03
4.55069e-03,1.55290e+03
4.60371e-03,1.48743e+03
4.65735e-03,1.42468e+03
4.71161e-03,1.36454e+03
4.76650e-03,1.30689e+03
4.82204e-03,1.25164e+03
4.87822e-03,1.19869e+03
4.93505e-03,1.14795e+03
4.99255e-03,1.09932e+03
5.05072e-03,1.05273e+03
5.10957e-03,1.00808e+03
5.16910e-03,9.65293e+02
5.22932e-03,9.24300e+02
5.29025e-03,8.85025e+02
5.35189e-03,8.47395e+02
5.41424e-03,8.11345e+02
5.47732e-03,7.76808e+02
5.54114e-03,7.43722e+02
5.60570e-03,7.12028e+02
5.67101e-03,6.81667e+02
5.73708e-03,6.52585e+02
5.80392e-03,6.24729e+02
5.87155e-03,5.98048e+02
5.93995e-03,5.72493e+02
6.00916e-03,5.48017e+02
6.07917e-03,5.24576e+02
6.15000e-03,5.02126e+02
6.22165e-03,4.80627e+02
6.29414e-03,4.60037e+02
6.36748e-03,4.40321e+02
6.44166e-03,4.21440e+02
6.51671e-03,4.03361e+02
6.59264e-03,3.86049e+02
6.66945e-03,3.69473e+02
6.74716e-03,3.53602e+02
6.82577e-03,3.38405e+02
6.90529e-03,3.23855e+02
6.98575e-03,3.09925e+02
7.06714e-03,2.96589e+02
7.14948e-03,2.83820e+02
7.23277e-03,2.71597e+02
7.31704e-03,2.59895e+02
7.40229e-03,2.48693e+02
7.48854e-03,2.37969e+02
7.57579e-03,2.27703e+02
7.66405e-03,2.17877e+02
7.75335e-03,2.08471e+02
7.84368e-03,1.99468e+02
7.93507e-03,1.90850e+02
8.02752e-03,1.82601e+02
8.12104e-03,1.74706e+02
8.21566e-03,1.67149e+02
8.31138e-03,1.59917e+02
8.40822e-03,1.52995e+02
8.50618e-03,1.46370e+02
8.60529e-03,1.40030e+02
8.70555e-03,1.33962e+02
8.80698e-03,1.28155e+02
8.90958e-03,1.22598e+02
9.01339e-03,1.17280e+02
9.11840e-03,1.12190e+02
9.22464e-03,1.07320e+02
9.33212e-03,1.02660e+02
9.44085e-03,9.82001e+01
9.55084e-03,9.39327e+01
9.66212e-03,8.98493e+01
9.77469e-03,8.59420e+01
9.88858e-03,8.22033e+01
1.00038e-02,7.86259e+01
1.01203e-02,7.52030e+01
1.02383e-02,7.19279e+01
1.03575e-02,6.87943e+01
1.04782e-02,6.57961e+01
1.06003e-02,6.29275e+01
1.07238e-02,6.01829e+01
1.08487e-02,5.75571e+01
1.09751e-02,5.50448e+01
1.11030e-02,5.26413e+01
1.12324e-02,5.03418e+01
1.13632e-02,4.81418e+01
1.14956e-02,4.60372e+01
1.16296e-02,4.40237e+01
1.17651e-02,4.20975e+01
1.19021e-02,4.02547e+01
1.20408e-02,3.84919e+01
1.21811e-02,3.68055e+01
1.23230e-02,3.51922e+01
1.24666e-02,3.36490e+01
1.26118e-02,3.21727e+01
1.27588e-02,3.07605e+01
1.29074e-02,2.94096e+01
1.30578e-02,2.81173e+01
1.32099e-02,2.68812e+01
1.33639e-02,2.56988e+01
1.35196e-02,2.45677e+01
1.36771e-02,2.34858e+01
1.38364e-02,2.24510e+01
1.39976e-02,2.14611e+01
1.41607e-02,2.05143e+01
1.43257e-02,1.96086e+01
1.44926e-02,1.87424e+01
1.46615e-02,1.79138e+01
1.48323e-02,1.71213e+01
1.50051e-02,1.63633e+01
1.51799e-02,1.56383e+01
1.53568e-02,1.49449e+01
1.55357e-02,1.42816e+01
1.57167e-02,1.36472e+01
1.58998e-02,1.30405e+01
1.60851e-02,1.24602e+01
1.62725e-02,1.19052e+01
1.64621e-02,1.13744e+01
1.66539e-02,1.08667e+01
1.68479e-02,1.03811e+01
1.70442e-02,9.91671e+00
1.72428e-02,9.47257e+00
1.74437e-02,9.04779e+00
1.76469e-02,8.64155e+00
1.78525e-02,8.25302e+00
1.80605e-02,7.88144e+00
1.82709e-02,7.52608e+00
1.84838e-02,7.18622e+00
1.86992e-02,6.86120e+00
1.89170e-02,6.55036e+00
1.91374e-02,6.25310e+00
1.93604e-02,5.96881e+00
1.95860e-02,5.69693e+00
1.98142e-02,5.43692e+00
2.00450e-02,5.18828e+00
2.02785e-02,4.95049e+00
2.05148e-02,4.72308e+00
2.07538e-02,4.50562e+00
2.09956e-02,4.29765e+00
2.12403e-02,4.09877e+00
2.14877e-02,3.90858e+00
2.17381e-02,3.72671e+00
2.19913e-02,3.55278e+00
2.22476e-02,3.38645e+00
2.25068e-02,3.22740e+00
2.27690e-02,3.07530e+00
2.30343e-02,2.92985e+00
2.33026e-02,2.79076e+00
2.35741e-02,2.65775e+00
2.38488e-02,2.53056e+00
2.41267e-02,2.40894e+00
2.44078e-02,2.29263e+00
2.46921e-02,2.18141e+00
2.49798e-02,2.07506e+00
2.52709e-02,1.97336e+00
2.55653e-02,1.87610e+00
2.58632e-02,1.78311e+00
2.61645e-02,1.69418e+00
2.64693e-02,1.60915e+00
2.67777e-02,1.52784e+00
2.70897e-02,1.45008e+00
2.74053e-02,1.37573e+00
2.77246e-02,1.30464e+00
2.80476e-02,1.23665e+00
2.83744e-02,1.17164e+00
2.87050e-02,1.10948e+00
2.90395e-02,1.05004e+00
2.93778e-02,9.93208e-01
2.97201e-02,9.38861e-01
3.00663e-02,8.86893e-01
3.04166e-02,8.37201e-01
3.07710e-02,7.89686e-01
3.11295e-02,7.44252e-01
3.14922e-02,7.00808e-01
3.18591e-02,6.59267e-01
3.22303e-02,6.19546e-01
3.26058e-02,5.81565e-01
3.29857e-02,5.45247e-01
3.33700e-02,5.10521e-01
3.37588e-02,4.77317e-01
3.41522e-02,4.45567e-01
3.45501e-02,4.15209e-01
3.49526e-02,3.86181e-01
3.53598e-02,3.58425e-01
3.57718e-02,3.31885e-01
3.61886e-02,3.06509e-01
3.66102e-02,2.82244e-01
3.70368e-02,2.59044e-01
3.74683e-02,2.36860e-01
3.79048e-02,2.15648e-01
3.83464e-02,1.95366e-01
3.87932e-02,1.75974e-01
3.92452e-02,1.57431e-01
3.97024e-02,1.39702e-01
4.01650e-02,1.22749e-01
4.06330e-02,1.06540e-01
4.11064e-02,9.10416e-02
4.15853e-02,7.62227e-02
4.20698e-02,6.20535e-02
4.25600e-02,4.85056e-02
4.30558e-02,3.55518e-02
4.35575e-02,2.31660e-02
4.40650e-02,1.13233e-02
4.45784e-02,0.00000e+00
