m1=536544.504, m2=15.920, gsp=2.202, rhosp=1003.901
fGW[Hz],dPh[rad]
1.66601e-03,1.07291e+03
1.67940e-03,1.04055e+03
1.69290e-03,1.00916e+03
1.70651e-03,9.78708e+02
1.72023e-03,9.49169e+02
1.73405e-03,9.20516e+02
1.74799e-03,8.92721e+02
1.76204e-03,8.65759e+02
1.77620e-03,8.39606e+02
1.79048e-03,8.14237e+02
1.80487e-03,7.89628e+02
1.81938e-03,7.65758e+02
1.83400e-03,7.42604e+02
1.84874e-03,7.20145e+02
1.86360e-03,6.98360e+02
1.87858e-03,6.77229e+02
1.89368e-03,6.56732e+02
1.90890e-03,6.36851e+02
1.92425e-03,6.17568e+02
1.93971e-03,5.98863e+02
1.95531e-03,5.80721e+02
1.97102e-03,5.63124e+02
1.98686e-03,5.46056e+02
2.00283e-03,5.29501e+02
2.01893e-03,5.13444e+02
2.03516e-03,4.97869e+02
2.05152e-03,4.82764e+02
2.06801e-03,4.68113e+02
2.08463e-03,4.53902e+02
2.10139e-03,4.40119e+02
2.11828e-03,4.26752e+02
2.13530e-03,4.13786e+02
2.15247e-03,4.01211e+02
2.16977e-03,3.89015e+02
2.18721e-03,3.77186e+02
2.20479e-03,3.65713e+02
2.22251e-03,3.54586e+02
2.24037e-03,3.43795e+02
2.25838e-03,3.33328e+02
2.27653e-03,3.23177e+02
2.29483e-03,3.13332e+02
2.31328e-03,3.03784e+02
2.33187e-03,2.94524e+02
2.35061e-03,2.85543e+02
2.36951e-03,2.76832e+02
2.38855e-03,2.68385e+02
2.40775e-03,2.60193e+02
2.42710e-03,2.52247e+02
2.44661e-03,2.44542e+02
2.46628e-03,2.37069e+02
2.48610e-03,2.29821e+02
2.50608e-03,2.22793e+02
2.52623e-03,2.15976e+02
2.54653e-03,2.09366e+02
2.56700e-03,2.02955e+02
2.58763e-03,1.96738e+02
2.60843e-03,1.90708e+02
2.62940e-03,1.84861e+02
2.65053e-03,1.79190e+02
2.67184e-03,1.73691e+02
2.69331e-03,1.68358e+02
2.71496e-03,1.63186e+02
2.73678e-03,1.58170e+02
2.75878e-03,1.53306e+02
2.78095e-03,1.48589e+02
2.80331e-03,1.44015e+02
2.82584e-03,1.39579e+02
2.84855e-03,1.35277e+02
2.87145e-03,1.31106e+02
2.89453e-03,1.27060e+02
2.91779e-03,1.23137e+02
2.94125e-03,1.19333e+02
2.96489e-03,1.15643e+02
2.98872e-03,1.12065e+02
3.01274e-03,1.08596e+02
3.03696e-03,1.05232e+02
3.06137e-03,1.01969e+02
3.08597e-03,9.88052e+01
3.11078e-03,9.57371e+01
3.13578e-03,9.27619e+01
3.16098e-03,8.98768e+01
3.18639e-03,8.70791e+01
3.21200e-03,8.43661e+01
3.23782e-03,8.17353e+01
3.26385e-03,7.91841e+01
3.29008e-03,7.67103e+01
3.31652e-03,7.43113e+01
3.34318e-03,7.19851e+01
3.37005e-03,6.97293e+01
3.39714e-03,6.75419e+01
3.42445e-03,6.54207e+01
3.45197e-03,6.33638e+01
3.47972e-03,6.13693e+01
3.50769e-03,5.94352e+01
3.53588e-03,5.75598e+01
3.56430e-03,5.57412e+01
3.59295e-03,5.39777e+01
3.62183e-03,5.22677e+01
3.65094e-03,5.06095e+01
3.68029e-03,4.90016e+01
3.70987e-03,4.74425e+01
3.73969e-03,4.59306e+01
3.76974e-03,4.44646e+01
3.80004e-03,4.30431e+01
3.83059e-03,4.16647e+01
3.86138e-03,4.03281e+01
3.89241e-03,3.90320e+01
3.92370e-03,3.77752e+01
3.95524e-03,3.65566e+01
3.98703e-03,3.53750e+01
4.01908e-03,3.42292e+01
4.05138e-03,3.31181e+01
4.08395e-03,3.20408e+01
4.11677e-03,3.09962e+01
4.14986e-03,2.99833e+01
4.18322e-03,2.90011e+01
4.21684e-03,2.80487e+01
4.25073e-03,2.71253e+01
4.28490e-03,2.62298e+01
4.31934e-03,2.53616e+01
4.35406e-03,2.45197e+01
4.38906e-03,2.37034e+01
4.42433e-03,2.29118e+01
4.45990e-03,2.21443e+01
4.49574e-03,2.14001e+01
4.53188e-03,2.06785e+01
4.56830e-03,1.99788e+01
4.60502e-03,1.93003e+01
4.64204e-03,1.86425e+01
4.67935e-03,1.80046e+01
4.71696e-03,1.73861e+01
4.75487e-03,1.67864e+01
4.79309e-03,1.62049e+01
4.83162e-03,1.56410e+01
4.87045e-03,1.50943e+01
4.90960e-03,1.45642e+01
4.94906e-03,1.40502e+01
4.98884e-03,1.35519e+01
5.02894e-03,1.30686e+01
5.06936e-03,1.26001e+01
5.11011e-03,1.21458e+01
5.15118e-03,1.17052e+01
5.19259e-03,1.12781e+01
5.23432e-03,1.08640e+01
5.27640e-03,1.04624e+01
5.31881e-03,1.00730e+01
5.36156e-03,9.69551e+00
5.40465e-03,9.32946e+00
5.44809e-03,8.97453e+00
5.49188e-03,8.63039e+00
5.53603e-03,8.29671e+00
5.58052e-03,7.97317e+00
5.62538e-03,7.65947e+00
5.67059e-03,7.35530e+00
5.71617e-03,7.06038e+00
5.76212e-03,6.77442e+00
5.80843e-03,6.49716e+00
5.85512e-03,6.22832e+00
5.90218e-03,5.96766e+00
5.94962e-03,5.71493e+00
5.99744e-03,5.46987e+00
6.04565e-03,5.23227e+00
6.09424e-03,5.00190e+00
6.14323e-03,4.77853e+00
6.19260e-03,4.56195e+00
6.24238e-03,4.35195e+00
6.29255e-03,4.14835e+00
6.34313e-03,3.95093e+00
6.39412e-03,3.75952e+00
6.44551e-03,3.57393e+00
6.49732e-03,3.39398e+00
6.54954e-03,3.21951e+00
6.60219e-03,3.05034e+00
6.65525e-03,2.88632e+00
6.70875e-03,2.72729e+00
6.76267e-03,2.57309e+00
6.81703e-03,2.42358e+00
6.87182e-03,2.27863e+00
6.92705e-03,2.13808e+00
6.98273e-03,2.00180e+00
7.03886e-03,1.86968e+00
7.09543e-03,1.74157e+00
7.15246e-03,1.61736e+00
7.20995e-03,1.49692e+00
7.26791e-03,1.38016e+00
7.32632e-03,1.26694e+00
7.38521e-03,1.15717e+00
7.44457e-03,1.05074e+00
7.50441e-03,9.47543e-01
7.56473e-03,8.47489e-01
7.62553e-03,7.50479e-01
7.68682e-03,6.56421e-01
7.74861e-03,5.65225e-01
7.81089e-03,4.76804e-01
7.87367e-03,3.91073e-01
7.93696e-03,3.07951e-01
8.00075e-03,2.27359e-01
8.06506e-03,1.49219e-01
8.12989e-03,7.34566e-02
8.19523e-03,0.00000e+00
