m1=291083.163, m2=89.738, gsp=2.113, rhosp=6136.365
fGW[Hz],dPh[rad]
1.01498e-03,8.39861e+02
1.02884e-03,8.05123e+02
1.04290e-03,7.71735e+02
1.05715e-03,7.39648e+02
1.07159e-03,7.08817e+02
1.08623e-03,6.79195e+02
1.10107e-03,6.50738e+02
1.11611e-03,6.23403e+02
1.13136e-03,5.97149e+02
1.14682e-03,5.71937e+02
1.16249e-03,5.47729e+02
1.17837e-03,5.24486e+02
1.19447e-03,5.02174e+02
1.21079e-03,4.80757e+02
1.22733e-03,4.60202e+02
1.24410e-03,4.40477e+02
1.26110e-03,4.21551e+02
1.27833e-03,4.03393e+02
1.29579e-03,3.85975e+02
1.31349e-03,3.69267e+02
1.33144e-03,3.53245e+02
1.34963e-03,3.37880e+02
1.36807e-03,3.23149e+02
1.38676e-03,3.09025e+02
1.40570e-03,2.95487e+02
1.42491e-03,2.82512e+02
1.44438e-03,2.70077e+02
1.46411e-03,2.58162e+02
1.48411e-03,2.46746e+02
1.50439e-03,2.35810e+02
1.52494e-03,2.25334e+02
1.54578e-03,2.15301e+02
1.56689e-03,2.05693e+02
1.58830e-03,1.96494e+02
1.61000e-03,1.87686e+02
1.63200e-03,1.79255e+02
1.65429e-03,1.71185e+02
1.67690e-03,1.63461e+02
1.69981e-03,1.56070e+02
1.72303e-03,1.48998e+02
1.74657e-03,1.42233e+02
1.77043e-03,1.35761e+02
1.79462e-03,1.29570e+02
1.81914e-03,1.23650e+02
1.84399e-03,1.17989e+02
1.86918e-03,1.12576e+02
1.89472e-03,1.07401e+02
1.92061e-03,1.02455e+02
1.94685e-03,9.77263e+01
1.97344e-03,9.32076e+01
2.00041e-03,8.88896e+01
2.02774e-03,8.47638e+01
2.05544e-03,8.08220e+01
2.08352e-03,7.70566e+01
2.11199e-03,7.34600e+01
2.14084e-03,7.00251e+01
2.17009e-03,6.67448e+01
2.19974e-03,6.36127e+01
2.22979e-03,6.06223e+01
2.26025e-03,5.77675e+01
2.29113e-03,5.50424e+01
2.32244e-03,5.24415e+01
2.35417e-03,4.99593e+01
2.38633e-03,4.75907e+01
2.41893e-03,4.53306e+01
2.45198e-03,4.31744e+01
2.48548e-03,4.11175e+01
2.51943e-03,3.91554e+01
2.55386e-03,3.72840e+01
2.58875e-03,3.54993e+01
2.62412e-03,3.37975e+01
2.65997e-03,3.21747e+01
2.69631e-03,3.06276e+01
2.73314e-03,2.91527e+01
2.77049e-03,2.77467e+01
2.80834e-03,2.64067e+01
2.84670e-03,2.51295e+01
2.88560e-03,2.39124e+01
2.92502e-03,2.27526e+01
2.96498e-03,2.16475e+01
3.00549e-03,2.05947e+01
3.04655e-03,1.95917e+01
3.08817e-03,1.86363e+01
3.13036e-03,1.77263e+01
3.17313e-03,1.68595e+01
3.21648e-03,1.60341e+01
3.26043e-03,1.52481e+01
3.30497e-03,1.44997e+01
3.35013e-03,1.37871e+01
3.39590e-03,1.31086e+01
3.44229e-03,1.24628e+01
3.48932e-03,1.18480e+01
3.53699e-03,1.12628e+01
3.58532e-03,1.07059e+01
3.63430e-03,1.01759e+01
3.68395e-03,9.67145e+00
3.73428e-03,9.19147e+00
3.78530e-03,8.73477e+00
3.83702e-03,8.30025e+00
3.88944e-03,7.88686e+00
3.94258e-03,7.49359e+00
3.99644e-03,7.11949e+00
4.05104e-03,6.76365e+00
4.10639e-03,6.42519e+00
4.16249e-03,6.10330e+00
4.21936e-03,5.79716e+00
4.27700e-03,5.50604e+00
4.33543e-03,5.22921e+00
4.39467e-03,4.96599e+00
4.45471e-03,4.71571e+00
4.51557e-03,4.47776e+00
4.57726e-03,4.25154e+00
4.63980e-03,4.03648e+00
4.70318e-03,3.83204e+00
4.76744e-03,3.63772e+00
4.83257e-03,3.45301e+00
4.89860e-03,3.27745e+00
4.96552e-03,3.11060e+00
5.03336e-03,2.95203e+00
5.10213e-03,2.80134e+00
5.17184e-03,2.65814e+00
5.24249e-03,2.52207e+00
5.31412e-03,2.39277e+00
5.38672e-03,2.26992e+00
5.46031e-03,2.15320e+00
5.53491e-03,2.04231e+00
5.61053e-03,1.93696e+00
5.68719e-03,1.83687e+00
5.76488e-03,1.74180e+00
5.84365e-03,1.65148e+00
5.92348e-03,1.56570e+00
6.00441e-03,1.48421e+00
6.08644e-03,1.40682e+00
6.16960e-03,1.33331e+00
6.25389e-03,1.26350e+00
6.33933e-03,1.19720e+00
6.42594e-03,1.13423e+00
6.51373e-03,1.07444e+00
6.60272e-03,1.01765e+00
6.69293e-03,9.63736e-01
6.78437e-03,9.12538e-01
6.87706e-03,8.63924e-01
6.97101e-03,8.17765e-01
7.06625e-03,7.73939e-01
7.16279e-03,7.32329e-01
7.26065e-03,6.92824e-01
7.35985e-03,6.55319e-01
7.46040e-03,6.19713e-01
7.56233e-03,5.85912e-01
7.66564e-03,5.53824e-01
7.77037e-03,5.23363e-01
7.87653e-03,4.94448e-01
7.98414e-03,4.67002e-01
8.09322e-03,4.40949e-01
8.20379e-03,4.16220e-01
8.31588e-03,3.92748e-01
8.42949e-03,3.70470e-01
8.54465e-03,3.49326e-01
8.66139e-03,3.29257e-01
8.77973e-03,3.10211e-01
8.89968e-03,2.92135e-01
9.02126e-03,2.74980e-01
9.14451e-03,2.58700e-01
9.26945e-03,2.43250e-01
9.39609e-03,2.28588e-01
9.52446e-03,2.14675e-01
9.65459e-03,2.01472e-01
9.78649e-03,1.88943e-01
9.92019e-03,1.77054e-01
1.00557e-02,1.65773e-01
1.01931e-02,1.55069e-01
1.03324e-02,1.44912e-01
1.04735e-02,1.35274e-01
1.06166e-02,1.26130e-01
1.07617e-02,1.17454e-01
1.09087e-02,1.09222e-01
1.10577e-02,1.01411e-01
1.12088e-02,9.40011e-02
1.13619e-02,8.69705e-02
1.15172e-02,8.03003e-02
1.16745e-02,7.39720e-02
1.18340e-02,6.79683e-02
1.19957e-02,6.22726e-02
1.21596e-02,5.68691e-02
1.23257e-02,5.17428e-02
1.24941e-02,4.68798e-02
1.26648e-02,4.22664e-02
1.28378e-02,3.78899e-02
1.30132e-02,3.37382e-02
1.31910e-02,2.97998e-02
1.33712e-02,2.60639e-02
1.35539e-02,2.25199e-02
1.37391e-02,1.91581e-02
1.39268e-02,1.59692e-02
1.41171e-02,1.29443e-02
1.43099e-02,1.00749e-02
1.45054e-02,7.35321e-03
1.47036e-02,4.77154e-03
1.49045e-02,2.32275e-03
1.51081e-02,0.00000e+00
