m1=888482.819, m2=29.402, gsp=2.397, rhosp=34.816
fGW[Hz],dPh[rad]
1.16684e-03,8.27987e+03
1.17534e-03,8.05954e+03
1.18391e-03,7.84503e+03
1.19253e-03,7.63617e+03
1.20122e-03,7.43282e+03
1.20998e-03,7.23483e+03
1.21880e-03,7.04207e+03
1.22768e-03,6.85440e+03
1.23662e-03,6.67168e+03
1.24563e-03,6.49379e+03
1.25471e-03,6.32059e+03
1.26385e-03,6.15197e+03
1.27306e-03,5.98780e+03
1.28234e-03,5.82796e+03
1.29169e-03,5.67236e+03
1.30110e-03,5.52086e+03
1.31058e-03,5.37337e+03
1.32013e-03,5.22977e+03
1.32975e-03,5.08997e+03
1.33944e-03,4.95387e+03
1.34920e-03,4.82137e+03
1.35903e-03,4.69237e+03
1.36894e-03,4.56678e+03
1.37891e-03,4.44452e+03
1.38896e-03,4.32549e+03
1.39908e-03,4.20961e+03
1.40928e-03,4.09680e+03
1.41955e-03,3.98697e+03
1.42989e-03,3.88006e+03
1.44031e-03,3.77597e+03
1.45081e-03,3.67464e+03
1.46138e-03,3.57599e+03
1.47203e-03,3.47995e+03
1.48276e-03,3.38646e+03
1.49356e-03,3.29545e+03
1.50445e-03,3.20684e+03
1.51541e-03,3.12059e+03
1.52645e-03,3.03662e+03
1.53758e-03,2.95487e+03
1.54878e-03,2.87530e+03
1.56007e-03,2.79783e+03
1.57143e-03,2.72242e+03
1.58289e-03,2.64900e+03
1.59442e-03,2.57753e+03
1.60604e-03,2.50796e+03
1.61774e-03,2.44024e+03
1.62953e-03,2.37431e+03
1.64141e-03,2.31013e+03
1.65337e-03,2.24765e+03
1.66542e-03,2.18683e+03
1.67755e-03,2.12762e+03
1.68978e-03,2.06999e+03
1.70209e-03,2.01388e+03
1.71449e-03,1.95927e+03
1.72699e-03,1.90610e+03
1.73957e-03,1.85435e+03
1.75225e-03,1.80397e+03
1.76502e-03,1.75492e+03
1.77788e-03,1.70719e+03
1.79084e-03,1.66071e+03
1.80389e-03,1.61548e+03
1.81703e-03,1.57144e+03
1.83027e-03,1.52857e+03
1.84361e-03,1.48685e+03
1.85705e-03,1.44623e+03
1.87058e-03,1.40669e+03
1.88421e-03,1.36820e+03
1.89794e-03,1.33074e+03
1.91177e-03,1.29427e+03
1.92570e-03,1.25877e+03
1.93973e-03,1.22421e+03
1.95387e-03,1.19058e+03
1.96811e-03,1.15783e+03
1.98245e-03,1.12596e+03
1.99690e-03,1.09494e+03
2.01145e-03,1.06474e+03
2.02611e-03,1.03534e+03
2.04087e-03,1.00673e+03
2.05574e-03,9.78872e+02
2.07072e-03,9.51760e+02
2.08581e-03,9.25368e+02
2.10101e-03,8.99679e+02
2.11632e-03,8.74674e+02
2.13175e-03,8.50334e+02
2.14728e-03,8.26641e+02
2.16293e-03,8.03579e+02
2.17869e-03,7.81131e+02
2.19457e-03,7.59280e+02
2.21056e-03,7.38011e+02
2.22667e-03,7.17308e+02
2.24289e-03,6.97156e+02
2.25924e-03,6.77541e+02
2.27570e-03,6.58448e+02
2.29228e-03,6.39863e+02
2.30899e-03,6.21773e+02
2.32581e-03,6.04165e+02
2.34276e-03,5.87026e+02
2.35983e-03,5.70343e+02
2.37703e-03,5.54104e+02
2.39435e-03,5.38298e+02
2.41180e-03,5.22913e+02
2.42938e-03,5.07938e+02
2.44708e-03,4.93362e+02
2.46491e-03,4.79174e+02
2.48287e-03,4.65364e+02
2.50097e-03,4.51922e+02
2.51919e-03,4.38838e+02
2.53755e-03,4.26103e+02
2.55604e-03,4.13707e+02
2.57467e-03,4.01642e+02
2.59343e-03,3.89898e+02
2.61233e-03,3.78467e+02
2.63137e-03,3.67340e+02
2.65054e-03,3.56510e+02
2.66986e-03,3.45969e+02
2.68931e-03,3.35709e+02
2.70891e-03,3.25723e+02
2.72865e-03,3.16002e+02
2.74853e-03,3.06541e+02
2.76856e-03,2.97332e+02
2.78874e-03,2.88368e+02
2.80906e-03,2.79644e+02
2.82953e-03,2.71152e+02
2.85015e-03,2.62887e+02
2.87092e-03,2.54842e+02
2.89184e-03,2.47011e+02
2.91291e-03,2.39389e+02
2.93414e-03,2.31971e+02
2.95552e-03,2.24750e+02
2.97706e-03,2.17723e+02
2.99875e-03,2.10882e+02
3.02061e-03,2.04224e+02
3.04262e-03,1.97744e+02
3.06479e-03,1.91436e+02
3.08712e-03,1.85297e+02
3.10962e-03,1.79321e+02
3.13228e-03,1.73505e+02
3.15510e-03,1.67844e+02
3.17810e-03,1.62334e+02
3.20126e-03,1.56971e+02
3.22458e-03,1.51751e+02
3.24808e-03,1.46671e+02
3.27175e-03,1.41726e+02
3.29559e-03,1.36913e+02
3.31961e-03,1.32228e+02
3.34380e-03,1.27669e+02
3.36817e-03,1.23231e+02
3.39271e-03,1.18912e+02
3.41743e-03,1.14707e+02
3.44234e-03,1.10615e+02
3.46742e-03,1.06633e+02
3.49269e-03,1.02756e+02
3.51814e-03,9.89833e+01
3.54378e-03,9.53111e+01
3.56960e-03,9.17368e+01
3.59562e-03,8.82580e+01
3.62182e-03,8.48721e+01
3.64821e-03,8.15765e+01
3.67480e-03,7.83690e+01
3.70157e-03,7.52470e+01
3.72855e-03,7.22085e+01
3.75572e-03,6.92510e+01
3.78309e-03,6.63725e+01
3.81066e-03,6.35709e+01
3.83842e-03,6.08440e+01
3.86640e-03,5.81900e+01
3.89457e-03,5.56068e+01
3.92295e-03,5.30927e+01
3.95154e-03,5.06456e+01
3.98033e-03,4.82639e+01
4.00934e-03,4.59458e+01
4.03856e-03,4.36896e+01
4.06799e-03,4.14937e+01
4.09763e-03,3.93564e+01
4.12749e-03,3.72762e+01
4.15757e-03,3.52516e+01
4.18787e-03,3.32810e+01
4.21838e-03,3.13630e+01
4.24912e-03,2.94963e+01
4.28009e-03,2.76795e+01
4.31128e-03,2.59111e+01
4.34269e-03,2.41900e+01
4.37434e-03,2.25149e+01
4.40622e-03,2.08845e+01
4.43833e-03,1.92977e+01
4.47067e-03,1.77533e+01
4.50325e-03,1.62501e+01
4.53606e-03,1.47871e+01
4.56912e-03,1.33632e+01
4.60241e-03,1.19773e+01
4.63595e-03,1.06284e+01
4.66974e-03,9.31557e+00
4.70376e-03,8.03781e+00
4.73804e-03,6.79419e+00
4.77257e-03,5.58380e+00
4.80735e-03,4.40575e+00
4.84238e-03,3.25917e+00
4.87767e-03,2.14323e+00
4.91321e-03,1.05710e+00
4.94901e-03,0.00000e+00
