m1=585000.196, m2=12.985, gsp=2.071, rhosp=2733.666
fGW[Hz],dPh[rad]
1.75987e-03,1.41095e+02
1.77276e-03,1.37105e+02
1.78574e-03,1.33227e+02
1.79882e-03,1.29458e+02
1.81199e-03,1.25794e+02
1.82526e-03,1.22234e+02
1.83862e-03,1.18774e+02
1.85208e-03,1.15411e+02
1.86565e-03,1.12142e+02
1.87931e-03,1.08965e+02
1.89307e-03,1.05878e+02
1.90693e-03,1.02878e+02
1.92089e-03,9.99617e+01
1.93496e-03,9.71278e+01
1.94913e-03,9.43735e+01
1.96340e-03,9.16968e+01
1.97778e-03,8.90954e+01
1.99226e-03,8.65672e+01
2.00685e-03,8.41101e+01
2.02154e-03,8.17223e+01
2.03634e-03,7.94017e+01
2.05125e-03,7.71464e+01
2.06628e-03,7.49546e+01
2.08141e-03,7.28246e+01
2.09665e-03,7.07546e+01
2.11200e-03,6.87429e+01
2.12746e-03,6.67878e+01
2.14304e-03,6.48879e+01
2.15873e-03,6.30415e+01
2.17454e-03,6.12471e+01
2.19046e-03,5.95033e+01
2.20650e-03,5.78087e+01
2.22266e-03,5.61618e+01
2.23893e-03,5.45614e+01
2.25533e-03,5.30061e+01
2.27184e-03,5.14947e+01
2.28848e-03,5.00258e+01
2.30524e-03,4.85985e+01
2.32212e-03,4.72113e+01
2.33912e-03,4.58633e+01
2.35625e-03,4.45534e+01
2.37350e-03,4.32804e+01
2.39088e-03,4.20433e+01
2.40839e-03,4.08411e+01
2.42602e-03,3.96729e+01
2.44379e-03,3.85376e+01
2.46168e-03,3.74344e+01
2.47971e-03,3.63623e+01
2.49786e-03,3.53205e+01
2.51615e-03,3.43081e+01
2.53458e-03,3.33243e+01
2.55314e-03,3.23683e+01
2.57183e-03,3.14393e+01
2.59066e-03,3.05365e+01
2.60963e-03,2.96592e+01
2.62874e-03,2.88067e+01
2.64799e-03,2.79783e+01
2.66738e-03,2.71732e+01
2.68691e-03,2.63910e+01
2.70659e-03,2.56308e+01
2.72641e-03,2.48921e+01
2.74637e-03,2.41743e+01
2.76648e-03,2.34768e+01
2.78674e-03,2.27990e+01
2.80714e-03,2.21403e+01
2.82770e-03,2.15003e+01
2.84840e-03,2.08783e+01
2.86926e-03,2.02740e+01
2.89027e-03,1.96867e+01
2.91143e-03,1.91160e+01
2.93275e-03,1.85615e+01
2.95423e-03,1.80226e+01
2.97586e-03,1.74990e+01
2.99765e-03,1.69902e+01
3.01960e-03,1.64958e+01
3.04171e-03,1.60154e+01
3.06398e-03,1.55485e+01
3.08642e-03,1.50949e+01
3.10902e-03,1.46541e+01
3.13178e-03,1.42258e+01
3.15471e-03,1.38096e+01
3.17781e-03,1.34051e+01
3.20108e-03,1.30122e+01
3.22452e-03,1.26303e+01
3.24813e-03,1.22592e+01
3.27192e-03,1.18987e+01
3.29588e-03,1.15483e+01
3.32001e-03,1.12079e+01
3.34432e-03,1.08771e+01
3.36881e-03,1.05556e+01
3.39348e-03,1.02433e+01
3.41833e-03,9.93981e+00
3.44336e-03,9.64490e+00
3.46857e-03,9.35835e+00
3.49397e-03,9.07991e+00
3.51955e-03,8.80935e+00
3.54532e-03,8.54645e+00
3.57128e-03,8.29100e+00
3.59743e-03,8.04279e+00
3.62377e-03,7.80160e+00
3.65031e-03,7.56724e+00
3.67704e-03,7.33952e+00
3.70396e-03,7.11825e+00
3.73109e-03,6.90325e+00
3.75841e-03,6.69434e+00
3.78593e-03,6.49134e+00
3.81365e-03,6.29410e+00
3.84157e-03,6.10244e+00
3.86970e-03,5.91622e+00
3.89804e-03,5.73527e+00
3.92658e-03,5.55944e+00
3.95533e-03,5.38860e+00
3.98429e-03,5.22260e+00
4.01347e-03,5.06130e+00
4.04286e-03,4.90458e+00
4.07246e-03,4.75229e+00
4.10228e-03,4.60433e+00
4.13232e-03,4.46055e+00
4.16258e-03,4.32085e+00
4.19306e-03,4.18511e+00
4.22376e-03,4.05321e+00
4.25469e-03,3.92506e+00
4.28584e-03,3.80054e+00
4.31723e-03,3.67954e+00
4.34884e-03,3.56198e+00
4.38068e-03,3.44775e+00
4.41276e-03,3.33676e+00
4.44507e-03,3.22891e+00
4.47762e-03,3.12412e+00
4.51041e-03,3.02231e+00
4.54343e-03,2.92338e+00
4.57670e-03,2.82725e+00
4.61021e-03,2.73385e+00
4.64397e-03,2.64310e+00
4.67798e-03,2.55492e+00
4.71223e-03,2.46924e+00
4.74674e-03,2.38599e+00
4.78149e-03,2.30511e+00
4.81650e-03,2.22651e+00
4.85177e-03,2.15015e+00
4.88730e-03,2.07595e+00
4.92309e-03,2.00386e+00
4.95914e-03,1.93381e+00
4.99545e-03,1.86574e+00
5.03203e-03,1.79961e+00
5.06887e-03,1.73536e+00
5.10599e-03,1.67292e+00
5.14338e-03,1.61226e+00
5.18104e-03,1.55332e+00
5.21898e-03,1.49605e+00
5.25719e-03,1.44040e+00
5.29569e-03,1.38633e+00
5.33446e-03,1.33380e+00
5.37352e-03,1.28276e+00
5.41287e-03,1.23316e+00
5.45251e-03,1.18498e+00
5.49243e-03,1.13816e+00
5.53265e-03,1.09266e+00
5.57316e-03,1.04846e+00
5.61397e-03,1.00552e+00
5.65508e-03,9.63788e-01
5.69649e-03,9.23244e-01
5.73820e-03,8.83850e-01
5.78022e-03,8.45574e-01
5.82254e-03,8.08384e-01
5.86518e-03,7.72249e-01
5.90812e-03,7.37140e-01
5.95138e-03,7.03027e-01
5.99496e-03,6.69883e-01
6.03886e-03,6.37679e-01
6.08308e-03,6.06389e-01
6.12762e-03,5.75987e-01
6.17249e-03,5.46447e-01
6.21769e-03,5.17746e-01
6.26322e-03,4.89860e-01
6.30908e-03,4.62765e-01
6.35527e-03,4.36440e-01
6.40181e-03,4.10861e-01
6.44869e-03,3.86009e-01
6.49591e-03,3.61862e-01
6.54347e-03,3.38400e-01
6.59139e-03,3.15604e-01
6.63965e-03,2.93456e-01
6.68827e-03,2.71936e-01
6.73724e-03,2.51027e-01
6.78658e-03,2.30711e-01
6.83627e-03,2.10972e-01
6.88633e-03,1.91794e-01
6.93675e-03,1.73160e-01
6.98754e-03,1.55055e-01
7.03871e-03,1.37464e-01
7.09025e-03,1.20373e-01
7.14217e-03,1.03766e-01
7.19447e-03,8.76315e-02
7.24715e-03,7.19548e-02
7.30021e-03,5.67231e-02
7.35367e-03,4.19239e-02
7.40751e-03,2.75449e-02
7.46175e-03,1.35741e-02
7.51639e-03,0.00000e+00
