m1=2172.111, m2=46.392, gsp=2.395, rhosp=1000.349
fGW[Hz],dPh[rad]
4.43425e-03,6.53605e+03
4.57306e-03,6.13182e+03
4.71622e-03,5.75257e+03
4.86386e-03,5.39677e+03
5.01613e-03,5.06297e+03
5.17316e-03,4.74980e+03
5.33510e-03,4.45599e+03
5.50212e-03,4.18035e+03
5.67437e-03,3.92174e+03
5.85200e-03,3.67913e+03
6.03520e-03,3.45151e+03
6.22413e-03,3.23797e+03
6.41898e-03,3.03763e+03
6.61993e-03,2.84967e+03
6.82716e-03,2.67334e+03
7.04089e-03,2.50791e+03
7.26131e-03,2.35271e+03
7.48862e-03,2.20710e+03
7.72305e-03,2.07050e+03
7.96482e-03,1.94234e+03
8.21416e-03,1.82211e+03
8.47131e-03,1.70931e+03
8.73651e-03,1.60349e+03
9.01000e-03,1.50421e+03
9.29206e-03,1.41107e+03
9.58295e-03,1.32369e+03
9.88295e-03,1.24172e+03
1.01923e-02,1.16481e+03
1.05114e-02,1.09267e+03
1.08405e-02,1.02498e+03
1.11798e-02,9.61479e+02
1.15298e-02,9.01907e+02
1.18908e-02,8.46020e+02
1.22630e-02,7.93590e+02
1.26469e-02,7.44403e+02
1.30428e-02,6.98259e+02
1.34511e-02,6.54969e+02
1.38722e-02,6.14358e+02
1.43065e-02,5.76260e+02
1.47543e-02,5.40519e+02
1.52162e-02,5.06990e+02
1.56926e-02,4.75535e+02
1.61838e-02,4.46027e+02
1.66905e-02,4.18345e+02
1.72130e-02,3.92377e+02
1.77518e-02,3.68015e+02
1.83075e-02,3.45162e+02
1.88807e-02,3.23724e+02
1.94717e-02,3.03612e+02
2.00813e-02,2.84746e+02
2.07099e-02,2.67049e+02
2.13583e-02,2.50447e+02
2.20269e-02,2.34873e+02
2.27164e-02,2.20264e+02
2.34276e-02,2.06559e+02
2.41610e-02,1.93704e+02
2.49173e-02,1.81645e+02
2.56974e-02,1.70334e+02
2.65018e-02,1.59723e+02
2.73315e-02,1.49770e+02
2.81871e-02,1.40434e+02
2.90695e-02,1.31677e+02
2.99795e-02,1.23462e+02
3.09180e-02,1.15757e+02
3.18859e-02,1.08530e+02
3.28841e-02,1.01752e+02
3.39136e-02,9.53934e+01
3.49752e-02,8.94298e+01
3.60701e-02,8.38363e+01
3.71993e-02,7.85901e+01
3.83638e-02,7.36695e+01
3.95648e-02,6.90546e+01
4.08034e-02,6.47263e+01
4.20808e-02,6.06669e+01
4.33981e-02,5.68599e+01
4.47567e-02,5.32894e+01
4.61578e-02,4.99410e+01
4.76028e-02,4.68008e+01
4.90930e-02,4.38560e+01
5.06299e-02,4.10945e+01
5.22148e-02,3.85049e+01
5.38494e-02,3.60765e+01
5.55352e-02,3.37994e+01
5.72737e-02,3.16643e+01
5.90667e-02,2.96622e+01
6.09158e-02,2.77850e+01
6.28227e-02,2.60249e+01
6.47894e-02,2.43747e+01
6.68177e-02,2.28275e+01
6.89094e-02,2.13770e+01
7.10666e-02,2.00172e+01
7.32914e-02,1.87424e+01
7.55858e-02,1.75474e+01
7.79520e-02,1.64272e+01
8.03923e-02,1.53771e+01
8.29090e-02,1.43929e+01
8.55044e-02,1.34705e+01
8.81812e-02,1.26059e+01
9.09417e-02,1.17956e+01
9.37886e-02,1.10363e+01
9.67247e-02,1.03247e+01
9.97527e-02,9.65798e+00
1.02875e-01,9.03322e+00
1.06096e-01,8.44786e+00
1.09417e-01,7.89945e+00
1.12843e-01,7.38569e+00
1.16375e-01,6.90442e+00
1.20018e-01,6.45362e+00
1.23776e-01,6.03139e+00
1.27650e-01,5.63595e+00
1.31646e-01,5.26563e+00
1.35768e-01,4.91885e+00
1.40018e-01,4.59416e+00
1.44401e-01,4.29018e+00
1.48922e-01,4.00560e+00
1.53584e-01,3.73922e+00
1.58392e-01,3.48990e+00
1.63350e-01,3.25657e+00
1.68464e-01,3.03823e+00
1.73738e-01,2.83394e+00
1.79176e-01,2.64282e+00
1.84786e-01,2.46404e+00
1.90570e-01,2.29684e+00
1.96536e-01,2.14047e+00
2.02689e-01,1.99426e+00
2.09034e-01,1.85757e+00
2.15578e-01,1.72980e+00
2.22326e-01,1.61038e+00
2.29286e-01,1.49880e+00
2.36464e-01,1.39455e+00
2.43867e-01,1.29717e+00
2.51501e-01,1.20622e+00
2.59374e-01,1.12130e+00
2.67494e-01,1.04202e+00
2.75868e-01,9.68024e-01
2.84504e-01,8.98976e-01
2.93410e-01,8.34559e-01
3.02596e-01,7.74477e-01
3.12069e-01,7.18452e-01
3.21838e-01,6.66223e-01
3.31913e-01,6.17547e-01
3.42304e-01,5.72194e-01
3.53019e-01,5.29949e-01
3.64071e-01,4.90612e-01
3.75468e-01,4.53993e-01
3.87222e-01,4.19916e-01
3.99344e-01,3.88214e-01
4.11846e-01,3.58732e-01
4.24739e-01,3.31325e-01
4.38035e-01,3.05855e-01
4.51748e-01,2.82195e-01
4.65890e-01,2.60224e-01
4.80475e-01,2.39830e-01
4.95516e-01,2.20908e-01
5.11028e-01,2.03358e-01
5.27026e-01,1.87090e-01
5.43524e-01,1.72014e-01
5.60540e-01,1.58052e-01
5.78087e-01,1.45126e-01
5.96184e-01,1.33165e-01
6.14848e-01,1.22104e-01
6.34096e-01,1.11878e-01
6.53946e-01,1.02431e-01
6.74418e-01,9.37074e-02
6.95531e-01,8.56562e-02
7.17305e-01,7.82298e-02
7.39760e-01,7.13835e-02
7.62918e-01,6.50755e-02
7.86801e-01,5.92670e-02
8.11432e-01,5.39216e-02
8.36834e-01,4.90052e-02
8.63032e-01,4.44862e-02
8.90049e-01,4.03349e-02
9.17912e-01,3.65239e-02
9.46647e-01,3.30273e-02
9.76282e-01,2.98214e-02
1.00684e+00,2.68837e-02
1.03836e+00,2.41936e-02
1.07087e+00,2.17317e-02
1.10439e+00,1.94802e-02
1.13897e+00,1.74223e-02
1.17462e+00,1.55427e-02
1.21139e+00,1.38270e-02
1.24932e+00,1.22618e-02
1.28843e+00,1.08350e-02
1.32876e+00,9.53502e-03
1.37036e+00,8.35143e-03
1.41326e+00,7.27445e-03
1.45750e+00,6.29509e-03
1.50313e+00,5.40505e-03
1.55018e+00,4.59667e-03
1.59871e+00,3.86290e-03
1.64876e+00,3.19725e-03
1.70037e+00,2.59374e-03
1.75360e+00,2.04689e-03
1.80850e+00,1.55165e-03
1.86512e+00,1.10341e-03
1.92350e+00,6.97920e-04
1.98372e+00,3.31302e-04
2.04582e+00,0.00000e+00
