m1=11288.766, m2=42.131, gsp=2.126, rhosp=891.053
fGW[Hz],dPh[rad]
3.03825e-03,2.45634e+02
3.11329e-03,2.32389e+02
3.19019e-03,2.19854e+02
3.26899e-03,2.07992e+02
3.34973e-03,1.96765e+02
3.43247e-03,1.86141e+02
3.51724e-03,1.76087e+02
3.60412e-03,1.66573e+02
3.69314e-03,1.57569e+02
3.78436e-03,1.49049e+02
3.87783e-03,1.40986e+02
3.97361e-03,1.33355e+02
4.07175e-03,1.26135e+02
4.17232e-03,1.19303e+02
4.27538e-03,1.12838e+02
4.38098e-03,1.06720e+02
4.48918e-03,1.00931e+02
4.60006e-03,9.54531e+01
4.71368e-03,9.02701e+01
4.83011e-03,8.53658e+01
4.94941e-03,8.07254e+01
5.07166e-03,7.63348e+01
5.19692e-03,7.21805e+01
5.32528e-03,6.82500e+01
5.45682e-03,6.45312e+01
5.59160e-03,6.10128e+01
5.72970e-03,5.76840e+01
5.87122e-03,5.45347e+01
6.01624e-03,5.15553e+01
6.16484e-03,4.87366e+01
6.31711e-03,4.60701e+01
6.47313e-03,4.35475e+01
6.63302e-03,4.11612e+01
6.79685e-03,3.89039e+01
6.96473e-03,3.67686e+01
7.13675e-03,3.47487e+01
7.31302e-03,3.28382e+01
7.49365e-03,3.10311e+01
7.67874e-03,2.93218e+01
7.86840e-03,2.77052e+01
8.06274e-03,2.61761e+01
8.26189e-03,2.47301e+01
8.46595e-03,2.33625e+01
8.67506e-03,2.20691e+01
8.88933e-03,2.08460e+01
9.10889e-03,1.96894e+01
9.33387e-03,1.85957e+01
9.56441e-03,1.75616e+01
9.80065e-03,1.65838e+01
1.00427e-02,1.56592e+01
1.02908e-02,1.47851e+01
1.05449e-02,1.39587e+01
1.08054e-02,1.31774e+01
1.10723e-02,1.24389e+01
1.13458e-02,1.17407e+01
1.16260e-02,1.10807e+01
1.19131e-02,1.04570e+01
1.22074e-02,9.86741e+00
1.25089e-02,9.31020e+00
1.28179e-02,8.78362e+00
1.31345e-02,8.28599e+00
1.34589e-02,7.81576e+00
1.37913e-02,7.37145e+00
1.41319e-02,6.95164e+00
1.44810e-02,6.55503e+00
1.48387e-02,6.18034e+00
1.52052e-02,5.82639e+00
1.55807e-02,5.49206e+00
1.59656e-02,5.17628e+00
1.63599e-02,4.87805e+00
1.67640e-02,4.59640e+00
1.71780e-02,4.33045e+00
1.76023e-02,4.07934e+00
1.80371e-02,3.84226e+00
1.84826e-02,3.61844e+00
1.89391e-02,3.40716e+00
1.94069e-02,3.20774e+00
1.98862e-02,3.01954e+00
2.03774e-02,2.84193e+00
2.08807e-02,2.67434e+00
2.13965e-02,2.51622e+00
2.19249e-02,2.36705e+00
2.24665e-02,2.22635e+00
2.30214e-02,2.09364e+00
2.35900e-02,1.96849e+00
2.41727e-02,1.85048e+00
2.47697e-02,1.73921e+00
2.53815e-02,1.63433e+00
2.60084e-02,1.53546e+00
2.66508e-02,1.44229e+00
2.73091e-02,1.35450e+00
2.79836e-02,1.27178e+00
2.86748e-02,1.19386e+00
2.93830e-02,1.12047e+00
3.01088e-02,1.05136e+00
3.08524e-02,9.86283e-01
3.16145e-02,9.25023e-01
3.23953e-02,8.67363e-01
3.31955e-02,8.13101e-01
3.40154e-02,7.62047e-01
3.48555e-02,7.14020e-01
3.57164e-02,6.68849e-01
3.65986e-02,6.26374e-01
3.75026e-02,5.86441e-01
3.84289e-02,5.48907e-01
3.93780e-02,5.13635e-01
4.03506e-02,4.80495e-01
4.13473e-02,4.49367e-01
4.23685e-02,4.20135e-01
4.34150e-02,3.92690e-01
4.44873e-02,3.66930e-01
4.55861e-02,3.42756e-01
4.67121e-02,3.20077e-01
4.78659e-02,2.98806e-01
4.90481e-02,2.78861e-01
5.02596e-02,2.60165e-01
5.15010e-02,2.42644e-01
5.27730e-02,2.26230e-01
5.40765e-02,2.10856e-01
5.54121e-02,1.96461e-01
5.67808e-02,1.82987e-01
5.81832e-02,1.70379e-01
5.96203e-02,1.58585e-01
6.10929e-02,1.47555e-01
6.26018e-02,1.37245e-01
6.41481e-02,1.27609e-01
6.57325e-02,1.18607e-01
6.73560e-02,1.10200e-01
6.90197e-02,1.02352e-01
7.07244e-02,9.50277e-02
7.24713e-02,8.81947e-02
7.42613e-02,8.18223e-02
7.60955e-02,7.58818e-02
7.79750e-02,7.03459e-02
7.99009e-02,6.51890e-02
8.18745e-02,6.03868e-02
8.38967e-02,5.59168e-02
8.59689e-02,5.17575e-02
8.80923e-02,4.78888e-02
9.02681e-02,4.42918e-02
9.24977e-02,4.09488e-02
9.47823e-02,3.78430e-02
9.71234e-02,3.49587e-02
9.95223e-02,3.22812e-02
1.01980e-01,2.97966e-02
1.04499e-01,2.74920e-02
1.07080e-01,2.53552e-02
1.09725e-01,2.33747e-02
1.12435e-01,2.15399e-02
1.15212e-01,1.98407e-02
1.18058e-01,1.82676e-02
1.20974e-01,1.68120e-02
1.23962e-01,1.54656e-02
1.27024e-01,1.42206e-02
1.30161e-01,1.30699e-02
1.33376e-01,1.20068e-02
1.36670e-01,1.10249e-02
1.40046e-01,1.01184e-02
1.43505e-01,9.28192e-03
1.47050e-01,8.51021e-03
1.50682e-01,7.79857e-03
1.54403e-01,7.14256e-03
1.58217e-01,6.53806e-03
1.62125e-01,5.98122e-03
1.66129e-01,5.46847e-03
1.70233e-01,4.99648e-03
1.74437e-01,4.56216e-03
1.78746e-01,4.16264e-03
1.83161e-01,3.79526e-03
1.87685e-01,3.45754e-03
1.92320e-01,3.14718e-03
1.97071e-01,2.86207e-03
2.01938e-01,2.60023e-03
2.06926e-01,2.35983e-03
2.12037e-01,2.13919e-03
2.17274e-01,1.93674e-03
2.22640e-01,1.75104e-03
2.28140e-01,1.58074e-03
2.33774e-01,1.42462e-03
2.39549e-01,1.28152e-03
2.45465e-01,1.15041e-03
2.51528e-01,1.03031e-03
2.57741e-01,9.20313e-04
2.64107e-01,8.19603e-04
2.70630e-01,7.27416e-04
2.77314e-01,6.43051e-04
2.84164e-01,5.65861e-04
2.91183e-01,4.95251e-04
2.98375e-01,4.30676e-04
3.05744e-01,3.71630e-04
3.13296e-01,3.17653e-04
3.21034e-01,2.68318e-04
3.28963e-01,2.23235e-04
3.37089e-01,1.82045e-04
3.45415e-01,1.44420e-04
3.53946e-01,1.10055e-04
3.62688e-01,7.86751e-05
3.71647e-01,5.00248e-05
3.80826e-01,2.38711e-05
3.90232e-01,0.00000e+00
