m1=2680.971, m2=3.562, gsp=2.342, rhosp=1646.872
fGW[Hz],dPh[rad]
1.09881e-02,6.42275e+04
1.12680e-02,6.08571e+04
1.15551e-02,5.76618e+04
1.18495e-02,5.46324e+04
1.21514e-02,5.17605e+04
1.24609e-02,4.90378e+04
1.27784e-02,4.64566e+04
1.31039e-02,4.40097e+04
1.34378e-02,4.16901e+04
1.37801e-02,3.94912e+04
1.41312e-02,3.74068e+04
1.44912e-02,3.54309e+04
1.48604e-02,3.35579e+04
1.52390e-02,3.17825e+04
1.56273e-02,3.00997e+04
1.60254e-02,2.85046e+04
1.64337e-02,2.69927e+04
1.68523e-02,2.55597e+04
1.72817e-02,2.42016e+04
1.77220e-02,2.29144e+04
1.81735e-02,2.16944e+04
1.86365e-02,2.05383e+04
1.91113e-02,1.94426e+04
1.95981e-02,1.84043e+04
2.00974e-02,1.74203e+04
2.06095e-02,1.64879e+04
2.11345e-02,1.56044e+04
2.16730e-02,1.47672e+04
2.22251e-02,1.39740e+04
2.27913e-02,1.32224e+04
2.33720e-02,1.25104e+04
2.39674e-02,1.18358e+04
2.45780e-02,1.11966e+04
2.52042e-02,1.05912e+04
2.58463e-02,1.00176e+04
2.65048e-02,9.47434e+03
2.71801e-02,8.95973e+03
2.78725e-02,8.47231e+03
2.85826e-02,8.01066e+03
2.93108e-02,7.57345e+03
3.00576e-02,7.15940e+03
3.08233e-02,6.76731e+03
3.16086e-02,6.39602e+03
3.24139e-02,6.04447e+03
3.32397e-02,5.71162e+03
3.40865e-02,5.39649e+03
3.49549e-02,5.09816e+03
3.58455e-02,4.81575e+03
3.67587e-02,4.54843e+03
3.76952e-02,4.29542e+03
3.86555e-02,4.05596e+03
3.96404e-02,3.82934e+03
4.06503e-02,3.61490e+03
4.16859e-02,3.41200e+03
4.27479e-02,3.22003e+03
4.38370e-02,3.03841e+03
4.49538e-02,2.86661e+03
4.60991e-02,2.70411e+03
4.72736e-02,2.55043e+03
4.84779e-02,2.40508e+03
4.97130e-02,2.26765e+03
5.09795e-02,2.13771e+03
5.22783e-02,2.01486e+03
5.36102e-02,1.89874e+03
5.49760e-02,1.78899e+03
5.63766e-02,1.68526e+03
5.78129e-02,1.58725e+03
5.92858e-02,1.49465e+03
6.07962e-02,1.40717e+03
6.23451e-02,1.32453e+03
6.39334e-02,1.24649e+03
6.55622e-02,1.17280e+03
6.72325e-02,1.10323e+03
6.89454e-02,1.03755e+03
7.07019e-02,9.75558e+02
7.25032e-02,9.17058e+02
7.43503e-02,8.61862e+02
7.62445e-02,8.09792e+02
7.81870e-02,7.60680e+02
8.01789e-02,7.14366e+02
8.22216e-02,6.70700e+02
8.43163e-02,6.29538e+02
8.64644e-02,5.90744e+02
8.86673e-02,5.54191e+02
9.09262e-02,5.19755e+02
9.32427e-02,4.87322e+02
9.56182e-02,4.56782e+02
9.80543e-02,4.28030e+02
1.00552e-01,4.00970e+02
1.03114e-01,3.75507e+02
1.05741e-01,3.51553e+02
1.08435e-01,3.29025e+02
1.11198e-01,3.07844e+02
1.14031e-01,2.87934e+02
1.16936e-01,2.69224e+02
1.19915e-01,2.51647e+02
1.22970e-01,2.35139e+02
1.26103e-01,2.19640e+02
1.29315e-01,2.05092e+02
1.32610e-01,1.91441e+02
1.35988e-01,1.78637e+02
1.39453e-01,1.66630e+02
1.43006e-01,1.55374e+02
1.46649e-01,1.44827e+02
1.50385e-01,1.34946e+02
1.54217e-01,1.25694e+02
1.58146e-01,1.17032e+02
1.62175e-01,1.08927e+02
1.66306e-01,1.01345e+02
1.70543e-01,9.42546e+01
1.74888e-01,8.76273e+01
1.79344e-01,8.14350e+01
1.83913e-01,7.56511e+01
1.88598e-01,7.02510e+01
1.93403e-01,6.52112e+01
1.98330e-01,6.05095e+01
2.03383e-01,5.61249e+01
2.08565e-01,5.20379e+01
2.13878e-01,4.82296e+01
2.19327e-01,4.46827e+01
2.24915e-01,4.13805e+01
2.30645e-01,3.83074e+01
2.36521e-01,3.54488e+01
2.42547e-01,3.27908e+01
2.48726e-01,3.03204e+01
2.55063e-01,2.80253e+01
2.61561e-01,2.58939e+01
2.68225e-01,2.39155e+01
2.75058e-01,2.20799e+01
2.82066e-01,2.03774e+01
2.89252e-01,1.87991e+01
2.96621e-01,1.73366e+01
3.04178e-01,1.59819e+01
3.11927e-01,1.47275e+01
3.19874e-01,1.35667e+01
3.28024e-01,1.24928e+01
3.36381e-01,1.14997e+01
3.44951e-01,1.05817e+01
3.53739e-01,9.73353e+00
3.62751e-01,8.95016e+00
3.71993e-01,8.22692e+00
3.81470e-01,7.55946e+00
3.91188e-01,6.94373e+00
4.01155e-01,6.37593e+00
4.11375e-01,5.85253e+00
4.21855e-01,5.37024e+00
4.32603e-01,4.92599e+00
4.43624e-01,4.51693e+00
4.54926e-01,4.14041e+00
4.66516e-01,3.79396e+00
4.78401e-01,3.47529e+00
4.90589e-01,3.18227e+00
5.03088e-01,2.91293e+00
5.15905e-01,2.66543e+00
5.29049e-01,2.43807e+00
5.42527e-01,2.22929e+00
5.56349e-01,2.03762e+00
5.70523e-01,1.86171e+00
5.85058e-01,1.70031e+00
5.99963e-01,1.55227e+00
6.15248e-01,1.41652e+00
6.30923e-01,1.29208e+00
6.46997e-01,1.17802e+00
6.63480e-01,1.07352e+00
6.80383e-01,9.77798e-01
6.97717e-01,8.90132e-01
7.15493e-01,8.09867e-01
7.33721e-01,7.36395e-01
7.52414e-01,6.69155e-01
7.71583e-01,6.07633e-01
7.91240e-01,5.51355e-01
8.11399e-01,4.99884e-01
8.32070e-01,4.52818e-01
8.53269e-01,4.09790e-01
8.75007e-01,3.70460e-01
8.97300e-01,3.34516e-01
9.20160e-01,3.01674e-01
9.43602e-01,2.71670e-01
9.67642e-01,2.44264e-01
9.92295e-01,2.19235e-01
1.01758e+00,1.96380e-01
1.04350e+00,1.75513e-01
1.07008e+00,1.56464e-01
1.09735e+00,1.39078e-01
1.12530e+00,1.23211e-01
1.15397e+00,1.08733e-01
1.18337e+00,9.55227e-02
1.21352e+00,8.34716e-02
1.24444e+00,7.24791e-02
1.27614e+00,6.24532e-02
1.30865e+00,5.33099e-02
1.34199e+00,4.49725e-02
1.37618e+00,3.73707e-02
1.41124e+00,3.04402e-02
1.44720e+00,2.41224e-02
1.48407e+00,1.83636e-02
1.52188e+00,1.31148e-02
1.56065e+00,8.33130e-03
1.60041e+00,3.97214e-03
1.64118e+00,0.00000e+00
