m1=123936.169, m2=33.955, gsp=2.400, rhosp=1988.710
fGW[Hz],dPh[rad]
1.80899e-03,1.16152e+05
1.83625e-03,1.11319e+05
1.86392e-03,1.06672e+05
1.89201e-03,1.02206e+05
1.92052e-03,9.79142e+04
1.94946e-03,9.37897e+04
1.97883e-03,8.98268e+04
2.00865e-03,8.60197e+04
2.03892e-03,8.23629e+04
2.06964e-03,7.88508e+04
2.10083e-03,7.54783e+04
2.13249e-03,7.22401e+04
2.16462e-03,6.91316e+04
2.19724e-03,6.61477e+04
2.23035e-03,6.32841e+04
2.26396e-03,6.05362e+04
2.29807e-03,5.78997e+04
2.33270e-03,5.53706e+04
2.36785e-03,5.29447e+04
2.40353e-03,5.06182e+04
2.43975e-03,4.83874e+04
2.47651e-03,4.62486e+04
2.51383e-03,4.41984e+04
2.55171e-03,4.22334e+04
2.59016e-03,4.03503e+04
2.62919e-03,3.85460e+04
2.66881e-03,3.68174e+04
2.70902e-03,3.51616e+04
2.74984e-03,3.35759e+04
2.79128e-03,3.20574e+04
2.83334e-03,3.06035e+04
2.87604e-03,2.92117e+04
2.91937e-03,2.78795e+04
2.96336e-03,2.66046e+04
3.00802e-03,2.53847e+04
3.05334e-03,2.42176e+04
3.09935e-03,2.31012e+04
3.14606e-03,2.20334e+04
3.19346e-03,2.10123e+04
3.24159e-03,2.00360e+04
3.29043e-03,1.91026e+04
3.34001e-03,1.82105e+04
3.39034e-03,1.73578e+04
3.44143e-03,1.65430e+04
3.49329e-03,1.57646e+04
3.54593e-03,1.50209e+04
3.59936e-03,1.43106e+04
3.65360e-03,1.36322e+04
3.70865e-03,1.29845e+04
3.76454e-03,1.23660e+04
3.82126e-03,1.17757e+04
3.87884e-03,1.12122e+04
3.93729e-03,1.06745e+04
3.99662e-03,1.01613e+04
4.05685e-03,9.67180e+03
4.11798e-03,9.20481e+03
4.18003e-03,8.75940e+03
4.24302e-03,8.33463e+03
4.30695e-03,7.92959e+03
4.37185e-03,7.54342e+03
4.43773e-03,7.17529e+03
4.50460e-03,6.82441e+03
4.57248e-03,6.49000e+03
4.64138e-03,6.17135e+03
4.71132e-03,5.86775e+03
4.78231e-03,5.57851e+03
4.85438e-03,5.30300e+03
4.92752e-03,5.04061e+03
5.00178e-03,4.79072e+03
5.07715e-03,4.55279e+03
5.15365e-03,4.32626e+03
5.23131e-03,4.11061e+03
5.31014e-03,3.90535e+03
5.39015e-03,3.71000e+03
5.47138e-03,3.52410e+03
5.55382e-03,3.34721e+03
5.63751e-03,3.17892e+03
5.72246e-03,3.01882e+03
5.80869e-03,2.86654e+03
5.89622e-03,2.72171e+03
5.98507e-03,2.58398e+03
6.07525e-03,2.45301e+03
6.16680e-03,2.32848e+03
6.25972e-03,2.21010e+03
6.35405e-03,2.09757e+03
6.44980e-03,1.99061e+03
6.54699e-03,1.88895e+03
6.64564e-03,1.79235e+03
6.74578e-03,1.70055e+03
6.84743e-03,1.61333e+03
6.95061e-03,1.53047e+03
7.05535e-03,1.45176e+03
7.16166e-03,1.37699e+03
7.26958e-03,1.30598e+03
7.37912e-03,1.23854e+03
7.49031e-03,1.17450e+03
7.60318e-03,1.11369e+03
7.71775e-03,1.05595e+03
7.83405e-03,1.00114e+03
7.95210e-03,9.49105e+02
8.07192e-03,8.99713e+02
8.19356e-03,8.52832e+02
8.31702e-03,8.08337e+02
8.44235e-03,7.66112e+02
8.56956e-03,7.26043e+02
8.69869e-03,6.88023e+02
8.82977e-03,6.51949e+02
8.96282e-03,6.17724e+02
9.09788e-03,5.85256e+02
9.23497e-03,5.54457e+02
9.37413e-03,5.25243e+02
9.51539e-03,4.97533e+02
9.65877e-03,4.71253e+02
9.80432e-03,4.46330e+02
9.95205e-03,4.22695e+02
1.01020e-02,4.00284e+02
1.02542e-02,3.79033e+02
1.04088e-02,3.58885e+02
1.05656e-02,3.39783e+02
1.07248e-02,3.21673e+02
1.08864e-02,3.04506e+02
1.10505e-02,2.88232e+02
1.12170e-02,2.72807e+02
1.13860e-02,2.58187e+02
1.15576e-02,2.44329e+02
1.17317e-02,2.31197e+02
1.19085e-02,2.18751e+02
1.20880e-02,2.06957e+02
1.22701e-02,1.95781e+02
1.24550e-02,1.85191e+02
1.26427e-02,1.75156e+02
1.28332e-02,1.65649e+02
1.30266e-02,1.56642e+02
1.32229e-02,1.48108e+02
1.34221e-02,1.40024e+02
1.36244e-02,1.32366e+02
1.38297e-02,1.25111e+02
1.40381e-02,1.18239e+02
1.42496e-02,1.11730e+02
1.44643e-02,1.05565e+02
1.46823e-02,9.97254e+01
1.49035e-02,9.41949e+01
1.51281e-02,8.89571e+01
1.53560e-02,8.39968e+01
1.55874e-02,7.92992e+01
1.58223e-02,7.48508e+01
1.60607e-02,7.06383e+01
1.63028e-02,6.66495e+01
1.65484e-02,6.28725e+01
1.67978e-02,5.92961e+01
1.70509e-02,5.59099e+01
1.73078e-02,5.27039e+01
1.75686e-02,4.96684e+01
1.78334e-02,4.67946e+01
1.81021e-02,4.40738e+01
1.83749e-02,4.14980e+01
1.86518e-02,3.90596e+01
1.89328e-02,3.67512e+01
1.92181e-02,3.45660e+01
1.95077e-02,3.24974e+01
1.98016e-02,3.05394e+01
2.01000e-02,2.86859e+01
2.04029e-02,2.69315e+01
2.07104e-02,2.52709e+01
2.10224e-02,2.36991e+01
2.13392e-02,2.22114e+01
2.16608e-02,2.08034e+01
2.19872e-02,1.94707e+01
2.23185e-02,1.82095e+01
2.26548e-02,1.70158e+01
2.29962e-02,1.58860e+01
2.33427e-02,1.48169e+01
2.36944e-02,1.38051e+01
2.40515e-02,1.28476e+01
2.44139e-02,1.19414e+01
2.47818e-02,1.10839e+01
2.51552e-02,1.02724e+01
2.55343e-02,9.50456e+00
2.59190e-02,8.77793e+00
2.63096e-02,8.09035e+00
2.67060e-02,7.43972e+00
2.71085e-02,6.82407e+00
2.75169e-02,6.24153e+00
2.79316e-02,5.69032e+00
2.83525e-02,5.16877e+00
2.87797e-02,4.67528e+00
2.92134e-02,4.20836e+00
2.96536e-02,3.76657e+00
3.01004e-02,3.34857e+00
3.05540e-02,2.95309e+00
3.10144e-02,2.57891e+00
3.14817e-02,2.22488e+00
3.19561e-02,1.88994e+00
3.24377e-02,1.57305e+00
3.29265e-02,1.27325e+00
3.34226e-02,9.89607e-01
3.39262e-02,7.21262e-01
3.44375e-02,4.67392e-01
3.49564e-02,2.27217e-01
3.54831e-02,0.00000e+00
