m1=700075.465, m2=85.853, gsp=2.130, rhosp=5204.246
fGW[Hz],dPh[rad]
8.28652e-04,6.12504e+02
8.37129e-04,5.90100e+02
8.45693e-04,5.68494e+02
8.54345e-04,5.47660e+02
8.63086e-04,5.27570e+02
8.71915e-04,5.08200e+02
8.80835e-04,4.89524e+02
8.89847e-04,4.71518e+02
8.98950e-04,4.54159e+02
9.08147e-04,4.37425e+02
9.17438e-04,4.21293e+02
9.26823e-04,4.05742e+02
9.36305e-04,3.90753e+02
9.45884e-04,3.76305e+02
9.55561e-04,3.62380e+02
9.65337e-04,3.48959e+02
9.75213e-04,3.36025e+02
9.85189e-04,3.23560e+02
9.95268e-04,3.11548e+02
1.00545e-03,2.99972e+02
1.01574e-03,2.88818e+02
1.02613e-03,2.78071e+02
1.03663e-03,2.67715e+02
1.04723e-03,2.57738e+02
1.05794e-03,2.48125e+02
1.06877e-03,2.38864e+02
1.07970e-03,2.29942e+02
1.09075e-03,2.21347e+02
1.10191e-03,2.13068e+02
1.11318e-03,2.05092e+02
1.12457e-03,1.97410e+02
1.13607e-03,1.90010e+02
1.14770e-03,1.82883e+02
1.15944e-03,1.76018e+02
1.17130e-03,1.69407e+02
1.18328e-03,1.63039e+02
1.19539e-03,1.56907e+02
1.20762e-03,1.51002e+02
1.21997e-03,1.45315e+02
1.23245e-03,1.39839e+02
1.24506e-03,1.34566e+02
1.25780e-03,1.29488e+02
1.27067e-03,1.24599e+02
1.28366e-03,1.19891e+02
1.29680e-03,1.15359e+02
1.31006e-03,1.10995e+02
1.32347e-03,1.06794e+02
1.33701e-03,1.02749e+02
1.35068e-03,9.88554e+01
1.36450e-03,9.51069e+01
1.37846e-03,9.14983e+01
1.39256e-03,8.80246e+01
1.40681e-03,8.46807e+01
1.42120e-03,8.14620e+01
1.43574e-03,7.83638e+01
1.45043e-03,7.53817e+01
1.46527e-03,7.25113e+01
1.48026e-03,6.97487e+01
1.49540e-03,6.70898e+01
1.51070e-03,6.45307e+01
1.52616e-03,6.20678e+01
1.54177e-03,5.96976e+01
1.55754e-03,5.74165e+01
1.57348e-03,5.52213e+01
1.58958e-03,5.31088e+01
1.60584e-03,5.10759e+01
1.62227e-03,4.91197e+01
1.63886e-03,4.72373e+01
1.65563e-03,4.54260e+01
1.67257e-03,4.36831e+01
1.68968e-03,4.20061e+01
1.70696e-03,4.03925e+01
1.72443e-03,3.88399e+01
1.74207e-03,3.73461e+01
1.75989e-03,3.59089e+01
1.77789e-03,3.45261e+01
1.79608e-03,3.31957e+01
1.81446e-03,3.19158e+01
1.83302e-03,3.06845e+01
1.85177e-03,2.94999e+01
1.87072e-03,2.83603e+01
1.88986e-03,2.72639e+01
1.90919e-03,2.62093e+01
1.92872e-03,2.51947e+01
1.94845e-03,2.42188e+01
1.96839e-03,2.32800e+01
1.98853e-03,2.23769e+01
2.00887e-03,2.15082e+01
2.02942e-03,2.06726e+01
2.05018e-03,1.98689e+01
2.07116e-03,1.90959e+01
2.09235e-03,1.83523e+01
2.11375e-03,1.76371e+01
2.13538e-03,1.69492e+01
2.15722e-03,1.62875e+01
2.17929e-03,1.56512e+01
2.20159e-03,1.50391e+01
2.22411e-03,1.44505e+01
2.24686e-03,1.38844e+01
2.26985e-03,1.33399e+01
2.29307e-03,1.28163e+01
2.31653e-03,1.23127e+01
2.34023e-03,1.18284e+01
2.36417e-03,1.13626e+01
2.38836e-03,1.09147e+01
2.41279e-03,1.04840e+01
2.43747e-03,1.00698e+01
2.46241e-03,9.67143e+00
2.48760e-03,9.28838e+00
2.51305e-03,8.92002e+00
2.53876e-03,8.56581e+00
2.56473e-03,8.22519e+00
2.59097e-03,7.89766e+00
2.61748e-03,7.58271e+00
2.64426e-03,7.27986e+00
2.67131e-03,6.98865e+00
2.69864e-03,6.70864e+00
2.72625e-03,6.43939e+00
2.75414e-03,6.18050e+00
2.78231e-03,5.93158e+00
2.81078e-03,5.69223e+00
2.83953e-03,5.46209e+00
2.86858e-03,5.24082e+00
2.89793e-03,5.02807e+00
2.92758e-03,4.82351e+00
2.95753e-03,4.62684e+00
2.98778e-03,4.43774e+00
3.01835e-03,4.25593e+00
3.04923e-03,4.08114e+00
3.08042e-03,3.91308e+00
3.11194e-03,3.75150e+00
3.14378e-03,3.59616e+00
3.17594e-03,3.44681e+00
3.20843e-03,3.30323e+00
3.24125e-03,3.16519e+00
3.27441e-03,3.03247e+00
3.30791e-03,2.90488e+00
3.34175e-03,2.78222e+00
3.37594e-03,2.66430e+00
3.41048e-03,2.55093e+00
3.44537e-03,2.44195e+00
3.48062e-03,2.33717e+00
3.51622e-03,2.23645e+00
3.55220e-03,2.13962e+00
3.58854e-03,2.04654e+00
3.62525e-03,1.95705e+00
3.66234e-03,1.87103e+00
3.69980e-03,1.78833e+00
3.73765e-03,1.70883e+00
3.77589e-03,1.63241e+00
3.81452e-03,1.55895e+00
3.85355e-03,1.48833e+00
3.89297e-03,1.42045e+00
3.93280e-03,1.35519e+00
3.97303e-03,1.29246e+00
4.01368e-03,1.23216e+00
4.05474e-03,1.17420e+00
4.09622e-03,1.11848e+00
4.13813e-03,1.06492e+00
4.18046e-03,1.01344e+00
4.22323e-03,9.63949e-01
4.26643e-03,9.16379e-01
4.31008e-03,8.70653e-01
4.35418e-03,8.26700e-01
4.39872e-03,7.84451e-01
4.44372e-03,7.43840e-01
4.48918e-03,7.04804e-01
4.53511e-03,6.67283e-01
4.58151e-03,6.31217e-01
4.62838e-03,5.96550e-01
4.67573e-03,5.63228e-01
4.72356e-03,5.31200e-01
4.77189e-03,5.00414e-01
4.82071e-03,4.70823e-01
4.87002e-03,4.42381e-01
4.91985e-03,4.15043e-01
4.97018e-03,3.88767e-01
5.02102e-03,3.63510e-01
5.07239e-03,3.39235e-01
5.12429e-03,3.15902e-01
5.17671e-03,2.93475e-01
5.22967e-03,2.71920e-01
5.28317e-03,2.51201e-01
5.33722e-03,2.31288e-01
5.39182e-03,2.12148e-01
5.44698e-03,1.93752e-01
5.50271e-03,1.76071e-01
5.55900e-03,1.59077e-01
5.61587e-03,1.42744e-01
5.67333e-03,1.27045e-01
5.73137e-03,1.11956e-01
5.79000e-03,9.74545e-02
5.84924e-03,8.35163e-02
5.90908e-03,7.01201e-02
5.96953e-03,5.72447e-02
6.03060e-03,4.48699e-02
6.09230e-03,3.29764e-02
6.15462e-03,2.15455e-02
6.21759e-03,1.05591e-02
6.28120e-03,0.00000e+00
