m1=9596.949, m2=4.646, gsp=2.115, rhosp=52.376
fGW[Hz],dPh[rad]
7.23011e-03,7.09137e+02
7.38245e-03,6.74083e+02
7.53799e-03,6.40703e+02
7.69681e-03,6.08921e+02
7.85898e-03,5.78660e+02
8.02456e-03,5.49851e+02
8.19363e-03,5.22424e+02
8.36627e-03,4.96316e+02
8.54254e-03,4.71465e+02
8.72252e-03,4.47811e+02
8.90630e-03,4.25298e+02
9.09395e-03,4.03873e+02
9.28555e-03,3.83485e+02
9.48119e-03,3.64085e+02
9.68095e-03,3.45626e+02
9.88492e-03,3.28064e+02
1.00932e-02,3.11358e+02
1.03058e-02,2.95465e+02
1.05230e-02,2.80349e+02
1.07447e-02,2.65972e+02
1.09711e-02,2.52299e+02
1.12022e-02,2.39298e+02
1.14383e-02,2.26936e+02
1.16793e-02,2.15183e+02
1.19253e-02,2.04010e+02
1.21766e-02,1.93389e+02
1.24331e-02,1.83294e+02
1.26951e-02,1.73701e+02
1.29626e-02,1.64585e+02
1.32357e-02,1.55923e+02
1.35145e-02,1.47694e+02
1.37993e-02,1.39877e+02
1.40900e-02,1.32453e+02
1.43869e-02,1.25401e+02
1.46900e-02,1.18706e+02
1.49995e-02,1.12348e+02
1.53156e-02,1.06313e+02
1.56382e-02,1.00584e+02
1.59677e-02,9.51470e+01
1.63042e-02,8.99874e+01
1.66477e-02,8.50919e+01
1.69984e-02,8.04477e+01
1.73566e-02,7.60424e+01
1.77223e-02,7.18646e+01
1.80957e-02,6.79029e+01
1.84769e-02,6.41470e+01
1.88662e-02,6.05865e+01
1.92637e-02,5.72121e+01
1.96696e-02,5.40143e+01
2.00840e-02,5.09847e+01
2.05072e-02,4.81147e+01
2.09392e-02,4.53966e+01
2.13804e-02,4.28226e+01
2.18309e-02,4.03857e+01
2.22909e-02,3.80791e+01
2.27605e-02,3.58960e+01
2.32401e-02,3.38304e+01
2.37297e-02,3.18764e+01
2.42297e-02,3.00282e+01
2.47402e-02,2.82805e+01
2.52614e-02,2.66283e+01
2.57937e-02,2.50665e+01
2.63371e-02,2.35907e+01
2.68920e-02,2.21964e+01
2.74586e-02,2.08793e+01
2.80372e-02,1.96355e+01
2.86279e-02,1.84613e+01
2.92310e-02,1.73529e+01
2.98469e-02,1.63069e+01
3.04758e-02,1.53201e+01
3.11179e-02,1.43893e+01
3.17735e-02,1.35116e+01
3.24430e-02,1.26841e+01
3.31265e-02,1.19043e+01
3.38245e-02,1.11695e+01
3.45371e-02,1.04773e+01
3.52648e-02,9.82537e+00
3.60078e-02,9.21163e+00
3.67665e-02,8.63395e+00
3.75411e-02,8.09036e+00
3.83321e-02,7.57900e+00
3.91397e-02,7.09807e+00
3.99643e-02,6.64590e+00
4.08064e-02,6.22090e+00
4.16661e-02,5.82152e+00
4.25440e-02,5.44635e+00
4.34404e-02,5.09401e+00
4.43556e-02,4.76321e+00
4.52902e-02,4.45273e+00
4.62444e-02,4.16138e+00
4.72187e-02,3.88809e+00
4.82136e-02,3.63180e+00
4.92294e-02,3.39152e+00
5.02666e-02,3.16632e+00
5.13257e-02,2.95532e+00
5.24071e-02,2.75767e+00
5.35113e-02,2.57259e+00
5.46388e-02,2.39933e+00
5.57900e-02,2.23717e+00
5.69654e-02,2.08546e+00
5.81656e-02,1.94355e+00
5.93911e-02,1.81086e+00
6.06425e-02,1.68682e+00
6.19202e-02,1.57090e+00
6.32248e-02,1.46259e+00
6.45569e-02,1.36143e+00
6.59170e-02,1.26697e+00
6.73059e-02,1.17880e+00
6.87240e-02,1.09651e+00
7.01719e-02,1.01973e+00
7.16504e-02,9.48119e-01
7.31600e-02,8.81341e-01
7.47014e-02,8.19088e-01
7.62753e-02,7.61068e-01
7.78824e-02,7.07008e-01
7.95233e-02,6.56650e-01
8.11988e-02,6.09752e-01
8.29096e-02,5.66087e-01
8.46565e-02,5.25443e-01
8.64401e-02,4.87620e-01
8.82614e-02,4.52431e-01
9.01210e-02,4.19699e-01
9.20198e-02,3.89260e-01
9.39586e-02,3.60961e-01
9.59382e-02,3.34656e-01
9.79595e-02,3.10211e-01
1.00023e-01,2.87498e-01
1.02131e-01,2.66401e-01
1.04283e-01,2.46807e-01
1.06480e-01,2.28614e-01
1.08723e-01,2.11724e-01
1.11014e-01,1.96048e-01
1.13353e-01,1.81502e-01
1.15741e-01,1.68005e-01
1.18180e-01,1.55486e-01
1.20670e-01,1.43875e-01
1.23212e-01,1.33108e-01
1.25808e-01,1.23126e-01
1.28459e-01,1.13873e-01
1.31166e-01,1.05297e-01
1.33929e-01,9.73506e-02
1.36751e-01,8.99879e-02
1.39632e-01,8.31675e-02
1.42574e-01,7.68503e-02
1.45578e-01,7.10001e-02
1.48645e-01,6.55831e-02
1.51777e-01,6.05680e-02
1.54975e-01,5.59257e-02
1.58240e-01,5.16289e-02
1.61574e-01,4.76525e-02
1.64978e-01,4.39731e-02
1.68454e-01,4.05689e-02
1.72004e-01,3.74197e-02
1.75628e-01,3.45068e-02
1.79328e-01,3.18127e-02
1.83106e-01,2.93213e-02
1.86964e-01,2.70177e-02
1.90903e-01,2.48878e-02
1.94926e-01,2.29187e-02
1.99032e-01,2.10986e-02
2.03226e-01,1.94163e-02
2.07508e-01,1.78615e-02
2.11880e-01,1.64247e-02
2.16344e-01,1.50970e-02
2.20902e-01,1.38704e-02
2.25556e-01,1.27371e-02
2.30309e-01,1.16902e-02
2.35161e-01,1.07231e-02
2.40116e-01,9.82987e-03
2.45175e-01,9.00491e-03
2.50341e-01,8.24306e-03
2.55615e-01,7.53953e-03
2.61001e-01,6.88990e-03
2.66500e-01,6.29009e-03
2.72115e-01,5.73631e-03
2.77848e-01,5.22506e-03
2.83702e-01,4.75310e-03
2.89680e-01,4.31744e-03
2.95783e-01,3.91531e-03
3.02015e-01,3.54415e-03
3.08378e-01,3.20160e-03
3.14875e-01,2.88546e-03
3.21510e-01,2.59372e-03
3.28284e-01,2.32450e-03
3.35200e-01,2.07607e-03
3.42263e-01,1.84685e-03
3.49474e-01,1.63535e-03
3.56837e-01,1.44022e-03
3.64355e-01,1.26020e-03
3.72032e-01,1.09411e-03
3.79871e-01,9.40898e-04
3.87874e-01,7.99561e-04
3.96046e-01,6.69186e-04
4.04391e-01,5.48926e-04
4.12911e-01,4.38000e-04
4.21611e-01,3.35687e-04
4.30494e-01,2.41323e-04
4.39564e-01,1.54291e-04
4.48825e-01,7.40245e-05
4.58282e-01,0.00000e+00
