m1=173655.364, m2=7.749, gsp=2.135, rhosp=3400.771
fGW[Hz],dPh[rad]
2.89356e-03,1.48393e+03
2.92527e-03,1.42446e+03
2.95733e-03,1.36735e+03
2.98974e-03,1.31248e+03
3.02251e-03,1.25978e+03
3.05564e-03,1.20917e+03
3.08913e-03,1.16056e+03
3.12298e-03,1.11387e+03
3.15721e-03,1.06904e+03
3.19181e-03,1.02598e+03
3.22680e-03,9.84630e+02
3.26216e-03,9.44925e+02
3.29791e-03,9.06798e+02
3.33406e-03,8.70189e+02
3.37060e-03,8.35038e+02
3.40754e-03,8.01288e+02
3.44489e-03,7.68884e+02
3.48264e-03,7.37773e+02
3.52081e-03,7.07905e+02
3.55940e-03,6.79231e+02
3.59841e-03,6.51704e+02
3.63785e-03,6.25279e+02
3.67772e-03,5.99912e+02
3.71803e-03,5.75562e+02
3.75878e-03,5.52189e+02
3.79997e-03,5.29754e+02
3.84162e-03,5.08221e+02
3.88372e-03,4.87552e+02
3.92629e-03,4.67715e+02
3.96932e-03,4.48676e+02
4.01282e-03,4.30403e+02
4.05680e-03,4.12867e+02
4.10126e-03,3.96038e+02
4.14621e-03,3.79887e+02
4.19166e-03,3.64388e+02
4.23760e-03,3.49515e+02
4.28404e-03,3.35243e+02
4.33099e-03,3.21548e+02
4.37846e-03,3.08407e+02
4.42645e-03,2.95798e+02
4.47496e-03,2.83699e+02
4.52400e-03,2.72090e+02
4.57359e-03,2.60952e+02
4.62371e-03,2.50265e+02
4.67439e-03,2.40012e+02
4.72562e-03,2.30175e+02
4.77741e-03,2.20738e+02
4.82977e-03,2.11684e+02
4.88270e-03,2.02998e+02
4.93622e-03,1.94665e+02
4.99032e-03,1.86671e+02
5.04501e-03,1.79003e+02
5.10030e-03,1.71647e+02
5.15620e-03,1.64590e+02
5.21271e-03,1.57821e+02
5.26985e-03,1.51328e+02
5.32760e-03,1.45100e+02
5.38599e-03,1.39125e+02
5.44502e-03,1.33395e+02
5.50470e-03,1.27899e+02
5.56503e-03,1.22627e+02
5.62602e-03,1.17571e+02
5.68768e-03,1.12721e+02
5.75002e-03,1.08069e+02
5.81304e-03,1.03608e+02
5.87675e-03,9.93297e+01
5.94116e-03,9.52262e+01
6.00627e-03,9.12908e+01
6.07210e-03,8.75165e+01
6.13865e-03,8.38969e+01
6.20593e-03,8.04256e+01
6.27394e-03,7.70967e+01
6.34270e-03,7.39043e+01
6.41222e-03,7.08428e+01
6.48250e-03,6.79070e+01
6.55354e-03,6.50917e+01
6.62537e-03,6.23920e+01
6.69798e-03,5.98032e+01
6.77139e-03,5.73207e+01
6.84561e-03,5.49402e+01
6.92063e-03,5.26576e+01
6.99648e-03,5.04688e+01
7.07316e-03,4.83701e+01
7.15068e-03,4.63577e+01
7.22905e-03,4.44281e+01
7.30828e-03,4.25779e+01
7.38838e-03,4.08038e+01
7.46936e-03,3.91029e+01
7.55122e-03,3.74719e+01
7.63398e-03,3.59082e+01
7.71765e-03,3.44089e+01
7.80223e-03,3.29714e+01
7.88774e-03,3.15931e+01
7.97419e-03,3.02717e+01
8.06159e-03,2.90048e+01
8.14994e-03,2.77901e+01
8.23927e-03,2.66256e+01
8.32957e-03,2.55091e+01
8.42086e-03,2.44387e+01
8.51315e-03,2.34124e+01
8.60645e-03,2.24286e+01
8.70078e-03,2.14854e+01
8.79614e-03,2.05811e+01
8.89254e-03,1.97142e+01
8.99000e-03,1.88831e+01
9.08853e-03,1.80864e+01
9.18814e-03,1.73225e+01
9.28884e-03,1.65903e+01
9.39065e-03,1.58884e+01
9.49357e-03,1.52154e+01
9.59762e-03,1.45703e+01
9.70280e-03,1.39519e+01
9.80915e-03,1.33591e+01
9.91665e-03,1.27908e+01
1.00253e-02,1.22460e+01
1.01352e-02,1.17238e+01
1.02463e-02,1.12232e+01
1.03586e-02,1.07433e+01
1.04721e-02,1.02833e+01
1.05869e-02,9.84235e+00
1.07029e-02,9.41966e+00
1.08202e-02,9.01448e+00
1.09388e-02,8.62608e+00
1.10587e-02,8.25378e+00
1.11799e-02,7.89691e+00
1.13024e-02,7.55483e+00
1.14263e-02,7.22693e+00
1.15515e-02,6.91262e+00
1.16781e-02,6.61134e+00
1.18061e-02,6.32256e+00
1.19355e-02,6.04575e+00
1.20663e-02,5.78042e+00
1.21986e-02,5.52610e+00
1.23323e-02,5.28233e+00
1.24674e-02,5.04867e+00
1.26041e-02,4.82471e+00
1.27422e-02,4.61004e+00
1.28819e-02,4.40428e+00
1.30231e-02,4.20707e+00
1.31658e-02,4.01803e+00
1.33101e-02,3.83685e+00
1.34560e-02,3.66318e+00
1.36034e-02,3.49673e+00
1.37525e-02,3.33719e+00
1.39033e-02,3.18427e+00
1.40556e-02,3.03771e+00
1.42097e-02,2.89723e+00
1.43654e-02,2.76259e+00
1.45229e-02,2.63354e+00
1.46820e-02,2.50985e+00
1.48429e-02,2.39130e+00
1.50056e-02,2.27768e+00
1.51701e-02,2.16878e+00
1.53363e-02,2.06440e+00
1.55044e-02,1.96436e+00
1.56744e-02,1.86848e+00
1.58461e-02,1.77659e+00
1.60198e-02,1.68851e+00
1.61954e-02,1.60410e+00
1.63729e-02,1.52320e+00
1.65523e-02,1.44566e+00
1.67337e-02,1.37134e+00
1.69171e-02,1.30011e+00
1.71026e-02,1.23185e+00
1.72900e-02,1.16643e+00
1.74795e-02,1.10372e+00
1.76711e-02,1.04363e+00
1.78647e-02,9.86030e-01
1.80605e-02,9.30830e-01
1.82585e-02,8.77926e-01
1.84586e-02,8.27223e-01
1.86609e-02,7.78629e-01
1.88654e-02,7.32058e-01
1.90722e-02,6.87424e-01
1.92812e-02,6.44647e-01
1.94925e-02,6.03651e-01
1.97062e-02,5.64360e-01
1.99221e-02,5.26705e-01
2.01405e-02,4.90617e-01
2.03612e-02,4.56031e-01
2.05844e-02,4.22885e-01
2.08100e-02,3.91118e-01
2.10380e-02,3.60673e-01
2.12686e-02,3.31496e-01
2.15017e-02,3.03534e-01
2.17374e-02,2.76735e-01
2.19756e-02,2.51053e-01
2.22165e-02,2.26439e-01
2.24600e-02,2.02851e-01
2.27061e-02,1.80245e-01
2.29550e-02,1.58580e-01
2.32066e-02,1.37817e-01
2.34609e-02,1.17919e-01
2.37180e-02,9.88492e-02
2.39780e-02,8.05739e-02
2.42408e-02,6.30597e-02
2.45064e-02,4.62749e-02
2.47750e-02,3.01892e-02
2.50466e-02,1.47736e-02
2.53211e-02,0.00000e+00
