m1=811407.761, m2=21.434, gsp=2.411, rhosp=1750.827
fGW[Hz],dPh[rad]
1.34382e-03,2.31783e+04
1.35327e-03,2.25823e+04
1.36279e-03,2.20014e+04
1.37237e-03,2.14354e+04
1.38202e-03,2.08838e+04
1.39174e-03,2.03463e+04
1.40152e-03,1.98224e+04
1.41138e-03,1.93119e+04
1.42130e-03,1.88145e+04
1.43130e-03,1.83297e+04
1.44136e-03,1.78573e+04
1.45150e-03,1.73969e+04
1.46170e-03,1.69483e+04
1.47198e-03,1.65112e+04
1.48233e-03,1.60852e+04
1.49275e-03,1.56700e+04
1.50325e-03,1.52655e+04
1.51382e-03,1.48713e+04
1.52447e-03,1.44871e+04
1.53519e-03,1.41128e+04
1.54598e-03,1.37480e+04
1.55685e-03,1.33925e+04
1.56780e-03,1.30462e+04
1.57882e-03,1.27086e+04
1.58993e-03,1.23797e+04
1.60111e-03,1.20592e+04
1.61236e-03,1.17469e+04
1.62370e-03,1.14425e+04
1.63512e-03,1.11460e+04
1.64662e-03,1.08570e+04
1.65820e-03,1.05754e+04
1.66986e-03,1.03010e+04
1.68160e-03,1.00336e+04
1.69342e-03,9.77307e+03
1.70533e-03,9.51918e+03
1.71732e-03,9.27179e+03
1.72940e-03,9.03073e+03
1.74156e-03,8.79584e+03
1.75380e-03,8.56695e+03
1.76614e-03,8.34391e+03
1.77855e-03,8.12659e+03
1.79106e-03,7.91482e+03
1.80365e-03,7.70848e+03
1.81634e-03,7.50741e+03
1.82911e-03,7.31149e+03
1.84197e-03,7.12058e+03
1.85492e-03,6.93456e+03
1.86797e-03,6.75331e+03
1.88110e-03,6.57669e+03
1.89433e-03,6.40459e+03
1.90765e-03,6.23691e+03
1.92106e-03,6.07351e+03
1.93457e-03,5.91430e+03
1.94818e-03,5.75917e+03
1.96187e-03,5.60801e+03
1.97567e-03,5.46072e+03
1.98956e-03,5.31721e+03
2.00355e-03,5.17737e+03
2.01764e-03,5.04111e+03
2.03183e-03,4.90835e+03
2.04611e-03,4.77898e+03
2.06050e-03,4.65294e+03
2.07499e-03,4.53012e+03
2.08958e-03,4.41045e+03
2.10428e-03,4.29384e+03
2.11907e-03,4.18023e+03
2.13397e-03,4.06953e+03
2.14898e-03,3.96166e+03
2.16409e-03,3.85656e+03
2.17931e-03,3.75416e+03
2.19463e-03,3.65438e+03
2.21006e-03,3.55716e+03
2.22560e-03,3.46243e+03
2.24125e-03,3.37013e+03
2.25701e-03,3.28020e+03
2.27288e-03,3.19258e+03
2.28887e-03,3.10720e+03
2.30496e-03,3.02401e+03
2.32117e-03,2.94296e+03
2.33749e-03,2.86398e+03
2.35393e-03,2.78703e+03
2.37048e-03,2.71206e+03
2.38715e-03,2.63901e+03
2.40393e-03,2.56783e+03
2.42084e-03,2.49848e+03
2.43786e-03,2.43091e+03
2.45500e-03,2.36507e+03
2.47226e-03,2.30092e+03
2.48965e-03,2.23842e+03
2.50716e-03,2.17753e+03
2.52478e-03,2.11819e+03
2.54254e-03,2.06038e+03
2.56042e-03,2.00405e+03
2.57842e-03,1.94917e+03
2.59655e-03,1.89570e+03
2.61481e-03,1.84360e+03
2.63320e-03,1.79284e+03
2.65171e-03,1.74338e+03
2.67036e-03,1.69519e+03
2.68914e-03,1.64824e+03
2.70804e-03,1.60249e+03
2.72709e-03,1.55792e+03
2.74626e-03,1.51450e+03
2.76557e-03,1.47219e+03
2.78502e-03,1.43096e+03
2.80460e-03,1.39080e+03
2.82433e-03,1.35166e+03
2.84418e-03,1.31353e+03
2.86418e-03,1.27638e+03
2.88432e-03,1.24019e+03
2.90461e-03,1.20492e+03
2.92503e-03,1.17056e+03
2.94560e-03,1.13709e+03
2.96631e-03,1.10447e+03
2.98717e-03,1.07269e+03
3.00817e-03,1.04173e+03
3.02933e-03,1.01156e+03
3.05063e-03,9.82170e+02
3.07208e-03,9.53533e+02
3.09368e-03,9.25633e+02
3.11544e-03,8.98449e+02
3.13734e-03,8.71964e+02
3.15940e-03,8.46160e+02
3.18162e-03,8.21019e+02
3.20399e-03,7.96524e+02
3.22652e-03,7.72658e+02
3.24921e-03,7.49406e+02
3.27206e-03,7.26752e+02
3.29506e-03,7.04680e+02
3.31823e-03,6.83175e+02
3.34157e-03,6.62223e+02
3.36506e-03,6.41810e+02
3.38873e-03,6.21921e+02
3.41255e-03,6.02544e+02
3.43655e-03,5.83665e+02
3.46072e-03,5.65271e+02
3.48505e-03,5.47350e+02
3.50956e-03,5.29890e+02
3.53423e-03,5.12879e+02
3.55909e-03,4.96305e+02
3.58411e-03,4.80158e+02
3.60931e-03,4.64425e+02
3.63469e-03,4.49097e+02
3.66025e-03,4.34164e+02
3.68599e-03,4.19614e+02
3.71191e-03,4.05438e+02
3.73801e-03,3.91627e+02
3.76429e-03,3.78172e+02
3.79076e-03,3.65062e+02
3.81742e-03,3.52289e+02
3.84426e-03,3.39845e+02
3.87129e-03,3.27721e+02
3.89852e-03,3.15909e+02
3.92593e-03,3.04401e+02
3.95354e-03,2.93189e+02
3.98134e-03,2.82265e+02
4.00933e-03,2.71622e+02
4.03752e-03,2.61253e+02
4.06591e-03,2.51150e+02
4.09450e-03,2.41308e+02
4.12330e-03,2.31718e+02
4.15229e-03,2.22376e+02
4.18149e-03,2.13274e+02
4.21089e-03,2.04405e+02
4.24050e-03,1.95765e+02
4.27032e-03,1.87348e+02
4.30035e-03,1.79147e+02
4.33058e-03,1.71157e+02
4.36104e-03,1.63372e+02
4.39170e-03,1.55788e+02
4.42258e-03,1.48399e+02
4.45368e-03,1.41200e+02
4.48500e-03,1.34186e+02
4.51654e-03,1.27353e+02
4.54829e-03,1.20696e+02
4.58028e-03,1.14209e+02
4.61248e-03,1.07890e+02
4.64492e-03,1.01734e+02
4.67758e-03,9.57356e+01
4.71047e-03,8.98918e+01
4.74359e-03,8.41984e+01
4.77695e-03,7.86515e+01
4.81054e-03,7.32474e+01
4.84436e-03,6.79824e+01
4.87843e-03,6.28529e+01
4.91273e-03,5.78553e+01
4.94728e-03,5.29865e+01
4.98207e-03,4.82429e+01
5.01710e-03,4.36214e+01
5.05238e-03,3.91189e+01
5.08790e-03,3.47322e+01
5.12368e-03,3.04585e+01
5.15971e-03,2.62948e+01
5.19599e-03,2.22382e+01
5.23253e-03,1.82861e+01
5.26932e-03,1.44357e+01
5.30637e-03,1.06844e+01
5.34369e-03,7.02964e+00
5.38126e-03,3.46899e+00
5.41910e-03,0.00000e+00
