m1=1331.840, m2=72.624, gsp=2.491, rhosp=31.556
fGW[Hz],dPh[rad]
4.25280e-03,6.97604e+03
4.39800e-03,6.52164e+03
4.54817e-03,6.09683e+03
4.70346e-03,5.69969e+03
4.86405e-03,5.32841e+03
5.03012e-03,4.98132e+03
5.20187e-03,4.65683e+03
5.37948e-03,4.35347e+03
5.56315e-03,4.06988e+03
5.75309e-03,3.80475e+03
5.94952e-03,3.55689e+03
6.15266e-03,3.32518e+03
6.36273e-03,3.10856e+03
6.57998e-03,2.90605e+03
6.80464e-03,2.71672e+03
7.03697e-03,2.53973e+03
7.27724e-03,2.37427e+03
7.52570e-03,2.21958e+03
7.78266e-03,2.07497e+03
8.04838e-03,1.93977e+03
8.32318e-03,1.81339e+03
8.60736e-03,1.69523e+03
8.90124e-03,1.58477e+03
9.20516e-03,1.48151e+03
9.51946e-03,1.38497e+03
9.84448e-03,1.29472e+03
1.01806e-02,1.21035e+03
1.05282e-02,1.13148e+03
1.08877e-02,1.05774e+03
1.12594e-02,9.88805e+02
1.16438e-02,9.24361e+02
1.20414e-02,8.64115e+02
1.24525e-02,8.07793e+02
1.28777e-02,7.55140e+02
1.33174e-02,7.05917e+02
1.37721e-02,6.59901e+02
1.42423e-02,6.16882e+02
1.47286e-02,5.76666e+02
1.52315e-02,5.39069e+02
1.57515e-02,5.03922e+02
1.62893e-02,4.71065e+02
1.68455e-02,4.40348e+02
1.74207e-02,4.11632e+02
1.80155e-02,3.84787e+02
1.86306e-02,3.59692e+02
1.92667e-02,3.36231e+02
1.99245e-02,3.14299e+02
2.06048e-02,2.93796e+02
2.13083e-02,2.74629e+02
2.20359e-02,2.56710e+02
2.27882e-02,2.39960e+02
2.35663e-02,2.24301e+02
2.43709e-02,2.09662e+02
2.52030e-02,1.95977e+02
2.60636e-02,1.83184e+02
2.69535e-02,1.71225e+02
2.78737e-02,1.60045e+02
2.88254e-02,1.49594e+02
2.98096e-02,1.39825e+02
3.08274e-02,1.30691e+02
3.18800e-02,1.22154e+02
3.29685e-02,1.14172e+02
3.40941e-02,1.06712e+02
3.52582e-02,9.97371e+01
3.64620e-02,9.32174e+01
3.77070e-02,8.71227e+01
3.89944e-02,8.14254e+01
4.03258e-02,7.60997e+01
4.17027e-02,7.11212e+01
4.31265e-02,6.64675e+01
4.45990e-02,6.21173e+01
4.61218e-02,5.80508e+01
4.76965e-02,5.42496e+01
4.93250e-02,5.06964e+01
5.10091e-02,4.73750e+01
5.27508e-02,4.42703e+01
5.45519e-02,4.13683e+01
5.64144e-02,3.86556e+01
5.83406e-02,3.61200e+01
6.03325e-02,3.37499e+01
6.23925e-02,3.15346e+01
6.45228e-02,2.94639e+01
6.67258e-02,2.75284e+01
6.90040e-02,2.57194e+01
7.13601e-02,2.40285e+01
7.37965e-02,2.24480e+01
7.63162e-02,2.09709e+01
7.89219e-02,1.95903e+01
8.16165e-02,1.82999e+01
8.44032e-02,1.70939e+01
8.72850e-02,1.59668e+01
9.02652e-02,1.49133e+01
9.33471e-02,1.39288e+01
9.65343e-02,1.30087e+01
9.98303e-02,1.21489e+01
1.03239e-01,1.13453e+01
1.06764e-01,1.05943e+01
1.10409e-01,9.89257e+00
1.14179e-01,9.23679e+00
1.18077e-01,8.62399e+00
1.22109e-01,8.05136e+00
1.26278e-01,7.51629e+00
1.30589e-01,7.01633e+00
1.35048e-01,6.54918e+00
1.39659e-01,6.11270e+00
1.44428e-01,5.70490e+00
1.49359e-01,5.32389e+00
1.54458e-01,4.96794e+00
1.59732e-01,4.63539e+00
1.65186e-01,4.32474e+00
1.70826e-01,4.03453e+00
1.76659e-01,3.76345e+00
1.82690e-01,3.51024e+00
1.88928e-01,3.27373e+00
1.95379e-01,3.05283e+00
2.02049e-01,2.84652e+00
2.08948e-01,2.65384e+00
2.16082e-01,2.47391e+00
2.23460e-01,2.30589e+00
2.31090e-01,2.14900e+00
2.38980e-01,2.00252e+00
2.47139e-01,1.86575e+00
2.55577e-01,1.73807e+00
2.64304e-01,1.61888e+00
2.73328e-01,1.50763e+00
2.82660e-01,1.40378e+00
2.92311e-01,1.30687e+00
3.02292e-01,1.21643e+00
3.12613e-01,1.13203e+00
3.23286e-01,1.05329e+00
3.34325e-01,9.79823e-01
3.45739e-01,9.11291e-01
3.57544e-01,8.47368e-01
3.69752e-01,7.87751e-01
3.82376e-01,7.32155e-01
3.95432e-01,6.80316e-01
4.08933e-01,6.31987e-01
4.22896e-01,5.86936e-01
4.37335e-01,5.44946e-01
4.52267e-01,5.05816e-01
4.67709e-01,4.69356e-01
4.83678e-01,4.35389e-01
5.00192e-01,4.03752e-01
5.17270e-01,3.74288e-01
5.34932e-01,3.46855e-01
5.53196e-01,3.21316e-01
5.72084e-01,2.97547e-01
5.91617e-01,2.75428e-01
6.11817e-01,2.54851e-01
6.32706e-01,2.35712e-01
6.54309e-01,2.17915e-01
6.76649e-01,2.01370e-01
6.99752e-01,1.85994e-01
7.23644e-01,1.71707e-01
7.48351e-01,1.58436e-01
7.73902e-01,1.46113e-01
8.00326e-01,1.34673e-01
8.27652e-01,1.24057e-01
8.55911e-01,1.14209e-01
8.85134e-01,1.05076e-01
9.15356e-01,9.66102e-02
9.46609e-01,8.87649e-02
9.78929e-01,8.14978e-02
1.01235e+00,7.47691e-02
1.04692e+00,6.85416e-02
1.08266e+00,6.27804e-02
1.11963e+00,5.74530e-02
1.15786e+00,5.25292e-02
1.19739e+00,4.79805e-02
1.23827e+00,4.37805e-02
1.28055e+00,3.99045e-02
1.32427e+00,3.63294e-02
1.36949e+00,3.30336e-02
1.41625e+00,2.99971e-02
1.46460e+00,2.72010e-02
1.51461e+00,2.46279e-02
1.56632e+00,2.22614e-02
1.61980e+00,2.00864e-02
1.67511e+00,1.80885e-02
1.73230e+00,1.62546e-02
1.79145e+00,1.45723e-02
1.85261e+00,1.30302e-02
1.91587e+00,1.16175e-02
1.98128e+00,1.03243e-02
2.04893e+00,9.14133e-03
2.11889e+00,8.05997e-03
2.19123e+00,7.07223e-03
2.26605e+00,6.17065e-03
2.34342e+00,5.34835e-03
2.42343e+00,4.59891e-03
2.50617e+00,3.91639e-03
2.59174e+00,3.29529e-03
2.68023e+00,2.73052e-03
2.77175e+00,2.21735e-03
2.86638e+00,1.75143e-03
2.96425e+00,1.32873e-03
3.06546e+00,9.45534e-04
3.17012e+00,5.98411e-04
3.27836e+00,2.84203e-04
3.39030e+00,0.00000e+00
