m1=53582.281, m2=8.336, gsp=2.184, rhosp=996.167
fGW[Hz],dPh[rad]
3.77747e-03,5.61510e+03
3.83636e-03,5.35662e+03
3.89617e-03,5.10930e+03
3.95691e-03,4.87269e+03
4.01860e-03,4.64636e+03
4.08125e-03,4.42990e+03
4.14488e-03,4.22291e+03
4.20950e-03,4.02501e+03
4.27512e-03,3.83582e+03
4.34177e-03,3.65499e+03
4.40946e-03,3.48219e+03
4.47821e-03,3.31707e+03
4.54802e-03,3.15932e+03
4.61893e-03,3.00864e+03
4.69094e-03,2.86472e+03
4.76407e-03,2.72730e+03
4.83834e-03,2.59610e+03
4.91377e-03,2.47085e+03
4.99038e-03,2.35131e+03
5.06818e-03,2.23723e+03
5.14719e-03,2.12838e+03
5.22743e-03,2.02454e+03
5.30893e-03,1.92550e+03
5.39170e-03,1.83104e+03
5.47575e-03,1.74097e+03
5.56112e-03,1.65509e+03
5.64782e-03,1.57324e+03
5.73587e-03,1.49522e+03
5.82529e-03,1.42088e+03
5.91611e-03,1.35005e+03
6.00834e-03,1.28258e+03
6.10201e-03,1.21831e+03
6.19714e-03,1.15711e+03
6.29376e-03,1.09883e+03
6.39188e-03,1.04335e+03
6.49153e-03,9.90544e+02
6.59273e-03,9.40285e+02
6.69551e-03,8.92460e+02
6.79990e-03,8.46958e+02
6.90591e-03,8.03673e+02
7.01357e-03,7.62504e+02
7.12291e-03,7.23352e+02
7.23396e-03,6.86125e+02
7.34674e-03,6.50734e+02
7.46127e-03,6.17093e+02
7.57760e-03,5.85120e+02
7.69573e-03,5.54737e+02
7.81571e-03,5.25869e+02
7.93756e-03,4.98445e+02
8.06130e-03,4.72396e+02
8.18698e-03,4.47657e+02
8.31462e-03,4.24165e+02
8.44424e-03,4.01860e+02
8.57589e-03,3.80686e+02
8.70959e-03,3.60588e+02
8.84537e-03,3.41514e+02
8.98327e-03,3.23415e+02
9.12332e-03,3.06242e+02
9.26555e-03,2.89950e+02
9.41000e-03,2.74497e+02
9.55671e-03,2.59841e+02
9.70570e-03,2.45942e+02
9.85701e-03,2.32764e+02
1.00107e-02,2.20270e+02
1.01667e-02,2.08427e+02
1.03252e-02,1.97202e+02
1.04862e-02,1.86564e+02
1.06497e-02,1.76483e+02
1.08157e-02,1.66931e+02
1.09843e-02,1.57882e+02
1.11556e-02,1.49311e+02
1.13295e-02,1.41192e+02
1.15061e-02,1.33504e+02
1.16855e-02,1.26223e+02
1.18677e-02,1.19329e+02
1.20527e-02,1.12803e+02
1.22406e-02,1.06624e+02
1.24315e-02,1.00776e+02
1.26253e-02,9.52415e+01
1.28221e-02,9.00036e+01
1.30220e-02,8.50473e+01
1.32250e-02,8.03578e+01
1.34312e-02,7.59213e+01
1.36406e-02,7.17244e+01
1.38532e-02,6.77545e+01
1.40692e-02,6.39999e+01
1.42885e-02,6.04490e+01
1.45113e-02,5.70912e+01
1.47375e-02,5.39162e+01
1.49673e-02,5.09143e+01
1.52006e-02,4.80764e+01
1.54376e-02,4.53936e+01
1.56783e-02,4.28578e+01
1.59227e-02,4.04610e+01
1.61710e-02,3.81958e+01
1.64231e-02,3.60552e+01
1.66791e-02,3.40325e+01
1.69391e-02,3.21212e+01
1.72032e-02,3.03154e+01
1.74714e-02,2.86095e+01
1.77438e-02,2.69979e+01
1.80204e-02,2.54756e+01
1.83014e-02,2.40377e+01
1.85867e-02,2.26796e+01
1.88764e-02,2.13970e+01
1.91707e-02,2.01858e+01
1.94696e-02,1.90420e+01
1.97731e-02,1.79620e+01
2.00814e-02,1.69423e+01
2.03945e-02,1.59796e+01
2.07124e-02,1.50707e+01
2.10353e-02,1.42127e+01
2.13633e-02,1.34027e+01
2.16963e-02,1.26382e+01
2.20346e-02,1.19165e+01
2.23781e-02,1.12354e+01
2.27270e-02,1.05926e+01
2.30813e-02,9.98601e+00
2.34411e-02,9.41355e+00
2.38066e-02,8.87335e+00
2.41777e-02,8.36361e+00
2.45547e-02,7.88265e+00
2.49375e-02,7.42886e+00
2.53262e-02,7.00072e+00
2.57211e-02,6.59680e+00
2.61221e-02,6.21575e+00
2.65293e-02,5.85628e+00
2.69429e-02,5.51719e+00
2.73630e-02,5.19733e+00
2.77895e-02,4.89563e+00
2.82228e-02,4.61105e+00
2.86628e-02,4.34265e+00
2.91096e-02,4.08952e+00
2.95635e-02,3.85078e+00
3.00244e-02,3.62563e+00
3.04924e-02,3.41331e+00
3.09678e-02,3.21308e+00
3.14506e-02,3.02427e+00
3.19409e-02,2.84623e+00
3.24389e-02,2.67836e+00
3.29446e-02,2.52007e+00
3.34582e-02,2.37082e+00
3.39798e-02,2.23010e+00
3.45096e-02,2.09743e+00
3.50476e-02,1.97235e+00
3.55940e-02,1.85442e+00
3.61489e-02,1.74325e+00
3.67125e-02,1.63845e+00
3.72848e-02,1.53965e+00
3.78661e-02,1.44651e+00
3.84564e-02,1.35872e+00
3.90560e-02,1.27596e+00
3.96649e-02,1.19795e+00
4.02832e-02,1.12442e+00
4.09113e-02,1.05511e+00
4.15491e-02,9.89789e-01
4.21968e-02,9.28217e-01
4.28547e-02,8.70185e-01
4.35228e-02,8.15490e-01
4.42013e-02,7.63941e-01
4.48904e-02,7.15358e-01
4.55903e-02,6.69572e-01
4.63010e-02,6.26421e-01
4.70228e-02,5.85756e-01
4.77559e-02,5.47433e-01
4.85005e-02,5.11318e-01
4.92566e-02,4.77284e-01
5.00245e-02,4.45213e-01
5.08044e-02,4.14991e-01
5.15964e-02,3.86512e-01
5.24008e-02,3.59676e-01
5.32177e-02,3.34388e-01
5.40474e-02,3.10560e-01
5.48900e-02,2.88108e-01
5.57458e-02,2.66952e-01
5.66148e-02,2.47018e-01
5.74975e-02,2.28235e-01
5.83939e-02,2.10538e-01
5.93042e-02,1.93863e-01
6.02288e-02,1.78152e-01
6.11678e-02,1.63349e-01
6.21214e-02,1.49403e-01
6.30898e-02,1.36262e-01
6.40734e-02,1.23882e-01
6.50723e-02,1.12218e-01
6.60868e-02,1.01229e-01
6.71171e-02,9.08753e-02
6.81635e-02,8.11211e-02
6.92262e-02,7.19316e-02
7.03054e-02,6.32742e-02
7.14015e-02,5.51180e-02
7.25146e-02,4.74341e-02
7.36451e-02,4.01952e-02
7.47933e-02,3.33757e-02
7.59593e-02,2.69512e-02
7.71435e-02,2.08989e-02
7.83462e-02,1.51974e-02
7.95676e-02,9.82630e-03
8.08081e-02,4.76650e-03
8.20679e-02,0.00000e+00
