m1=44517.199, m2=5.403, gsp=2.322, rhosp=21.634
fGW[Hz],dPh[rad]
4.65516e-03,3.13791e+04
4.72717e-03,2.99385e+04
4.80030e-03,2.85600e+04
4.87456e-03,2.72411e+04
4.94997e-03,2.59795e+04
5.02654e-03,2.47727e+04
5.10430e-03,2.36187e+04
5.18326e-03,2.25152e+04
5.26344e-03,2.14603e+04
5.34487e-03,2.04519e+04
5.42755e-03,1.94882e+04
5.51151e-03,1.85673e+04
5.59678e-03,1.76874e+04
5.68336e-03,1.68470e+04
5.77128e-03,1.60442e+04
5.86055e-03,1.52776e+04
5.95122e-03,1.45457e+04
6.04328e-03,1.38469e+04
6.13677e-03,1.31800e+04
6.23170e-03,1.25435e+04
6.32810e-03,1.19361e+04
6.42600e-03,1.13566e+04
6.52540e-03,1.08039e+04
6.62635e-03,1.02767e+04
6.72886e-03,9.77397e+03
6.83295e-03,9.29464e+03
6.93865e-03,8.83769e+03
7.04599e-03,8.40213e+03
7.15499e-03,7.98704e+03
7.26568e-03,7.59151e+03
7.37808e-03,7.21467e+03
7.49221e-03,6.85570e+03
7.60811e-03,6.51380e+03
7.72581e-03,6.18821e+03
7.84533e-03,5.87819e+03
7.96669e-03,5.58305e+03
8.08993e-03,5.30210e+03
8.21508e-03,5.03472e+03
8.34217e-03,4.78027e+03
8.47122e-03,4.53816e+03
8.60226e-03,4.30784e+03
8.73534e-03,4.08875e+03
8.87047e-03,3.88039e+03
9.00769e-03,3.68224e+03
9.14704e-03,3.49384e+03
9.28854e-03,3.31473e+03
9.43223e-03,3.14447e+03
9.57814e-03,2.98265e+03
9.72632e-03,2.82888e+03
9.87678e-03,2.68276e+03
1.00296e-02,2.54393e+03
1.01847e-02,2.41206e+03
1.03423e-02,2.28680e+03
1.05023e-02,2.16784e+03
1.06647e-02,2.05488e+03
1.08297e-02,1.94762e+03
1.09972e-02,1.84579e+03
1.11674e-02,1.74913e+03
1.13401e-02,1.65739e+03
1.15156e-02,1.57032e+03
1.16937e-02,1.48770e+03
1.18746e-02,1.40930e+03
1.20583e-02,1.33493e+03
1.22448e-02,1.26437e+03
1.24343e-02,1.19745e+03
1.26266e-02,1.13398e+03
1.28219e-02,1.07379e+03
1.30203e-02,1.01672e+03
1.32217e-02,9.62604e+02
1.34262e-02,9.11302e+02
1.36339e-02,8.62671e+02
1.38449e-02,8.16577e+02
1.40590e-02,7.72889e+02
1.42765e-02,7.31488e+02
1.44974e-02,6.92257e+02
1.47216e-02,6.55085e+02
1.49494e-02,6.19867e+02
1.51806e-02,5.86504e+02
1.54155e-02,5.54901e+02
1.56540e-02,5.24967e+02
1.58961e-02,4.96617e+02
1.61420e-02,4.69768e+02
1.63917e-02,4.44344e+02
1.66453e-02,4.20270e+02
1.69028e-02,3.97477e+02
1.71643e-02,3.75898e+02
1.74298e-02,3.55470e+02
1.76994e-02,3.36133e+02
1.79733e-02,3.17830e+02
1.82513e-02,3.00507e+02
1.85336e-02,2.84113e+02
1.88203e-02,2.68598e+02
1.91115e-02,2.53917e+02
1.94071e-02,2.40026e+02
1.97074e-02,2.26883e+02
2.00122e-02,2.14448e+02
2.03218e-02,2.02684e+02
2.06362e-02,1.91556e+02
2.09554e-02,1.81030e+02
2.12796e-02,1.71073e+02
2.16088e-02,1.61656e+02
2.19431e-02,1.52750e+02
2.22825e-02,1.44327e+02
2.26272e-02,1.36362e+02
2.29773e-02,1.28830e+02
2.33327e-02,1.21708e+02
2.36936e-02,1.14974e+02
2.40602e-02,1.08607e+02
2.44324e-02,1.02588e+02
2.48103e-02,9.68973e+01
2.51942e-02,9.15178e+01
2.55839e-02,8.64325e+01
2.59797e-02,8.16256e+01
2.63816e-02,7.70821e+01
2.67897e-02,7.27876e+01
2.72041e-02,6.87287e+01
2.76250e-02,6.48926e+01
2.80523e-02,6.12673e+01
2.84863e-02,5.78412e+01
2.89269e-02,5.46036e+01
2.93744e-02,5.15441e+01
2.98288e-02,4.86532e+01
3.02903e-02,4.59216e+01
3.07589e-02,4.33406e+01
3.12347e-02,4.09020e+01
3.17179e-02,3.85979e+01
3.22085e-02,3.64212e+01
3.27068e-02,3.43647e+01
3.32128e-02,3.24219e+01
3.37266e-02,3.05866e+01
3.42483e-02,2.88529e+01
3.47781e-02,2.72151e+01
3.53161e-02,2.56681e+01
3.58624e-02,2.42068e+01
3.64172e-02,2.28266e+01
3.69806e-02,2.15229e+01
3.75527e-02,2.02915e+01
3.81336e-02,1.91286e+01
3.87235e-02,1.80302e+01
3.93225e-02,1.69928e+01
3.99309e-02,1.60131e+01
4.05486e-02,1.50879e+01
4.11758e-02,1.42141e+01
4.18128e-02,1.33890e+01
4.24596e-02,1.26098e+01
4.31165e-02,1.18740e+01
4.37835e-02,1.11791e+01
4.44608e-02,1.05230e+01
4.51486e-02,9.90349e+00
4.58470e-02,9.31850e+00
4.65563e-02,8.76613e+00
4.72765e-02,8.24458e+00
4.80078e-02,7.75214e+00
4.87505e-02,7.28719e+00
4.95046e-02,6.84820e+00
5.02705e-02,6.43373e+00
5.10481e-02,6.04242e+00
5.18378e-02,5.67297e+00
5.26397e-02,5.32418e+00
5.34541e-02,4.99488e+00
5.42810e-02,4.68400e+00
5.51207e-02,4.39052e+00
5.59734e-02,4.11345e+00
5.68393e-02,3.85189e+00
5.77186e-02,3.60496e+00
5.86115e-02,3.37187e+00
5.95182e-02,3.15182e+00
6.04389e-02,2.94410e+00
6.13739e-02,2.74802e+00
6.23233e-02,2.56293e+00
6.32874e-02,2.38820e+00
6.42664e-02,2.22327e+00
6.52606e-02,2.06759e+00
6.62702e-02,1.92064e+00
6.72954e-02,1.78192e+00
6.83364e-02,1.65099e+00
6.93935e-02,1.52740e+00
7.04670e-02,1.41075e+00
7.15571e-02,1.30065e+00
7.26641e-02,1.19672e+00
7.37882e-02,1.09863e+00
7.49297e-02,1.00604e+00
7.60888e-02,9.18653e-01
7.72659e-02,8.36173e-01
7.84612e-02,7.58325e-01
7.96749e-02,6.84851e-01
8.09075e-02,6.15504e-01
8.21591e-02,5.50053e-01
8.34301e-02,4.88280e-01
8.47207e-02,4.29978e-01
8.60313e-02,3.74954e-01
8.73622e-02,3.23022e-01
8.87136e-02,2.74010e-01
9.00860e-02,2.27753e-01
9.14796e-02,1.84097e-01
9.28948e-02,1.42897e-01
9.43318e-02,1.04013e-01
9.57911e-02,6.73166e-02
9.72730e-02,3.26841e-02
9.87777e-02,0.00000e+00
