m1=7647.698, m2=13.123, gsp=2.372, rhosp=197.405
fGW[Hz],dPh[rad]
5.18506e-03,3.53652e+04
5.30923e-03,3.36249e+04
5.43637e-03,3.19692e+04
5.56656e-03,3.03939e+04
5.69986e-03,2.88952e+04
5.83636e-03,2.74693e+04
5.97612e-03,2.61128e+04
6.11923e-03,2.48223e+04
6.26577e-03,2.35945e+04
6.41582e-03,2.24265e+04
6.56946e-03,2.13154e+04
6.72679e-03,2.02585e+04
6.88787e-03,1.92530e+04
7.05282e-03,1.82966e+04
7.22172e-03,1.73868e+04
7.39466e-03,1.65215e+04
7.57174e-03,1.56984e+04
7.75306e-03,1.49155e+04
7.93873e-03,1.41708e+04
8.12884e-03,1.34626e+04
8.32351e-03,1.27890e+04
8.52283e-03,1.21484e+04
8.72693e-03,1.15392e+04
8.93592e-03,1.09598e+04
9.14991e-03,1.04089e+04
9.36903e-03,9.88499e+03
9.59339e-03,9.38681e+03
9.82313e-03,8.91311e+03
1.00584e-02,8.46270e+03
1.02992e-02,8.03446e+03
1.05459e-02,7.62731e+03
1.07984e-02,7.24022e+03
1.10570e-02,6.87222e+03
1.13218e-02,6.52239e+03
1.15929e-02,6.18985e+03
1.18705e-02,5.87375e+03
1.21548e-02,5.57329e+03
1.24459e-02,5.28772e+03
1.27439e-02,5.01631e+03
1.30491e-02,4.75838e+03
1.33616e-02,4.51326e+03
1.36816e-02,4.28033e+03
1.40092e-02,4.05901e+03
1.43447e-02,3.84871e+03
1.46882e-02,3.64892e+03
1.50400e-02,3.45911e+03
1.54001e-02,3.27879e+03
1.57689e-02,3.10751e+03
1.61466e-02,2.94482e+03
1.65332e-02,2.79031e+03
1.69292e-02,2.64357e+03
1.73346e-02,2.50422e+03
1.77497e-02,2.37190e+03
1.81747e-02,2.24626e+03
1.86100e-02,2.12699e+03
1.90556e-02,2.01376e+03
1.95120e-02,1.90629e+03
1.99792e-02,1.80427e+03
2.04577e-02,1.70746e+03
2.09476e-02,1.61559e+03
2.14492e-02,1.52842e+03
2.19629e-02,1.44572e+03
2.24888e-02,1.36726e+03
2.30274e-02,1.29285e+03
2.35788e-02,1.22227e+03
2.41435e-02,1.15533e+03
2.47216e-02,1.09187e+03
2.53137e-02,1.03169e+03
2.59199e-02,9.74654e+02
2.65406e-02,9.20590e+02
2.71761e-02,8.69353e+02
2.78269e-02,8.20802e+02
2.84933e-02,7.74804e+02
2.91757e-02,7.31230e+02
2.98743e-02,6.89960e+02
3.05898e-02,6.50877e+02
3.13223e-02,6.13871e+02
3.20724e-02,5.78839e+02
3.28404e-02,5.45681e+02
3.36269e-02,5.14302e+02
3.44321e-02,4.84611e+02
3.52567e-02,4.56524e+02
3.61010e-02,4.29959e+02
3.69655e-02,4.04838e+02
3.78508e-02,3.81087e+02
3.87572e-02,3.58637e+02
3.96853e-02,3.37421e+02
4.06357e-02,3.17375e+02
4.16088e-02,2.98439e+02
4.26052e-02,2.80556e+02
4.36255e-02,2.63671e+02
4.46702e-02,2.47731e+02
4.57399e-02,2.32689e+02
4.68353e-02,2.18497e+02
4.79569e-02,2.05109e+02
4.91053e-02,1.92485e+02
5.02813e-02,1.80583e+02
5.14854e-02,1.69366e+02
5.27183e-02,1.58796e+02
5.39808e-02,1.48840e+02
5.52735e-02,1.39464e+02
5.65971e-02,1.30637e+02
5.79525e-02,1.22329e+02
5.93403e-02,1.14513e+02
6.07613e-02,1.07162e+02
6.22164e-02,1.00249e+02
6.37063e-02,9.37512e+01
6.52319e-02,8.76454e+01
6.67940e-02,8.19098e+01
6.83936e-02,7.65238e+01
7.00314e-02,7.14677e+01
7.17085e-02,6.67229e+01
7.34257e-02,6.22719e+01
7.51841e-02,5.80978e+01
7.69845e-02,5.41849e+01
7.88281e-02,5.05180e+01
8.07158e-02,4.70831e+01
8.26488e-02,4.38664e+01
8.46280e-02,4.08554e+01
8.66546e-02,3.80378e+01
8.87298e-02,3.54022e+01
9.08546e-02,3.29378e+01
9.30303e-02,3.06343e+01
9.52582e-02,2.84821e+01
9.75394e-02,2.64718e+01
9.98752e-02,2.45950e+01
1.02267e-01,2.28433e+01
1.04716e-01,2.12091e+01
1.07224e-01,1.96850e+01
1.09791e-01,1.82642e+01
1.12421e-01,1.69402e+01
1.15113e-01,1.57068e+01
1.17869e-01,1.45583e+01
1.20692e-01,1.34892e+01
1.23582e-01,1.24944e+01
1.26542e-01,1.15691e+01
1.29572e-01,1.07087e+01
1.32675e-01,9.90907e+00
1.35852e-01,9.16607e+00
1.39106e-01,8.47597e+00
1.42437e-01,7.83524e+00
1.45848e-01,7.24055e+00
1.49340e-01,6.68879e+00
1.52917e-01,6.17704e+00
1.56579e-01,5.70256e+00
1.60328e-01,5.26278e+00
1.64168e-01,4.85530e+00
1.68099e-01,4.47788e+00
1.72125e-01,4.12841e+00
1.76247e-01,3.80492e+00
1.80467e-01,3.50557e+00
1.84789e-01,3.22866e+00
1.89214e-01,2.97257e+00
1.93745e-01,2.73581e+00
1.98385e-01,2.51699e+00
2.03136e-01,2.31481e+00
2.08000e-01,2.12805e+00
2.12981e-01,1.95558e+00
2.18082e-01,1.79636e+00
2.23304e-01,1.64941e+00
2.28652e-01,1.51381e+00
2.34127e-01,1.38872e+00
2.39734e-01,1.27336e+00
2.45475e-01,1.16699e+00
2.51354e-01,1.06894e+00
2.57373e-01,9.78573e-01
2.63536e-01,8.95312e-01
2.69847e-01,8.18612e-01
2.76309e-01,7.47972e-01
2.82926e-01,6.82928e-01
2.89702e-01,6.23046e-01
2.96639e-01,5.67930e-01
3.03743e-01,5.17209e-01
3.11017e-01,4.70542e-01
3.18465e-01,4.27613e-01
3.26091e-01,3.88129e-01
3.33900e-01,3.51819e-01
3.41896e-01,3.18436e-01
3.50084e-01,2.87746e-01
3.58467e-01,2.59539e-01
3.67052e-01,2.33616e-01
3.75842e-01,2.09796e-01
3.84842e-01,1.87913e-01
3.94058e-01,1.67810e-01
4.03495e-01,1.49347e-01
4.13157e-01,1.32390e-01
4.23051e-01,1.16821e-01
4.33182e-01,1.02526e-01
4.43556e-01,8.94025e-02
4.54178e-01,7.73566e-02
4.65054e-01,6.63008e-02
4.76191e-01,5.61548e-02
4.87594e-01,4.68446e-02
4.99271e-01,3.83024e-02
5.11227e-01,3.04654e-02
5.23470e-01,2.32762e-02
5.36006e-01,1.66818e-02
5.48841e-01,1.06335e-02
5.61985e-01,5.08666e-03
5.75443e-01,0.00000e+00
