m1=10392.072, m2=17.870, gsp=2.357, rhosp=18.353
fGW[Hz],dPh[rad]
4.27740e-03,1.41488e+04
4.37732e-03,1.34637e+04
4.47958e-03,1.28112e+04
4.58422e-03,1.21898e+04
4.69131e-03,1.15981e+04
4.80089e-03,1.10347e+04
4.91304e-03,1.04982e+04
5.02781e-03,9.98740e+03
5.14526e-03,9.50099e+03
5.26545e-03,9.03786e+03
5.38845e-03,8.59690e+03
5.51433e-03,8.17706e+03
5.64314e-03,7.77733e+03
5.77496e-03,7.39677e+03
5.90987e-03,7.03446e+03
6.04792e-03,6.68953e+03
6.18920e-03,6.36116e+03
6.33378e-03,6.04857e+03
6.48174e-03,5.75100e+03
6.63315e-03,5.46774e+03
6.78810e-03,5.19811e+03
6.94667e-03,4.94147e+03
7.10894e-03,4.69719e+03
7.27501e-03,4.46468e+03
7.44495e-03,4.24340e+03
7.61886e-03,4.03280e+03
7.79684e-03,3.83237e+03
7.97897e-03,3.64163e+03
8.16536e-03,3.46013e+03
8.35610e-03,3.28741e+03
8.55130e-03,3.12307e+03
8.75106e-03,2.96669e+03
8.95548e-03,2.81791e+03
9.16468e-03,2.67636e+03
9.37877e-03,2.54169e+03
9.59785e-03,2.41359e+03
9.82206e-03,2.29172e+03
1.00515e-02,2.17580e+03
1.02863e-02,2.06554e+03
1.05266e-02,1.96067e+03
1.07725e-02,1.86094e+03
1.10241e-02,1.76609e+03
1.12817e-02,1.67590e+03
1.15452e-02,1.59013e+03
1.18149e-02,1.50859e+03
1.20909e-02,1.43106e+03
1.23733e-02,1.35735e+03
1.26624e-02,1.28728e+03
1.29582e-02,1.22068e+03
1.32609e-02,1.15738e+03
1.35706e-02,1.09722e+03
1.38876e-02,1.04004e+03
1.42121e-02,9.85712e+02
1.45440e-02,9.34090e+02
1.48838e-02,8.85046e+02
1.52315e-02,8.38455e+02
1.55873e-02,7.94198e+02
1.59514e-02,7.52162e+02
1.63240e-02,7.12241e+02
1.67054e-02,6.74331e+02
1.70956e-02,6.38335e+02
1.74949e-02,6.04161e+02
1.79036e-02,5.71719e+02
1.83218e-02,5.40926e+02
1.87498e-02,5.11701e+02
1.91878e-02,4.83968e+02
1.96361e-02,4.57654e+02
2.00948e-02,4.32689e+02
2.05642e-02,4.09008e+02
2.10446e-02,3.86548e+02
2.15361e-02,3.65249e+02
2.20392e-02,3.45053e+02
2.25541e-02,3.25907e+02
2.30809e-02,3.07759e+02
2.36201e-02,2.90559e+02
2.41719e-02,2.74260e+02
2.47365e-02,2.58819e+02
2.53144e-02,2.44191e+02
2.59057e-02,2.30338e+02
2.65109e-02,2.17220e+02
2.71301e-02,2.04801e+02
2.77639e-02,1.93045e+02
2.84125e-02,1.81919e+02
2.90762e-02,1.71392e+02
2.97554e-02,1.61433e+02
3.04505e-02,1.52014e+02
3.11618e-02,1.43108e+02
3.18897e-02,1.34688e+02
3.26347e-02,1.26729e+02
3.33970e-02,1.19208e+02
3.41772e-02,1.12103e+02
3.49755e-02,1.05393e+02
3.57926e-02,9.90556e+01
3.66287e-02,9.30732e+01
3.74843e-02,8.74269e+01
3.83600e-02,8.20993e+01
3.92560e-02,7.70737e+01
4.01731e-02,7.23342e+01
4.11115e-02,6.78658e+01
4.20719e-02,6.36542e+01
4.30546e-02,5.96857e+01
4.40604e-02,5.59474e+01
4.50896e-02,5.24270e+01
4.61429e-02,4.91127e+01
4.72208e-02,4.59934e+01
4.83239e-02,4.30586e+01
4.94527e-02,4.02983e+01
5.06080e-02,3.77027e+01
5.17902e-02,3.52630e+01
5.30000e-02,3.29705e+01
5.42380e-02,3.08170e+01
5.55050e-02,2.87947e+01
5.68016e-02,2.68963e+01
5.81285e-02,2.51149e+01
5.94864e-02,2.34437e+01
6.08760e-02,2.18764e+01
6.22980e-02,2.04073e+01
6.37533e-02,1.90305e+01
6.52426e-02,1.77407e+01
6.67667e-02,1.65328e+01
6.83263e-02,1.54021e+01
6.99224e-02,1.43440e+01
7.15558e-02,1.33541e+01
7.32273e-02,1.24285e+01
7.49379e-02,1.15632e+01
7.66885e-02,1.07547e+01
7.84799e-02,9.99935e+00
8.03132e-02,9.29406e+00
8.21893e-02,8.63570e+00
8.41092e-02,8.02136e+00
8.60740e-02,7.44832e+00
8.80847e-02,6.91399e+00
9.01423e-02,6.41592e+00
9.22481e-02,5.95183e+00
9.44030e-02,5.51954e+00
9.66082e-02,5.11702e+00
9.88650e-02,4.74235e+00
1.01174e-01,4.39372e+00
1.03538e-01,4.06944e+00
1.05956e-01,3.76789e+00
1.08432e-01,3.48760e+00
1.10965e-01,3.22713e+00
1.13557e-01,2.98518e+00
1.16209e-01,2.76050e+00
1.18924e-01,2.55191e+00
1.21702e-01,2.35834e+00
1.24545e-01,2.17876e+00
1.27454e-01,2.01220e+00
1.30432e-01,1.85777e+00
1.33479e-01,1.71463e+00
1.36597e-01,1.58199e+00
1.39788e-01,1.45912e+00
1.43053e-01,1.34533e+00
1.46395e-01,1.23998e+00
1.49814e-01,1.14248e+00
1.53314e-01,1.05225e+00
1.56895e-01,9.68781e-01
1.60561e-01,8.91587e-01
1.64311e-01,8.20213e-01
1.68149e-01,7.54236e-01
1.72077e-01,6.93264e-01
1.76097e-01,6.36930e-01
1.80211e-01,5.84894e-01
1.84420e-01,5.36838e-01
1.88729e-01,4.92468e-01
1.93137e-01,4.51511e-01
1.97649e-01,4.13711e-01
2.02266e-01,3.78833e-01
2.06991e-01,3.46658e-01
2.11826e-01,3.16981e-01
2.16774e-01,2.89614e-01
2.21838e-01,2.64382e-01
2.27020e-01,2.41122e-01
2.32324e-01,2.19685e-01
2.37751e-01,1.99930e-01
2.43304e-01,1.81730e-01
2.48988e-01,1.64963e-01
2.54804e-01,1.49520e-01
2.60757e-01,1.35299e-01
2.66848e-01,1.22204e-01
2.73081e-01,1.10149e-01
2.79460e-01,9.90520e-02
2.85989e-01,8.88384e-02
2.92669e-01,7.94393e-02
2.99506e-01,7.07908e-02
3.06502e-01,6.28339e-02
3.13662e-01,5.55143e-02
3.20989e-01,4.87816e-02
3.28488e-01,4.25896e-02
3.36161e-01,3.68953e-02
3.44014e-01,3.16594e-02
3.52050e-01,2.68455e-02
3.60274e-01,2.24200e-02
3.68690e-01,1.83519e-02
3.77302e-01,1.46128e-02
3.86116e-01,1.11763e-02
3.95136e-01,8.01817e-03
4.04366e-01,5.11620e-03
4.13812e-01,2.44978e-03
4.23479e-01,0.00000e+00
