m1=117234.266, m2=10.844, gsp=2.431, rhosp=3753.213
fGW[Hz],dPh[rad]
2.81422e-03,2.91877e+05
2.85109e-03,2.79519e+05
2.88843e-03,2.67663e+05
2.92627e-03,2.56289e+05
2.96460e-03,2.45380e+05
3.00344e-03,2.34918e+05
3.04278e-03,2.24884e+05
3.08264e-03,2.15263e+05
3.12302e-03,2.06038e+05
3.16393e-03,1.97194e+05
3.20538e-03,1.88716e+05
3.24737e-03,1.80590e+05
3.28990e-03,1.72801e+05
3.33300e-03,1.65337e+05
3.37666e-03,1.58183e+05
3.42089e-03,1.51330e+05
3.46571e-03,1.44763e+05
3.51110e-03,1.38472e+05
3.55710e-03,1.32445e+05
3.60369e-03,1.26673e+05
3.65090e-03,1.21144e+05
3.69873e-03,1.15849e+05
3.74718e-03,1.10779e+05
3.79626e-03,1.05924e+05
3.84599e-03,1.01276e+05
3.89637e-03,9.68253e+04
3.94741e-03,9.25650e+04
3.99912e-03,8.84870e+04
4.05151e-03,8.45837e+04
4.10458e-03,8.08479e+04
4.15835e-03,7.72727e+04
4.21282e-03,7.38515e+04
4.26801e-03,7.05779e+04
4.32392e-03,6.74458e+04
4.38056e-03,6.44491e+04
4.43794e-03,6.15824e+04
4.49608e-03,5.88401e+04
4.55497e-03,5.62170e+04
4.61464e-03,5.37081e+04
4.67509e-03,5.13086e+04
4.73633e-03,4.90139e+04
4.79838e-03,4.68196e+04
4.86123e-03,4.47213e+04
4.92491e-03,4.27151e+04
4.98943e-03,4.07969e+04
5.05478e-03,3.89631e+04
5.12100e-03,3.72100e+04
5.18808e-03,3.55342e+04
5.25604e-03,3.39324e+04
5.32489e-03,3.24014e+04
5.39465e-03,3.09382e+04
5.46532e-03,2.95397e+04
5.53691e-03,2.82033e+04
5.60944e-03,2.69263e+04
5.68292e-03,2.57060e+04
5.75736e-03,2.45401e+04
5.83278e-03,2.34261e+04
5.90919e-03,2.23618e+04
5.98660e-03,2.13450e+04
6.06502e-03,2.03737e+04
6.14447e-03,1.94458e+04
6.22496e-03,1.85596e+04
6.30650e-03,1.77130e+04
6.38911e-03,1.69045e+04
6.47281e-03,1.61323e+04
6.55760e-03,1.53948e+04
6.64350e-03,1.46905e+04
6.73052e-03,1.40180e+04
6.81869e-03,1.33758e+04
6.90801e-03,1.27626e+04
6.99850e-03,1.21771e+04
7.09018e-03,1.16180e+04
7.18306e-03,1.10843e+04
7.27715e-03,1.05747e+04
7.37248e-03,1.00882e+04
7.46905e-03,9.62382e+03
7.56690e-03,9.18050e+03
7.66602e-03,8.75733e+03
7.76644e-03,8.35339e+03
7.86818e-03,7.96784e+03
7.97124e-03,7.59984e+03
8.07566e-03,7.24861e+03
8.18145e-03,6.91339e+03
8.28862e-03,6.59347e+03
8.39720e-03,6.28816e+03
8.50720e-03,5.99680e+03
8.61864e-03,5.71876e+03
8.73154e-03,5.45344e+03
8.84592e-03,5.20027e+03
8.96180e-03,4.95869e+03
9.07919e-03,4.72819e+03
9.19812e-03,4.50825e+03
9.31861e-03,4.29841e+03
9.44068e-03,4.09820e+03
9.56435e-03,3.90719e+03
9.68964e-03,3.72496e+03
9.81657e-03,3.55111e+03
9.94516e-03,3.38526e+03
1.00754e-02,3.22704e+03
1.02074e-02,3.07611e+03
1.03411e-02,2.93213e+03
1.04766e-02,2.79479e+03
1.06138e-02,2.66379e+03
1.07529e-02,2.53883e+03
1.08937e-02,2.41964e+03
1.10364e-02,2.30596e+03
1.11810e-02,2.19753e+03
1.13275e-02,2.09411e+03
1.14759e-02,1.99547e+03
1.16262e-02,1.90140e+03
1.17785e-02,1.81168e+03
1.19328e-02,1.72611e+03
1.20891e-02,1.64451e+03
1.22474e-02,1.56669e+03
1.24079e-02,1.49248e+03
1.25704e-02,1.42171e+03
1.27351e-02,1.35422e+03
1.29019e-02,1.28986e+03
1.30709e-02,1.22849e+03
1.32421e-02,1.16997e+03
1.34156e-02,1.11417e+03
1.35913e-02,1.06096e+03
1.37694e-02,1.01022e+03
1.39498e-02,9.61844e+02
1.41325e-02,9.15717e+02
1.43176e-02,8.71736e+02
1.45052e-02,8.29801e+02
1.46952e-02,7.89819e+02
1.48877e-02,7.51698e+02
1.50827e-02,7.15352e+02
1.52803e-02,6.80700e+02
1.54804e-02,6.47663e+02
1.56832e-02,6.16165e+02
1.58887e-02,5.86136e+02
1.60968e-02,5.57507e+02
1.63077e-02,5.30214e+02
1.65213e-02,5.04194e+02
1.67377e-02,4.79388e+02
1.69570e-02,4.55740e+02
1.71791e-02,4.33196e+02
1.74041e-02,4.11705e+02
1.76321e-02,3.91218e+02
1.78631e-02,3.71688e+02
1.80971e-02,3.53070e+02
1.83341e-02,3.35323e+02
1.85743e-02,3.18405e+02
1.88176e-02,3.02278e+02
1.90641e-02,2.86905e+02
1.93139e-02,2.72252e+02
1.95669e-02,2.58284e+02
1.98232e-02,2.44969e+02
2.00828e-02,2.32277e+02
2.03459e-02,2.20180e+02
2.06124e-02,2.08648e+02
2.08825e-02,1.97657e+02
2.11560e-02,1.87180e+02
2.14331e-02,1.77194e+02
2.17139e-02,1.67676e+02
2.19983e-02,1.58604e+02
2.22865e-02,1.49957e+02
2.25785e-02,1.41715e+02
2.28742e-02,1.33859e+02
2.31739e-02,1.26371e+02
2.34774e-02,1.19235e+02
2.37850e-02,1.12433e+02
2.40965e-02,1.05950e+02
2.44122e-02,9.97711e+01
2.47320e-02,9.38820e+01
2.50560e-02,8.82692e+01
2.53842e-02,8.29198e+01
2.57167e-02,7.78213e+01
2.60536e-02,7.29621e+01
2.63949e-02,6.83309e+01
2.67406e-02,6.39171e+01
2.70909e-02,5.97105e+01
2.74458e-02,5.57014e+01
2.78053e-02,5.18805e+01
2.81695e-02,4.82390e+01
2.85386e-02,4.47686e+01
2.89124e-02,4.14611e+01
2.92911e-02,3.83089e+01
2.96748e-02,3.53049e+01
3.00636e-02,3.24419e+01
3.04574e-02,2.97135e+01
3.08564e-02,2.71133e+01
3.12606e-02,2.46352e+01
3.16701e-02,2.22736e+01
3.20849e-02,2.00230e+01
3.25052e-02,1.78782e+01
3.29310e-02,1.58342e+01
3.33624e-02,1.38863e+01
3.37994e-02,1.20299e+01
3.42422e-02,1.02609e+01
3.46907e-02,8.57496e+00
3.51452e-02,6.96834e+00
3.56056e-02,5.43728e+00
3.60720e-02,3.97821e+00
3.65445e-02,2.58777e+00
3.70232e-02,1.26272e+00
3.75082e-02,0.00000e+00
