m1=2913.519, m2=4.074, gsp=2.456, rhosp=563.195
fGW[Hz],dPh[rad]
1.02338e-02,3.57850e+05
1.04939e-02,3.39752e+05
1.07606e-02,3.22559e+05
1.10341e-02,3.06225e+05
1.13145e-02,2.90709e+05
1.16021e-02,2.75969e+05
1.18970e-02,2.61967e+05
1.21993e-02,2.48666e+05
1.25094e-02,2.36031e+05
1.28273e-02,2.24029e+05
1.31533e-02,2.12629e+05
1.34876e-02,2.01800e+05
1.38304e-02,1.91514e+05
1.41818e-02,1.81744e+05
1.45423e-02,1.72465e+05
1.49119e-02,1.63652e+05
1.52908e-02,1.55281e+05
1.56795e-02,1.47330e+05
1.60779e-02,1.39780e+05
1.64866e-02,1.32609e+05
1.69056e-02,1.25799e+05
1.73352e-02,1.19332e+05
1.77758e-02,1.13191e+05
1.82275e-02,1.07359e+05
1.86908e-02,1.01821e+05
1.91658e-02,9.65627e+04
1.96529e-02,9.15697e+04
2.01524e-02,8.68289e+04
2.06645e-02,8.23278e+04
2.11897e-02,7.80543e+04
2.17283e-02,7.39971e+04
2.22805e-02,7.01454e+04
2.28467e-02,6.64889e+04
2.34274e-02,6.30178e+04
2.40228e-02,5.97230e+04
2.46333e-02,5.65955e+04
2.52593e-02,5.36271e+04
2.59013e-02,5.08097e+04
2.65596e-02,4.81358e+04
2.72346e-02,4.55982e+04
2.79267e-02,4.31901e+04
2.86365e-02,4.09050e+04
2.93643e-02,3.87367e+04
3.01106e-02,3.66794e+04
3.08758e-02,3.47276e+04
3.16605e-02,3.28758e+04
3.24651e-02,3.11192e+04
3.32902e-02,2.94529e+04
3.41363e-02,2.78724e+04
3.50039e-02,2.63734e+04
3.58935e-02,2.49518e+04
3.68057e-02,2.36036e+04
3.77411e-02,2.23252e+04
3.87003e-02,2.11132e+04
3.96838e-02,1.99640e+04
4.06924e-02,1.88746e+04
4.17266e-02,1.78420e+04
4.27870e-02,1.68632e+04
4.38745e-02,1.59356e+04
4.49895e-02,1.50566e+04
4.61329e-02,1.42237e+04
4.73054e-02,1.34346e+04
4.85076e-02,1.26870e+04
4.97404e-02,1.19789e+04
5.10046e-02,1.13082e+04
5.23008e-02,1.06731e+04
5.36300e-02,1.00717e+04
5.49930e-02,9.50228e+03
5.63907e-02,8.96329e+03
5.78238e-02,8.45313e+03
5.92934e-02,7.97032e+03
6.08003e-02,7.51348e+03
6.23455e-02,7.08127e+03
6.39300e-02,6.67242e+03
6.55548e-02,6.28573e+03
6.72208e-02,5.92007e+03
6.89292e-02,5.57435e+03
7.06810e-02,5.24753e+03
7.24774e-02,4.93865e+03
7.43194e-02,4.64677e+03
7.62082e-02,4.37101e+03
7.81450e-02,4.11053e+03
8.01310e-02,3.86454e+03
8.21675e-02,3.63227e+03
8.42558e-02,3.41302e+03
8.63971e-02,3.20609e+03
8.85929e-02,3.01084e+03
9.08444e-02,2.82665e+03
9.31532e-02,2.65293e+03
9.55207e-02,2.48914e+03
9.79483e-02,2.33475e+03
1.00438e-01,2.18924e+03
1.02990e-01,2.05216e+03
1.05608e-01,1.92304e+03
1.08292e-01,1.80145e+03
1.11044e-01,1.68700e+03
1.13866e-01,1.57929e+03
1.16760e-01,1.47796e+03
1.19727e-01,1.38265e+03
1.22770e-01,1.29304e+03
1.25890e-01,1.20882e+03
1.29090e-01,1.12968e+03
1.32371e-01,1.05535e+03
1.35735e-01,9.85545e+02
1.39184e-01,9.20027e+02
1.42722e-01,8.58548e+02
1.46349e-01,8.00882e+02
1.50068e-01,7.46810e+02
1.53882e-01,6.96128e+02
1.57793e-01,6.48640e+02
1.61803e-01,6.04163e+02
1.65916e-01,5.62520e+02
1.70132e-01,5.23548e+02
1.74456e-01,4.87088e+02
1.78890e-01,4.52993e+02
1.83436e-01,4.21121e+02
1.88098e-01,3.91341e+02
1.92879e-01,3.63525e+02
1.97781e-01,3.37556e+02
2.02807e-01,3.13320e+02
2.07961e-01,2.90711e+02
2.13247e-01,2.69630e+02
2.18666e-01,2.49980e+02
2.24224e-01,2.31673e+02
2.29922e-01,2.14625e+02
2.35766e-01,1.98754e+02
2.41758e-01,1.83987e+02
2.47902e-01,1.70252e+02
2.54202e-01,1.57483e+02
2.60663e-01,1.45616e+02
2.67287e-01,1.34594e+02
2.74080e-01,1.24359e+02
2.81046e-01,1.14860e+02
2.88189e-01,1.06047e+02
2.95513e-01,9.78749e+01
3.03023e-01,9.02996e+01
3.10724e-01,8.32805e+01
3.18621e-01,7.67794e+01
3.26719e-01,7.07605e+01
3.35023e-01,6.51904e+01
3.43537e-01,6.00376e+01
3.52268e-01,5.52726e+01
3.61221e-01,5.08681e+01
3.70401e-01,4.67983e+01
3.79815e-01,4.30392e+01
3.89468e-01,3.95684e+01
3.99366e-01,3.63649e+01
4.09515e-01,3.34092e+01
4.19923e-01,3.06831e+01
4.30595e-01,2.81696e+01
4.41539e-01,2.58531e+01
4.52760e-01,2.37186e+01
4.64267e-01,2.17527e+01
4.76066e-01,1.99425e+01
4.88165e-01,1.82763e+01
5.00572e-01,1.67431e+01
5.13294e-01,1.53326e+01
5.26339e-01,1.40355e+01
5.39716e-01,1.28430e+01
5.53433e-01,1.17469e+01
5.67498e-01,1.07398e+01
5.81921e-01,9.81464e+00
5.96710e-01,8.96500e+00
6.11875e-01,8.18491e+00
6.27426e-01,7.46885e+00
6.43372e-01,6.81174e+00
6.59723e-01,6.20886e+00
6.76489e-01,5.65585e+00
6.93682e-01,5.14872e+00
7.11312e-01,4.68375e+00
7.29390e-01,4.25752e+00
7.47927e-01,3.86689e+00
7.66935e-01,3.50896e+00
7.86427e-01,3.18105e+00
8.06413e-01,2.88070e+00
8.26908e-01,2.60564e+00
8.47924e-01,2.35379e+00
8.69473e-01,2.12322e+00
8.91571e-01,1.91218e+00
9.14230e-01,1.71904e+00
9.37465e-01,1.54230e+00
9.61290e-01,1.38061e+00
9.85721e-01,1.23269e+00
1.01077e+00,1.09740e+00
1.03646e+00,9.73676e-01
1.06280e+00,8.60538e-01
1.08981e+00,7.57097e-01
1.11751e+00,6.62532e-01
1.14591e+00,5.76092e-01
1.17503e+00,4.97087e-01
1.20490e+00,4.24886e-01
1.23552e+00,3.58910e-01
1.26692e+00,2.98628e-01
1.29912e+00,2.43553e-01
1.33214e+00,1.93242e-01
1.36599e+00,1.47285e-01
1.40071e+00,1.05310e-01
1.43631e+00,6.69753e-02
1.47281e+00,3.19673e-02
1.51024e+00,0.00000e+00
