m1=38560.497, m2=13.725, gsp=2.225, rhosp=5116.078
fGW[Hz],dPh[rad]
3.40192e-03,1.32296e+04
3.46250e-03,1.26361e+04
3.52415e-03,1.20676e+04
3.58691e-03,1.15232e+04
3.65078e-03,1.10018e+04
3.71578e-03,1.05026e+04
3.78195e-03,1.00246e+04
3.84929e-03,9.56706e+03
3.91783e-03,9.12909e+03
3.98760e-03,8.70992e+03
4.05860e-03,8.30878e+03
4.13087e-03,7.92495e+03
4.20443e-03,7.55773e+03
4.27929e-03,7.20644e+03
4.35549e-03,6.87043e+03
4.43305e-03,6.54908e+03
4.51198e-03,6.24178e+03
4.59232e-03,5.94798e+03
4.67410e-03,5.66710e+03
4.75733e-03,5.39863e+03
4.84204e-03,5.14204e+03
4.92826e-03,4.89684e+03
5.01601e-03,4.66258e+03
5.10533e-03,4.43878e+03
5.19624e-03,4.22501e+03
5.28876e-03,4.02087e+03
5.38294e-03,3.82593e+03
5.47879e-03,3.63982e+03
5.57634e-03,3.46217e+03
5.67564e-03,3.29261e+03
5.77670e-03,3.13081e+03
5.87956e-03,2.97643e+03
5.98426e-03,2.82917e+03
6.09082e-03,2.68871e+03
6.19927e-03,2.55476e+03
6.30966e-03,2.42705e+03
6.42201e-03,2.30530e+03
6.53636e-03,2.18926e+03
6.65275e-03,2.07868e+03
6.77121e-03,1.97332e+03
6.89178e-03,1.87296e+03
7.01450e-03,1.77737e+03
7.13941e-03,1.68634e+03
7.26653e-03,1.59968e+03
7.39592e-03,1.51719e+03
7.52762e-03,1.43868e+03
7.66166e-03,1.36397e+03
7.79808e-03,1.29290e+03
7.93694e-03,1.22531e+03
8.07827e-03,1.16102e+03
8.22211e-03,1.09990e+03
8.36852e-03,1.04181e+03
8.51753e-03,9.86588e+02
8.66920e-03,9.34120e+02
8.82357e-03,8.84276e+02
8.98068e-03,8.36932e+02
9.14060e-03,7.91973e+02
9.30336e-03,7.49288e+02
9.46902e-03,7.08770e+02
9.63763e-03,6.70317e+02
9.80924e-03,6.33832e+02
9.98391e-03,5.99220e+02
1.01617e-02,5.66392e+02
1.03426e-02,5.35264e+02
1.05268e-02,5.05752e+02
1.07142e-02,4.77780e+02
1.09050e-02,4.51272e+02
1.10992e-02,4.26157e+02
1.12968e-02,4.02366e+02
1.14980e-02,3.79835e+02
1.17027e-02,3.58501e+02
1.19111e-02,3.38306e+02
1.21232e-02,3.19191e+02
1.23391e-02,3.01103e+02
1.25588e-02,2.83990e+02
1.27824e-02,2.67804e+02
1.30100e-02,2.52497e+02
1.32417e-02,2.38024e+02
1.34775e-02,2.24342e+02
1.37175e-02,2.11412e+02
1.39617e-02,1.99193e+02
1.42103e-02,1.87650e+02
1.44634e-02,1.76747e+02
1.47209e-02,1.66450e+02
1.49830e-02,1.56728e+02
1.52498e-02,1.47551e+02
1.55214e-02,1.38889e+02
1.57977e-02,1.30716e+02
1.60790e-02,1.23005e+02
1.63654e-02,1.15731e+02
1.66568e-02,1.08870e+02
1.69534e-02,1.02402e+02
1.72552e-02,9.63033e+01
1.75625e-02,9.05550e+01
1.78752e-02,8.51377e+01
1.81935e-02,8.00331e+01
1.85175e-02,7.52241e+01
1.88472e-02,7.06944e+01
1.91828e-02,6.64284e+01
1.95244e-02,6.24114e+01
1.98720e-02,5.86296e+01
2.02259e-02,5.50698e+01
2.05860e-02,5.17194e+01
2.09526e-02,4.85667e+01
2.13257e-02,4.56004e+01
2.17054e-02,4.28099e+01
2.20919e-02,4.01853e+01
2.24853e-02,3.77170e+01
2.28857e-02,3.53961e+01
2.32932e-02,3.32141e+01
2.37080e-02,3.11629e+01
2.41301e-02,2.92350e+01
2.45598e-02,2.74233e+01
2.49971e-02,2.57208e+01
2.54422e-02,2.41214e+01
2.58953e-02,2.26189e+01
2.63564e-02,2.12076e+01
2.68257e-02,1.98822e+01
2.73033e-02,1.86376e+01
2.77895e-02,1.74690e+01
2.82843e-02,1.63719e+01
2.87880e-02,1.53421e+01
2.93006e-02,1.43755e+01
2.98223e-02,1.34683e+01
3.03534e-02,1.26171e+01
3.08938e-02,1.18183e+01
3.14440e-02,1.10690e+01
3.20039e-02,1.03660e+01
3.25737e-02,9.70658e+00
3.31538e-02,9.08813e+00
3.37441e-02,8.50814e+00
3.43450e-02,7.96427e+00
3.49565e-02,7.45431e+00
3.55790e-02,6.97619e+00
3.62125e-02,6.52798e+00
3.68573e-02,6.10782e+00
3.75136e-02,5.71400e+00
3.81816e-02,5.34490e+00
3.88615e-02,4.99900e+00
3.95535e-02,4.67486e+00
4.02578e-02,4.37113e+00
4.09746e-02,4.08656e+00
4.17042e-02,3.81996e+00
4.24468e-02,3.57020e+00
4.32026e-02,3.33624e+00
4.39719e-02,3.11710e+00
4.47549e-02,2.91184e+00
4.55518e-02,2.71962e+00
4.63630e-02,2.53960e+00
4.71885e-02,2.37102e+00
4.80288e-02,2.21317e+00
4.88840e-02,2.06537e+00
4.97544e-02,1.92699e+00
5.06404e-02,1.79744e+00
5.15421e-02,1.67616e+00
5.24599e-02,1.56262e+00
5.33940e-02,1.45635e+00
5.43448e-02,1.35688e+00
5.53124e-02,1.26377e+00
5.62974e-02,1.17663e+00
5.72998e-02,1.09508e+00
5.83201e-02,1.01877e+00
5.93586e-02,9.47348e-01
6.04156e-02,8.80519e-01
6.14913e-02,8.17986e-01
6.25863e-02,7.59475e-01
6.37007e-02,7.04731e-01
6.48350e-02,6.53512e-01
6.59895e-02,6.05593e-01
6.71645e-02,5.60764e-01
6.83605e-02,5.18826e-01
6.95777e-02,4.79595e-01
7.08167e-02,4.42898e-01
7.20776e-02,4.08571e-01
7.33611e-02,3.76462e-01
7.46674e-02,3.46430e-01
7.59969e-02,3.18341e-01
7.73502e-02,2.92069e-01
7.87275e-02,2.67499e-01
8.01294e-02,2.44520e-01
8.15562e-02,2.23030e-01
8.30084e-02,2.02933e-01
8.44865e-02,1.84140e-01
8.59909e-02,1.66565e-01
8.75221e-02,1.50131e-01
8.90805e-02,1.34764e-01
9.06667e-02,1.20395e-01
9.22812e-02,1.06960e-01
9.39244e-02,9.43970e-02
9.55968e-02,8.26510e-02
9.72991e-02,7.16687e-02
9.90316e-02,6.14008e-02
1.00795e-01,5.18009e-02
1.02590e-01,4.28257e-02
1.04417e-01,3.44348e-02
1.06276e-01,2.65902e-02
1.08168e-01,1.92565e-02
1.10094e-01,1.24006e-02
1.12055e-01,5.99145e-03
1.14050e-01,0.00000e+00
