m1=6159.833, m2=62.600, gsp=2.496, rhosp=76.895
fGW[Hz],dPh[rad]
3.04967e-03,3.73764e+04
3.13451e-03,3.53719e+04
3.22172e-03,3.34747e+04
3.31135e-03,3.16790e+04
3.40347e-03,2.99794e+04
3.49816e-03,2.83708e+04
3.59548e-03,2.68483e+04
3.69550e-03,2.54073e+04
3.79831e-03,2.40435e+04
3.90399e-03,2.27527e+04
4.01260e-03,2.15309e+04
4.12423e-03,2.03746e+04
4.23897e-03,1.92803e+04
4.35690e-03,1.82445e+04
4.47811e-03,1.72642e+04
4.60269e-03,1.63363e+04
4.73074e-03,1.54582e+04
4.86235e-03,1.46271e+04
4.99762e-03,1.38406e+04
5.13666e-03,1.30961e+04
5.27956e-03,1.23916e+04
5.42644e-03,1.17248e+04
5.57741e-03,1.10937e+04
5.73258e-03,1.04964e+04
5.89206e-03,9.93120e+03
6.05598e-03,9.39625e+03
6.22446e-03,8.88997e+03
6.39763e-03,8.41083e+03
6.57561e-03,7.95738e+03
6.75855e-03,7.52824e+03
6.94657e-03,7.12212e+03
7.13983e-03,6.73778e+03
7.33846e-03,6.37405e+03
7.54262e-03,6.02983e+03
7.75246e-03,5.70409e+03
7.96814e-03,5.39582e+03
8.18982e-03,5.10409e+03
8.41766e-03,4.82803e+03
8.65184e-03,4.56678e+03
8.89254e-03,4.31956e+03
9.13994e-03,4.08562e+03
9.39421e-03,3.86424e+03
9.65557e-03,3.65475e+03
9.92419e-03,3.45652e+03
1.02003e-02,3.26895e+03
1.04841e-02,3.09146e+03
1.07757e-02,2.92350e+03
1.10755e-02,2.76459e+03
1.13836e-02,2.61421e+03
1.17003e-02,2.47193e+03
1.20259e-02,2.33731e+03
1.23604e-02,2.20993e+03
1.27043e-02,2.08942e+03
1.30577e-02,1.97539e+03
1.34210e-02,1.86751e+03
1.37944e-02,1.76544e+03
1.41781e-02,1.66887e+03
1.45726e-02,1.57751e+03
1.49780e-02,1.49108e+03
1.53947e-02,1.40932e+03
1.58230e-02,1.33197e+03
1.62632e-02,1.25879e+03
1.67156e-02,1.18957e+03
1.71807e-02,1.12409e+03
1.76586e-02,1.06216e+03
1.81499e-02,1.00357e+03
1.86549e-02,9.48157e+02
1.91738e-02,8.95743e+02
1.97073e-02,8.46169e+02
2.02555e-02,7.99283e+02
2.08191e-02,7.54940e+02
2.13982e-02,7.13005e+02
2.19936e-02,6.73346e+02
2.26054e-02,6.35843e+02
2.32343e-02,6.00379e+02
2.38807e-02,5.66846e+02
2.45451e-02,5.35138e+02
2.52279e-02,5.05158e+02
2.59298e-02,4.76813e+02
2.66512e-02,4.50016e+02
2.73926e-02,4.24682e+02
2.81547e-02,4.00734e+02
2.89380e-02,3.78096e+02
2.97430e-02,3.56698e+02
3.05705e-02,3.36473e+02
3.14210e-02,3.17358e+02
3.22951e-02,2.99293e+02
3.31936e-02,2.82222e+02
3.41171e-02,2.66091e+02
3.50662e-02,2.50849e+02
3.60418e-02,2.36449e+02
3.70445e-02,2.22844e+02
3.80751e-02,2.09992e+02
3.91343e-02,1.97852e+02
4.02231e-02,1.86386e+02
4.13421e-02,1.75557e+02
4.24922e-02,1.65331e+02
4.36744e-02,1.55674e+02
4.48894e-02,1.46557e+02
4.61383e-02,1.37950e+02
4.74219e-02,1.29825e+02
4.87412e-02,1.22156e+02
5.00972e-02,1.14918e+02
5.14909e-02,1.08088e+02
5.29234e-02,1.01643e+02
5.43958e-02,9.55634e+01
5.59091e-02,8.98282e+01
5.74645e-02,8.44189e+01
5.90632e-02,7.93177e+01
6.07063e-02,7.45076e+01
6.23952e-02,6.99729e+01
6.41311e-02,6.56984e+01
6.59152e-02,6.16697e+01
6.77490e-02,5.78735e+01
6.96338e-02,5.42968e+01
7.15711e-02,5.09277e+01
7.35622e-02,4.77545e+01
7.56088e-02,4.47666e+01
7.77122e-02,4.19537e+01
7.98742e-02,3.93060e+01
8.20964e-02,3.68144e+01
8.43803e-02,3.44701e+01
8.67278e-02,3.22650e+01
8.91406e-02,3.01913e+01
9.16206e-02,2.82416e+01
9.41695e-02,2.64090e+01
9.67893e-02,2.46869e+01
9.94820e-02,2.30690e+01
1.02250e-01,2.15494e+01
1.05094e-01,2.01226e+01
1.08018e-01,1.87833e+01
1.11023e-01,1.75265e+01
1.14112e-01,1.63474e+01
1.17287e-01,1.52417e+01
1.20550e-01,1.42050e+01
1.23903e-01,1.32335e+01
1.27350e-01,1.23232e+01
1.30893e-01,1.14707e+01
1.34535e-01,1.06725e+01
1.38278e-01,9.92552e+00
1.42125e-01,9.22667e+00
1.46079e-01,8.57312e+00
1.50142e-01,7.96216e+00
1.54320e-01,7.39125e+00
1.58613e-01,6.85798e+00
1.63025e-01,6.36007e+00
1.67561e-01,5.89538e+00
1.72222e-01,5.46188e+00
1.77014e-01,5.05765e+00
1.81938e-01,4.68088e+00
1.87000e-01,4.32987e+00
1.92202e-01,4.00300e+00
1.97550e-01,3.69876e+00
2.03046e-01,3.41571e+00
2.08694e-01,3.15250e+00
2.14500e-01,2.90786e+00
2.20468e-01,2.68060e+00
2.26601e-01,2.46957e+00
2.32905e-01,2.27372e+00
2.39385e-01,2.09204e+00
2.46045e-01,1.92360e+00
2.52890e-01,1.76751e+00
2.59925e-01,1.62294e+00
2.67157e-01,1.48910e+00
2.74589e-01,1.36527e+00
2.82228e-01,1.25074e+00
2.90080e-01,1.14488e+00
2.98150e-01,1.04709e+00
3.06445e-01,9.56782e-01
3.14970e-01,8.73438e-01
3.23733e-01,7.96558e-01
3.32739e-01,7.25675e-01
3.41996e-01,6.60354e-01
3.51511e-01,6.00190e-01
3.61290e-01,5.44801e-01
3.71341e-01,4.93834e-01
3.81672e-01,4.46959e-01
3.92290e-01,4.03868e-01
4.03204e-01,3.64274e-01
4.14421e-01,3.27909e-01
4.25951e-01,2.94527e-01
4.37801e-01,2.63896e-01
4.49981e-01,2.35803e-01
4.62499e-01,2.10047e-01
4.75366e-01,1.86446e-01
4.88591e-01,1.64827e-01
5.02184e-01,1.45033e-01
5.16155e-01,1.26916e-01
5.30515e-01,1.10343e-01
5.45274e-01,9.51856e-02
5.60444e-01,8.13296e-02
5.76036e-01,6.86678e-02
5.92061e-01,5.71014e-02
6.08532e-01,4.65394e-02
6.25462e-01,3.68980e-02
6.42863e-01,2.80998e-02
6.60748e-01,2.00737e-02
6.79130e-01,1.27543e-02
6.98024e-01,6.08152e-03
7.17443e-01,0.00000e+00
