m1=9606.346, m2=4.182, gsp=2.157, rhosp=280.131
fGW[Hz],dPh[rad]
7.51949e-03,2.76507e+03
7.67637e-03,2.63002e+03
7.83652e-03,2.50132e+03
8.00001e-03,2.37869e+03
8.16691e-03,2.26183e+03
8.33730e-03,2.15049e+03
8.51124e-03,2.04442e+03
8.68881e-03,1.94337e+03
8.87008e-03,1.84710e+03
9.05513e-03,1.75541e+03
9.24405e-03,1.66808e+03
9.43691e-03,1.58490e+03
9.63379e-03,1.50569e+03
9.83477e-03,1.43027e+03
1.00400e-02,1.35846e+03
1.02494e-02,1.29008e+03
1.04632e-02,1.22499e+03
1.06815e-02,1.16304e+03
1.09044e-02,1.10406e+03
1.11319e-02,1.04793e+03
1.13641e-02,9.94523e+02
1.16012e-02,9.43699e+02
1.18432e-02,8.95344e+02
1.20903e-02,8.49341e+02
1.23426e-02,8.05581e+02
1.26001e-02,7.63959e+02
1.28629e-02,7.24376e+02
1.31313e-02,6.86735e+02
1.34053e-02,6.50945e+02
1.36849e-02,6.16920e+02
1.39704e-02,5.84577e+02
1.42619e-02,5.53836e+02
1.45594e-02,5.24622e+02
1.48632e-02,4.96862e+02
1.51733e-02,4.70488e+02
1.54898e-02,4.45434e+02
1.58130e-02,4.21637e+02
1.61429e-02,3.99038e+02
1.64797e-02,3.77579e+02
1.68235e-02,3.57206e+02
1.71745e-02,3.37867e+02
1.75328e-02,3.19513e+02
1.78986e-02,3.02095e+02
1.82720e-02,2.85570e+02
1.86532e-02,2.69893e+02
1.90423e-02,2.55025e+02
1.94396e-02,2.40925e+02
1.98452e-02,2.27556e+02
2.02592e-02,2.14883e+02
2.06819e-02,2.02872e+02
2.11134e-02,1.91491e+02
2.15538e-02,1.80707e+02
2.20035e-02,1.70493e+02
2.24626e-02,1.60820e+02
2.29312e-02,1.51661e+02
2.34096e-02,1.42990e+02
2.38980e-02,1.34784e+02
2.43966e-02,1.27019e+02
2.49056e-02,1.19673e+02
2.54252e-02,1.12724e+02
2.59556e-02,1.06154e+02
2.64971e-02,9.99421e+01
2.70499e-02,9.40708e+01
2.76143e-02,8.85226e+01
2.81904e-02,8.32810e+01
2.87785e-02,7.83302e+01
2.93789e-02,7.36552e+01
2.99918e-02,6.92417e+01
3.06175e-02,6.50763e+01
3.12563e-02,6.11458e+01
3.19084e-02,5.74381e+01
3.25741e-02,5.39414e+01
3.32537e-02,5.06445e+01
3.39474e-02,4.75369e+01
3.46557e-02,4.46084e+01
3.53787e-02,4.18495e+01
3.61168e-02,3.92511e+01
3.68703e-02,3.68044e+01
3.76395e-02,3.45013e+01
3.84248e-02,3.23339e+01
3.92264e-02,3.02948e+01
4.00448e-02,2.83770e+01
4.08802e-02,2.65737e+01
4.17331e-02,2.48786e+01
4.26038e-02,2.32856e+01
4.34926e-02,2.17889e+01
4.44000e-02,2.03833e+01
4.53263e-02,1.90635e+01
4.62720e-02,1.78246e+01
4.72373e-02,1.66620e+01
4.82228e-02,1.55713e+01
4.92289e-02,1.45484e+01
5.02559e-02,1.35893e+01
5.13044e-02,1.26903e+01
5.23748e-02,1.18478e+01
5.34674e-02,1.10586e+01
5.45829e-02,1.03195e+01
5.57217e-02,9.62743e+00
5.68842e-02,8.97966e+00
5.80710e-02,8.37351e+00
5.92825e-02,7.80645e+00
6.05193e-02,7.27611e+00
6.17819e-02,6.78024e+00
6.30708e-02,6.31675e+00
6.43867e-02,5.88361e+00
6.57299e-02,5.47897e+00
6.71013e-02,5.10104e+00
6.85012e-02,4.74815e+00
6.99303e-02,4.41873e+00
7.13892e-02,4.11130e+00
7.28786e-02,3.82446e+00
7.43991e-02,3.55691e+00
7.59512e-02,3.30740e+00
7.75358e-02,3.07477e+00
7.91534e-02,2.85795e+00
8.08048e-02,2.65589e+00
8.24906e-02,2.46765e+00
8.42116e-02,2.29232e+00
8.59685e-02,2.12904e+00
8.77620e-02,1.97703e+00
8.95930e-02,1.83554e+00
9.14621e-02,1.70387e+00
9.33703e-02,1.58136e+00
9.53183e-02,1.46741e+00
9.73069e-02,1.36143e+00
9.93370e-02,1.26289e+00
1.01409e-01,1.17128e+00
1.03525e-01,1.08613e+00
1.05685e-01,1.00701e+00
1.07890e-01,9.33503e-01
1.10141e-01,8.65218e-01
1.12439e-01,8.01797e-01
1.14784e-01,7.42906e-01
1.17179e-01,6.88231e-01
1.19624e-01,6.37477e-01
1.22119e-01,5.90372e-01
1.24667e-01,5.46661e-01
1.27268e-01,5.06105e-01
1.29923e-01,4.68483e-01
1.32634e-01,4.33587e-01
1.35401e-01,4.01226e-01
1.38226e-01,3.71218e-01
1.41110e-01,3.43398e-01
1.44053e-01,3.17608e-01
1.47059e-01,2.93705e-01
1.50127e-01,2.71553e-01
1.53259e-01,2.51026e-01
1.56456e-01,2.32008e-01
1.59720e-01,2.14389e-01
1.63053e-01,1.98069e-01
1.66454e-01,1.82954e-01
1.69927e-01,1.68957e-01
1.73472e-01,1.55995e-01
1.77091e-01,1.43994e-01
1.80786e-01,1.32884e-01
1.84558e-01,1.22600e-01
1.88408e-01,1.13081e-01
1.92339e-01,1.04271e-01
1.96352e-01,9.61181e-02
2.00448e-01,8.85739e-02
2.04630e-01,8.15935e-02
2.08899e-01,7.51355e-02
2.13257e-01,6.91612e-02
2.17706e-01,6.36348e-02
2.22248e-01,5.85232e-02
2.26885e-01,5.37956e-02
2.31619e-01,4.94234e-02
2.36451e-01,4.53802e-02
2.41384e-01,4.16415e-02
2.46420e-01,3.81847e-02
2.51561e-01,3.49886e-02
2.56809e-01,3.20339e-02
2.62167e-01,2.93024e-02
2.67636e-01,2.67774e-02
2.73220e-01,2.44435e-02
2.78920e-01,2.22863e-02
2.84739e-01,2.02925e-02
2.90680e-01,1.84499e-02
2.96744e-01,1.67471e-02
3.02935e-01,1.51735e-02
3.09255e-01,1.37195e-02
3.15707e-01,1.23759e-02
3.22293e-01,1.11346e-02
3.29017e-01,9.98762e-03
3.35882e-01,8.92798e-03
3.42889e-01,7.94905e-03
3.50043e-01,7.04470e-03
3.57346e-01,6.20928e-03
3.64801e-01,5.43758e-03
3.72412e-01,4.72475e-03
3.80181e-01,4.06634e-03
3.88113e-01,3.45820e-03
3.96210e-01,2.89651e-03
4.04476e-01,2.37775e-03
4.12914e-01,1.89865e-03
4.21529e-01,1.45619e-03
4.30323e-01,1.04757e-03
4.39301e-01,6.70231e-04
4.48466e-01,3.21773e-04
4.57822e-01,0.00000e+00
