m1=151001.316, m2=5.452, gsp=2.212, rhosp=149.363
fGW[Hz],dPh[rad]
3.41857e-03,2.52392e+03
3.45557e-03,2.42454e+03
3.49297e-03,2.32903e+03
3.53077e-03,2.23722e+03
3.56898e-03,2.14899e+03
3.60761e-03,2.06420e+03
3.64666e-03,1.98270e+03
3.68612e-03,1.90439e+03
3.72602e-03,1.82912e+03
3.76634e-03,1.75680e+03
3.80711e-03,1.68730e+03
3.84831e-03,1.62052e+03
3.88996e-03,1.55635e+03
3.93206e-03,1.49469e+03
3.97462e-03,1.43545e+03
4.01764e-03,1.37853e+03
4.06112e-03,1.32384e+03
4.10507e-03,1.27130e+03
4.14950e-03,1.22082e+03
4.19441e-03,1.17232e+03
4.23981e-03,1.12573e+03
4.28569e-03,1.08097e+03
4.33208e-03,1.03797e+03
4.37896e-03,9.96671e+02
4.42636e-03,9.56994e+02
4.47426e-03,9.18881e+02
4.52269e-03,8.82272e+02
4.57164e-03,8.47106e+02
4.62111e-03,8.13330e+02
4.67113e-03,7.80887e+02
4.72168e-03,7.49726e+02
4.77279e-03,7.19798e+02
4.82444e-03,6.91053e+02
4.87666e-03,6.63446e+02
4.92944e-03,6.36932e+02
4.98279e-03,6.11468e+02
5.03672e-03,5.87014e+02
5.09123e-03,5.63529e+02
5.14633e-03,5.40975e+02
5.20203e-03,5.19317e+02
5.25833e-03,4.98518e+02
5.31524e-03,4.78546e+02
5.37277e-03,4.59366e+02
5.43092e-03,4.40950e+02
5.48970e-03,4.23265e+02
5.54911e-03,4.06284e+02
5.60917e-03,3.89979e+02
5.66988e-03,3.74323e+02
5.73124e-03,3.59290e+02
5.79327e-03,3.44857e+02
5.85597e-03,3.30998e+02
5.91935e-03,3.17692e+02
5.98341e-03,3.04917e+02
6.04817e-03,2.92651e+02
6.11363e-03,2.80875e+02
6.17980e-03,2.69569e+02
6.24668e-03,2.58714e+02
6.31429e-03,2.48293e+02
6.38263e-03,2.38289e+02
6.45171e-03,2.28684e+02
6.52153e-03,2.19463e+02
6.59212e-03,2.10611e+02
6.66346e-03,2.02114e+02
6.73558e-03,1.93956e+02
6.80848e-03,1.86125e+02
6.88217e-03,1.78608e+02
6.95665e-03,1.71391e+02
7.03194e-03,1.64464e+02
7.10805e-03,1.57814e+02
7.18498e-03,1.51431e+02
7.26274e-03,1.45304e+02
7.34135e-03,1.39423e+02
7.42080e-03,1.33777e+02
7.50112e-03,1.28358e+02
7.58230e-03,1.23157e+02
7.66436e-03,1.18164e+02
7.74732e-03,1.13372e+02
7.83116e-03,1.08772e+02
7.91592e-03,1.04357e+02
8.00159e-03,1.00119e+02
8.08820e-03,9.60522e+01
8.17573e-03,9.21485e+01
8.26422e-03,8.84017e+01
8.35366e-03,8.48056e+01
8.44407e-03,8.13541e+01
8.53546e-03,7.80415e+01
8.62784e-03,7.48622e+01
8.72122e-03,7.18108e+01
8.81561e-03,6.88823e+01
8.91102e-03,6.60717e+01
9.00746e-03,6.33742e+01
9.10495e-03,6.07854e+01
9.20349e-03,5.83009e+01
9.30310e-03,5.59165e+01
9.40379e-03,5.36282e+01
9.50557e-03,5.14321e+01
9.60844e-03,4.93245e+01
9.71244e-03,4.73019e+01
9.81755e-03,4.53609e+01
9.92381e-03,4.34981e+01
1.00312e-02,4.17105e+01
1.01398e-02,3.99950e+01
1.02495e-02,3.83487e+01
1.03605e-02,3.67689e+01
1.04726e-02,3.52528e+01
1.05859e-02,3.37979e+01
1.07005e-02,3.24017e+01
1.08163e-02,3.10620e+01
1.09334e-02,2.97763e+01
1.10517e-02,2.85425e+01
1.11713e-02,2.73586e+01
1.12922e-02,2.62225e+01
1.14144e-02,2.51323e+01
1.15380e-02,2.40862e+01
1.16629e-02,2.30823e+01
1.17891e-02,2.21190e+01
1.19167e-02,2.11947e+01
1.20456e-02,2.03077e+01
1.21760e-02,1.94566e+01
1.23078e-02,1.86399e+01
1.24410e-02,1.78562e+01
1.25756e-02,1.71042e+01
1.27118e-02,1.63827e+01
1.28493e-02,1.56903e+01
1.29884e-02,1.50260e+01
1.31290e-02,1.43885e+01
1.32711e-02,1.37768e+01
1.34147e-02,1.31899e+01
1.35599e-02,1.26267e+01
1.37066e-02,1.20863e+01
1.38550e-02,1.15678e+01
1.40049e-02,1.10703e+01
1.41565e-02,1.05929e+01
1.43097e-02,1.01349e+01
1.44646e-02,9.69538e+00
1.46212e-02,9.27368e+00
1.47794e-02,8.86907e+00
1.49394e-02,8.48084e+00
1.51010e-02,8.10834e+00
1.52645e-02,7.75093e+00
1.54297e-02,7.40800e+00
1.55967e-02,7.07896e+00
1.57655e-02,6.76326e+00
1.59361e-02,6.46035e+00
1.61086e-02,6.16971e+00
1.62829e-02,5.89086e+00
1.64592e-02,5.62330e+00
1.66373e-02,5.36659e+00
1.68174e-02,5.12029e+00
1.69994e-02,4.88397e+00
1.71834e-02,4.65724e+00
1.73693e-02,4.43969e+00
1.75573e-02,4.23097e+00
1.77473e-02,4.03071e+00
1.79394e-02,3.83857e+00
1.81336e-02,3.65423e+00
1.83298e-02,3.47736e+00
1.85282e-02,3.30766e+00
1.87288e-02,3.14485e+00
1.89315e-02,2.98864e+00
1.91363e-02,2.83876e+00
1.93435e-02,2.69497e+00
1.95528e-02,2.55701e+00
1.97644e-02,2.42465e+00
1.99783e-02,2.29766e+00
2.01946e-02,2.17582e+00
2.04131e-02,2.05893e+00
2.06341e-02,1.94678e+00
2.08574e-02,1.83918e+00
2.10831e-02,1.73594e+00
2.13113e-02,1.63690e+00
2.15420e-02,1.54188e+00
2.17751e-02,1.45071e+00
2.20108e-02,1.36324e+00
2.22490e-02,1.27933e+00
2.24898e-02,1.19882e+00
2.27332e-02,1.12158e+00
2.29792e-02,1.04747e+00
2.32279e-02,9.76378e-01
2.34793e-02,9.08168e-01
2.37335e-02,8.42727e-01
2.39903e-02,7.79944e-01
2.42500e-02,7.19710e-01
2.45124e-02,6.61922e-01
2.47777e-02,6.06480e-01
2.50459e-02,5.53290e-01
2.53170e-02,5.02260e-01
2.55910e-02,4.53303e-01
2.58679e-02,4.06333e-01
2.61479e-02,3.61272e-01
2.64309e-02,3.18040e-01
2.67170e-02,2.76565e-01
2.70061e-02,2.36774e-01
2.72984e-02,1.98599e-01
2.75938e-02,1.61975e-01
2.78925e-02,1.26839e-01
2.81944e-02,9.31303e-02
2.84995e-02,6.07909e-02
2.88080e-02,2.97652e-02
2.91198e-02,0.00000e+00
