m1=3475.997, m2=71.777, gsp=2.112, rhosp=36.237
fGW[Hz],dPh[rad]
3.34699e-03,1.56969e+01
3.44849e-03,1.46720e+01
3.55307e-03,1.37139e+01
3.66081e-03,1.28184e+01
3.77183e-03,1.19813e+01
3.88621e-03,1.11989e+01
4.00405e-03,1.04675e+01
4.12548e-03,9.78384e+00
4.25058e-03,9.14483e+00
4.37948e-03,8.54753e+00
4.51229e-03,7.98922e+00
4.64912e-03,7.46735e+00
4.79011e-03,6.97955e+00
4.93537e-03,6.52359e+00
5.08503e-03,6.09739e+00
5.23923e-03,5.69902e+00
5.39811e-03,5.32665e+00
5.56181e-03,4.97860e+00
5.73047e-03,4.65326e+00
5.90425e-03,4.34917e+00
6.08329e-03,4.06493e+00
6.26777e-03,3.79924e+00
6.45784e-03,3.55091e+00
6.65367e-03,3.31879e+00
6.85544e-03,3.10182e+00
7.06333e-03,2.89903e+00
7.27753e-03,2.70947e+00
7.49822e-03,2.53230e+00
7.72560e-03,2.36669e+00
7.95988e-03,2.21190e+00
8.20126e-03,2.06722e+00
8.44996e-03,1.93199e+00
8.70621e-03,1.80559e+00
8.97022e-03,1.68744e+00
9.24224e-03,1.57702e+00
9.52251e-03,1.47380e+00
9.81128e-03,1.37733e+00
1.01088e-02,1.28717e+00
1.04154e-02,1.20289e+00
1.07312e-02,1.12412e+00
1.10566e-02,1.05050e+00
1.13919e-02,9.81683e-01
1.17374e-02,9.17367e-01
1.20933e-02,8.57255e-01
1.24600e-02,8.01072e-01
1.28379e-02,7.48561e-01
1.32272e-02,6.99483e-01
1.36283e-02,6.53613e-01
1.40416e-02,6.10742e-01
1.44674e-02,5.70675e-01
1.49061e-02,5.33227e-01
1.53581e-02,4.98229e-01
1.58239e-02,4.65519e-01
1.63037e-02,4.34949e-01
1.67981e-02,4.06379e-01
1.73075e-02,3.79679e-01
1.78324e-02,3.54725e-01
1.83732e-02,3.31404e-01
1.89303e-02,3.09610e-01
1.95044e-02,2.89243e-01
2.00959e-02,2.70209e-01
2.07053e-02,2.52421e-01
2.13331e-02,2.35798e-01
2.19801e-02,2.20264e-01
2.26466e-02,2.05748e-01
2.33334e-02,1.92182e-01
2.40410e-02,1.79506e-01
2.47700e-02,1.67661e-01
2.55211e-02,1.56592e-01
2.62951e-02,1.46249e-01
2.70925e-02,1.36585e-01
2.79140e-02,1.27554e-01
2.87605e-02,1.19116e-01
2.96327e-02,1.11232e-01
3.05313e-02,1.03866e-01
3.14572e-02,9.69832e-02
3.24111e-02,9.05527e-02
3.33939e-02,8.45447e-02
3.44066e-02,7.89315e-02
3.54500e-02,7.36875e-02
3.65250e-02,6.87883e-02
3.76326e-02,6.42115e-02
3.87738e-02,5.99359e-02
3.99496e-02,5.59419e-02
4.11611e-02,5.22109e-02
4.24093e-02,4.87258e-02
4.36954e-02,4.54704e-02
4.50204e-02,4.24298e-02
4.63857e-02,3.95897e-02
4.77923e-02,3.69372e-02
4.92416e-02,3.44599e-02
5.07349e-02,3.21463e-02
5.22734e-02,2.99856e-02
5.38586e-02,2.79679e-02
5.54918e-02,2.60838e-02
5.71746e-02,2.43244e-02
5.89084e-02,2.26817e-02
6.06948e-02,2.11479e-02
6.25354e-02,1.97160e-02
6.44318e-02,1.83791e-02
6.63857e-02,1.71311e-02
6.83988e-02,1.59662e-02
7.04730e-02,1.48787e-02
7.26101e-02,1.38638e-02
7.48120e-02,1.29165e-02
7.70806e-02,1.20325e-02
7.94181e-02,1.12075e-02
8.18264e-02,1.04377e-02
8.43078e-02,9.71951e-03
8.68644e-02,9.04941e-03
8.94986e-02,8.42428e-03
9.22126e-02,7.84115e-03
9.50090e-02,7.29724e-03
9.78901e-02,6.78996e-03
1.00859e-01,6.31689e-03
1.03917e-01,5.87577e-03
1.07068e-01,5.46448e-03
1.10315e-01,5.08104e-03
1.13661e-01,4.72361e-03
1.17107e-01,4.39047e-03
1.20659e-01,4.07999e-03
1.24318e-01,3.79068e-03
1.28087e-01,3.52112e-03
1.31972e-01,3.27001e-03
1.35974e-01,3.03611e-03
1.40097e-01,2.81827e-03
1.44346e-01,2.61542e-03
1.48723e-01,2.42656e-03
1.53233e-01,2.25076e-03
1.57880e-01,2.08714e-03
1.62667e-01,1.93488e-03
1.67600e-01,1.79321e-03
1.72683e-01,1.66144e-03
1.77919e-01,1.53888e-03
1.83315e-01,1.42493e-03
1.88874e-01,1.31899e-03
1.94601e-01,1.22053e-03
2.00502e-01,1.12903e-03
2.06583e-01,1.04403e-03
2.12847e-01,9.65086e-04
2.19302e-01,8.91782e-04
2.25952e-01,8.23734e-04
2.32804e-01,7.60581e-04
2.39864e-01,7.01989e-04
2.47138e-01,6.47643e-04
2.54632e-01,5.97251e-04
2.62354e-01,5.50540e-04
2.70310e-01,5.07254e-04
2.78507e-01,4.67155e-04
2.86952e-01,4.30022e-04
2.95654e-01,3.95647e-04
3.04620e-01,3.63837e-04
3.13857e-01,3.34411e-04
3.23375e-01,3.07201e-04
3.33181e-01,2.82049e-04
3.43285e-01,2.58810e-04
3.53695e-01,2.37347e-04
3.64421e-01,2.17532e-04
3.75472e-01,1.99247e-04
3.86858e-01,1.82382e-04
3.98590e-01,1.66832e-04
4.10677e-01,1.52503e-04
4.23130e-01,1.39304e-04
4.35962e-01,1.27153e-04
4.49182e-01,1.15971e-04
4.62804e-01,1.05687e-04
4.76838e-01,9.62336e-05
4.91298e-01,8.75478e-05
5.06197e-01,7.95719e-05
5.21547e-01,7.22516e-05
5.37363e-01,6.55368e-05
5.53659e-01,5.93809e-05
5.70448e-01,5.37404e-05
5.87747e-01,4.85752e-05
6.05570e-01,4.38479e-05
6.23934e-01,3.95239e-05
6.42855e-01,3.55711e-05
6.62349e-01,3.19597e-05
6.82435e-01,2.86623e-05
7.03130e-01,2.56532e-05
7.24452e-01,2.29090e-05
7.46421e-01,2.04078e-05
7.69056e-01,1.81294e-05
7.92378e-01,1.60552e-05
8.16407e-01,1.41681e-05
8.41164e-01,1.24522e-05
8.66672e-01,1.08929e-05
8.92954e-01,9.47664e-06
9.20033e-01,8.19117e-06
9.47933e-01,7.02505e-06
9.76679e-01,5.96781e-06
1.00630e+00,5.00982e-06
1.03681e+00,4.14226e-06
1.06825e+00,3.35703e-06
1.10065e+00,2.64670e-06
1.13403e+00,2.00449e-06
1.16841e+00,1.42415e-06
1.20385e+00,9.00019e-07
1.24035e+00,4.26883e-07
1.27797e+00,0.00000e+00
