m1=2365.980, m2=28.124, gsp=2.435, rhosp=9310.672
fGW[Hz],dPh[rad]
5.23051e-03,3.85475e+04
5.38733e-03,3.62861e+04
5.54886e-03,3.41573e+04
5.71523e-03,3.21532e+04
5.88659e-03,3.02666e+04
6.06309e-03,2.84906e+04
6.24488e-03,2.68187e+04
6.43211e-03,2.52447e+04
6.62497e-03,2.37631e+04
6.82360e-03,2.23682e+04
7.02820e-03,2.10552e+04
7.23892e-03,1.98191e+04
7.45596e-03,1.86554e+04
7.67952e-03,1.75600e+04
7.90977e-03,1.65288e+04
8.14693e-03,1.55581e+04
8.39120e-03,1.46442e+04
8.64279e-03,1.37840e+04
8.90192e-03,1.29742e+04
9.16883e-03,1.22118e+04
9.44374e-03,1.14942e+04
9.72689e-03,1.08186e+04
1.00185e-02,1.01827e+04
1.03189e-02,9.58408e+03
1.06283e-02,9.02055e+03
1.09470e-02,8.49007e+03
1.12752e-02,7.99071e+03
1.16133e-02,7.52064e+03
1.19615e-02,7.07814e+03
1.23201e-02,6.66160e+03
1.26895e-02,6.26950e+03
1.30700e-02,5.90041e+03
1.34618e-02,5.55297e+03
1.38655e-02,5.22592e+03
1.42812e-02,4.91807e+03
1.47094e-02,4.62828e+03
1.51504e-02,4.35550e+03
1.56047e-02,4.09874e+03
1.60725e-02,3.85705e+03
1.65544e-02,3.62955e+03
1.70508e-02,3.41540e+03
1.75620e-02,3.21383e+03
1.80886e-02,3.02410e+03
1.86309e-02,2.84552e+03
1.91895e-02,2.67742e+03
1.97649e-02,2.51920e+03
2.03575e-02,2.37028e+03
2.09679e-02,2.23011e+03
2.15965e-02,2.09818e+03
2.22441e-02,1.97400e+03
2.29110e-02,1.85713e+03
2.35979e-02,1.74712e+03
2.43055e-02,1.64359e+03
2.50342e-02,1.54614e+03
2.57848e-02,1.45443e+03
2.65579e-02,1.36812e+03
2.73542e-02,1.28689e+03
2.81744e-02,1.21043e+03
2.90191e-02,1.13848e+03
2.98892e-02,1.07077e+03
3.07854e-02,1.00705e+03
3.17084e-02,9.47080e+02
3.26591e-02,8.90646e+02
3.36383e-02,8.37539e+02
3.46469e-02,7.87564e+02
3.56857e-02,7.40537e+02
3.67557e-02,6.96284e+02
3.78577e-02,6.54644e+02
3.89928e-02,6.15463e+02
4.01619e-02,5.78596e+02
4.13661e-02,5.43908e+02
4.26064e-02,5.11270e+02
4.38838e-02,4.80562e+02
4.51996e-02,4.51671e+02
4.65548e-02,4.24489e+02
4.79506e-02,3.98917e+02
4.93883e-02,3.74861e+02
5.08691e-02,3.52230e+02
5.23943e-02,3.30941e+02
5.39653e-02,3.10915e+02
5.55833e-02,2.92078e+02
5.72499e-02,2.74360e+02
5.89664e-02,2.57695e+02
6.07344e-02,2.42021e+02
6.25554e-02,2.27280e+02
6.44309e-02,2.13416e+02
6.63628e-02,2.00380e+02
6.83525e-02,1.88120e+02
7.04019e-02,1.76592e+02
7.25128e-02,1.65753e+02
7.46869e-02,1.55562e+02
7.69262e-02,1.45981e+02
7.92327e-02,1.36974e+02
8.16083e-02,1.28507e+02
8.40552e-02,1.20548e+02
8.65754e-02,1.13067e+02
8.91712e-02,1.06036e+02
9.18448e-02,9.94279e+01
9.45986e-02,9.32185e+01
9.74349e-02,8.73839e+01
1.00356e-01,8.19018e+01
1.03365e-01,7.67515e+01
1.06464e-01,7.19132e+01
1.09657e-01,6.73685e+01
1.12944e-01,6.31000e+01
1.16331e-01,5.90913e+01
1.19819e-01,5.53269e+01
1.23411e-01,5.17925e+01
1.27111e-01,4.84742e+01
1.30923e-01,4.53593e+01
1.34848e-01,4.24357e+01
1.38891e-01,3.96919e+01
1.43056e-01,3.71172e+01
1.47345e-01,3.47016e+01
1.51763e-01,3.24355e+01
1.56313e-01,3.03100e+01
1.61000e-01,2.83167e+01
1.65827e-01,2.64477e+01
1.70799e-01,2.46955e+01
1.75920e-01,2.30530e+01
1.81194e-01,2.15138e+01
1.86627e-01,2.00716e+01
1.92223e-01,1.87205e+01
1.97986e-01,1.74551e+01
2.03922e-01,1.62701e+01
2.10037e-01,1.51607e+01
2.16334e-01,1.41223e+01
2.22820e-01,1.31505e+01
2.29501e-01,1.22414e+01
2.36382e-01,1.13911e+01
2.43470e-01,1.05960e+01
2.50770e-01,9.85275e+00
2.58288e-01,9.15811e+00
2.66033e-01,8.50911e+00
2.74009e-01,7.90293e+00
2.82225e-01,7.33692e+00
2.90687e-01,6.80860e+00
2.99402e-01,6.31560e+00
3.08379e-01,5.85573e+00
3.17625e-01,5.42690e+00
3.27149e-01,5.02718e+00
3.36957e-01,4.65471e+00
3.47060e-01,4.30777e+00
3.57466e-01,3.98474e+00
3.68184e-01,3.68410e+00
3.79223e-01,3.40440e+00
3.90593e-01,3.14430e+00
4.02305e-01,2.90252e+00
4.14367e-01,2.67789e+00
4.26791e-01,2.46927e+00
4.39587e-01,2.27562e+00
4.52767e-01,2.09594e+00
4.66343e-01,1.92932e+00
4.80325e-01,1.77487e+00
4.94726e-01,1.63178e+00
5.09560e-01,1.49928e+00
5.24838e-01,1.37666e+00
5.40574e-01,1.26323e+00
5.56782e-01,1.15837e+00
5.73476e-01,1.06148e+00
5.90670e-01,9.71998e-01
6.08380e-01,8.89411e-01
6.26621e-01,8.13229e-01
6.45409e-01,7.42995e-01
6.64760e-01,6.78282e-01
6.84692e-01,6.18690e-01
7.05221e-01,5.63846e-01
7.26365e-01,5.13401e-01
7.48144e-01,4.67030e-01
7.70576e-01,4.24429e-01
7.93680e-01,3.85314e-01
8.17476e-01,3.49422e-01
8.41987e-01,3.16506e-01
8.67232e-01,2.86337e-01
8.93234e-01,2.58702e-01
9.20016e-01,2.33403e-01
9.47600e-01,2.10256e-01
9.76012e-01,1.89090e-01
1.00528e+00,1.69747e-01
1.03542e+00,1.52079e-01
1.06646e+00,1.35951e-01
1.09844e+00,1.21237e-01
1.13137e+00,1.07820e-01
1.16529e+00,9.55920e-02
1.20023e+00,8.44539e-02
1.23622e+00,7.43138e-02
1.27328e+00,6.50870e-02
1.31146e+00,5.66956e-02
1.35078e+00,4.90676e-02
1.39128e+00,4.21371e-02
1.43300e+00,3.58431e-02
1.47596e+00,3.01300e-02
1.52022e+00,2.49465e-02
1.56580e+00,2.02455e-02
1.61274e+00,1.59841e-02
1.66110e+00,1.21227e-02
1.71090e+00,8.62517e-03
1.76220e+00,5.45860e-03
1.81504e+00,2.59273e-03
1.86946e+00,0.00000e+00
