m1=10647.113, m2=87.899, gsp=2.227, rhosp=611.714
fGW[Hz],dPh[rad]
2.34129e-03,5.51380e+02
2.40299e-03,5.20832e+02
2.46632e-03,4.91971e+02
2.53133e-03,4.64705e+02
2.59804e-03,4.38947e+02
2.66651e-03,4.14612e+02
2.73679e-03,3.91622e+02
2.80892e-03,3.69903e+02
2.88295e-03,3.49385e+02
2.95893e-03,3.30002e+02
3.03691e-03,3.11690e+02
3.11695e-03,2.94390e+02
3.19910e-03,2.78048e+02
3.28342e-03,2.62609e+02
3.36995e-03,2.48024e+02
3.45877e-03,2.34246e+02
3.54992e-03,2.21230e+02
3.64348e-03,2.08935e+02
3.73951e-03,1.97319e+02
3.83807e-03,1.86347e+02
3.93922e-03,1.75982e+02
4.04304e-03,1.66190e+02
4.14960e-03,1.56941e+02
4.25896e-03,1.48203e+02
4.37121e-03,1.39950e+02
4.48641e-03,1.32153e+02
4.60465e-03,1.24789e+02
4.72601e-03,1.17832e+02
4.85057e-03,1.11261e+02
4.97841e-03,1.05054e+02
5.10961e-03,9.91905e+01
5.24428e-03,9.36524e+01
5.38250e-03,8.84213e+01
5.52435e-03,8.34804e+01
5.66995e-03,7.88134e+01
5.81939e-03,7.44054e+01
5.97276e-03,7.02419e+01
6.13017e-03,6.63095e+01
6.29174e-03,6.25953e+01
6.45756e-03,5.90874e+01
6.62775e-03,5.57743e+01
6.80243e-03,5.26452e+01
6.98171e-03,4.96900e+01
7.16571e-03,4.68990e+01
7.35457e-03,4.42631e+01
7.54840e-03,4.17739e+01
7.74734e-03,3.94231e+01
7.95153e-03,3.72031e+01
8.16109e-03,3.51066e+01
8.37618e-03,3.31269e+01
8.59694e-03,3.12575e+01
8.82352e-03,2.94922e+01
9.05606e-03,2.78253e+01
9.29474e-03,2.62513e+01
9.53971e-03,2.47651e+01
9.79113e-03,2.33619e+01
1.00492e-02,2.20370e+01
1.03140e-02,2.07861e+01
1.05859e-02,1.96051e+01
1.08649e-02,1.84901e+01
1.11512e-02,1.74375e+01
1.14451e-02,1.64437e+01
1.17467e-02,1.55056e+01
1.20563e-02,1.46201e+01
1.23741e-02,1.37842e+01
1.27002e-02,1.29952e+01
1.30349e-02,1.22504e+01
1.33785e-02,1.15475e+01
1.37311e-02,1.08841e+01
1.40929e-02,1.02579e+01
1.44644e-02,9.66704e+00
1.48456e-02,9.10942e+00
1.52368e-02,8.58321e+00
1.56384e-02,8.08668e+00
1.60506e-02,7.61818e+00
1.64736e-02,7.17613e+00
1.69078e-02,6.75908e+00
1.73534e-02,6.36563e+00
1.78107e-02,5.99446e+00
1.82801e-02,5.64434e+00
1.87619e-02,5.31408e+00
1.92564e-02,5.00259e+00
1.97639e-02,4.70881e+00
2.02848e-02,4.43175e+00
2.08194e-02,4.17049e+00
2.13681e-02,3.92413e+00
2.19313e-02,3.69185e+00
2.25093e-02,3.47286e+00
2.31025e-02,3.26641e+00
2.37114e-02,3.07180e+00
2.43363e-02,2.88837e+00
2.49777e-02,2.71549e+00
2.56360e-02,2.55257e+00
2.63117e-02,2.39905e+00
2.70051e-02,2.25440e+00
2.77169e-02,2.11813e+00
2.84474e-02,1.98975e+00
2.91971e-02,1.86883e+00
2.99666e-02,1.75495e+00
3.07564e-02,1.64770e+00
3.15670e-02,1.54672e+00
3.23990e-02,1.45165e+00
3.32528e-02,1.36215e+00
3.41292e-02,1.27791e+00
3.50287e-02,1.19864e+00
3.59519e-02,1.12404e+00
3.68995e-02,1.05386e+00
3.78720e-02,9.87841e-01
3.88701e-02,9.25746e-01
3.98945e-02,8.67352e-01
4.09460e-02,8.12448e-01
4.20251e-02,7.60833e-01
4.31327e-02,7.12320e-01
4.42695e-02,6.66730e-01
4.54362e-02,6.23895e-01
4.66337e-02,5.83656e-01
4.78628e-02,5.45864e-01
4.91242e-02,5.10377e-01
5.04189e-02,4.77061e-01
5.17477e-02,4.45790e-01
5.31115e-02,4.16446e-01
5.45113e-02,3.88916e-01
5.59480e-02,3.63094e-01
5.74225e-02,3.38880e-01
5.89359e-02,3.16179e-01
6.04892e-02,2.94903e-01
6.20834e-02,2.74967e-01
6.37197e-02,2.56291e-01
6.53990e-02,2.38802e-01
6.71226e-02,2.22428e-01
6.88917e-02,2.07102e-01
7.07074e-02,1.92763e-01
7.25709e-02,1.79350e-01
7.44835e-02,1.66807e-01
7.64466e-02,1.55082e-01
7.84613e-02,1.44126e-01
8.05292e-02,1.33890e-01
8.26516e-02,1.24331e-01
8.48299e-02,1.15408e-01
8.70657e-02,1.07081e-01
8.93603e-02,9.93129e-02
9.17154e-02,9.20690e-02
9.41326e-02,8.53164e-02
9.66135e-02,7.90243e-02
9.91598e-02,7.31634e-02
1.01773e-01,6.77065e-02
1.04456e-01,6.26277e-02
1.07208e-01,5.79026e-02
1.10034e-01,5.35086e-02
1.12934e-01,4.94241e-02
1.15910e-01,4.56288e-02
1.18965e-01,4.21039e-02
1.22101e-01,3.88314e-02
1.25319e-01,3.57946e-02
1.28622e-01,3.29778e-02
1.32011e-01,3.03661e-02
1.35491e-01,2.79458e-02
1.39062e-01,2.57037e-02
1.42727e-01,2.36278e-02
1.46488e-01,2.17065e-02
1.50349e-01,1.99291e-02
1.54311e-01,1.82857e-02
1.58378e-01,1.67667e-02
1.62553e-01,1.53635e-02
1.66837e-01,1.40677e-02
1.71234e-01,1.28718e-02
1.75747e-01,1.17684e-02
1.80379e-01,1.07509e-02
1.85133e-01,9.81306e-03
1.90012e-01,8.94900e-03
1.95020e-01,8.15326e-03
2.00159e-01,7.42078e-03
2.05435e-01,6.74681e-03
2.10849e-01,6.12696e-03
2.16406e-01,5.55712e-03
2.22110e-01,5.03348e-03
2.27963e-01,4.55250e-03
2.33971e-01,4.11088e-03
2.40138e-01,3.70558e-03
2.46467e-01,3.33375e-03
2.52962e-01,2.99276e-03
2.59629e-01,2.68019e-03
2.66472e-01,2.39377e-03
2.73495e-01,2.13142e-03
2.80703e-01,1.89119e-03
2.88101e-01,1.67132e-03
2.95694e-01,1.47014e-03
3.03487e-01,1.28613e-03
3.11486e-01,1.11789e-03
3.19695e-01,9.64112e-04
3.28121e-01,8.23601e-04
3.36769e-01,6.95254e-04
3.45644e-01,5.78056e-04
3.54754e-01,4.71071e-04
3.64104e-01,3.73438e-04
3.73700e-01,2.84366e-04
3.83549e-01,2.03128e-04
3.93657e-01,1.29055e-04
4.04032e-01,6.15334e-05
4.14681e-01,0.00000e+00
