m1=149307.203, m2=10.509, gsp=2.467, rhosp=549.133
fGW[Hz],dPh[rad]
2.68048e-03,2.97972e+05
2.71296e-03,2.85906e+05
2.74583e-03,2.74315e+05
2.77910e-03,2.63181e+05
2.81278e-03,2.52486e+05
2.84686e-03,2.42214e+05
2.88135e-03,2.32349e+05
2.91626e-03,2.22875e+05
2.95160e-03,2.13777e+05
2.98736e-03,2.05042e+05
3.02356e-03,1.96654e+05
3.06020e-03,1.88601e+05
3.09728e-03,1.80869e+05
3.13480e-03,1.73447e+05
3.17279e-03,1.66323e+05
3.21123e-03,1.59484e+05
3.25014e-03,1.52920e+05
3.28952e-03,1.46620e+05
3.32938e-03,1.40574e+05
3.36972e-03,1.34772e+05
3.41055e-03,1.29204e+05
3.45187e-03,1.23861e+05
3.49370e-03,1.18734e+05
3.53603e-03,1.13816e+05
3.57888e-03,1.09097e+05
3.62224e-03,1.04569e+05
3.66613e-03,1.00226e+05
3.71055e-03,9.60601e+04
3.75551e-03,9.20638e+04
3.80101e-03,8.82307e+04
3.84707e-03,8.45542e+04
3.89368e-03,8.10281e+04
3.94086e-03,7.76465e+04
3.98861e-03,7.44034e+04
4.03694e-03,7.12935e+04
4.08585e-03,6.83114e+04
4.13536e-03,6.54519e+04
4.18547e-03,6.27101e+04
4.23618e-03,6.00813e+04
4.28751e-03,5.75609e+04
4.33946e-03,5.51445e+04
4.39204e-03,5.28280e+04
4.44526e-03,5.06073e+04
4.49912e-03,4.84786e+04
4.55363e-03,4.64380e+04
4.60881e-03,4.44821e+04
4.66465e-03,4.26073e+04
4.72117e-03,4.08104e+04
4.77837e-03,3.90883e+04
4.83627e-03,3.74377e+04
4.89487e-03,3.58559e+04
4.95418e-03,3.43400e+04
5.01421e-03,3.28874e+04
5.07496e-03,3.14953e+04
5.13645e-03,3.01614e+04
5.19869e-03,2.88833e+04
5.26168e-03,2.76586e+04
5.32544e-03,2.64852e+04
5.38996e-03,2.53609e+04
5.45527e-03,2.42838e+04
5.52137e-03,2.32518e+04
5.58827e-03,2.22631e+04
5.65598e-03,2.13160e+04
5.72451e-03,2.04087e+04
5.79387e-03,1.95395e+04
5.86408e-03,1.87069e+04
5.93513e-03,1.79093e+04
6.00704e-03,1.71454e+04
6.07983e-03,1.64136e+04
6.15350e-03,1.57127e+04
6.22806e-03,1.50414e+04
6.30352e-03,1.43984e+04
6.37990e-03,1.37826e+04
6.45720e-03,1.31928e+04
6.53544e-03,1.26280e+04
6.61463e-03,1.20870e+04
6.69477e-03,1.15690e+04
6.77589e-03,1.10729e+04
6.85799e-03,1.05978e+04
6.94109e-03,1.01428e+04
7.02519e-03,9.70718e+03
7.11031e-03,9.29002e+03
7.19646e-03,8.89056e+03
7.28366e-03,8.50808e+03
7.37192e-03,8.14184e+03
7.46124e-03,7.79117e+03
7.55164e-03,7.45541e+03
7.64314e-03,7.13394e+03
7.73575e-03,6.82615e+03
7.82948e-03,6.53146e+03
7.92435e-03,6.24933e+03
8.02037e-03,5.97922e+03
8.11755e-03,5.72062e+03
8.21591e-03,5.47304e+03
8.31545e-03,5.23603e+03
8.41621e-03,5.00913e+03
8.51819e-03,4.79192e+03
8.62140e-03,4.58398e+03
8.72586e-03,4.38493e+03
8.83159e-03,4.19438e+03
8.93860e-03,4.01197e+03
9.04690e-03,3.83737e+03
9.15652e-03,3.67023e+03
9.26747e-03,3.51024e+03
9.37976e-03,3.35710e+03
9.49341e-03,3.21051e+03
9.60844e-03,3.07020e+03
9.72486e-03,2.93591e+03
9.84269e-03,2.80736e+03
9.96195e-03,2.68433e+03
1.00827e-02,2.56656e+03
1.02048e-02,2.45385e+03
1.03285e-02,2.34597e+03
1.04536e-02,2.24272e+03
1.05803e-02,2.14390e+03
1.07085e-02,2.04933e+03
1.08382e-02,1.95881e+03
1.09696e-02,1.87218e+03
1.11025e-02,1.78927e+03
1.12370e-02,1.70992e+03
1.13731e-02,1.63398e+03
1.15110e-02,1.56131e+03
1.16504e-02,1.49176e+03
1.17916e-02,1.42520e+03
1.19345e-02,1.36150e+03
1.20791e-02,1.30055e+03
1.22254e-02,1.24221e+03
1.23736e-02,1.18639e+03
1.25235e-02,1.13296e+03
1.26752e-02,1.08184e+03
1.28288e-02,1.03292e+03
1.29842e-02,9.86108e+02
1.31416e-02,9.41310e+02
1.33008e-02,8.98443e+02
1.34620e-02,8.57422e+02
1.36251e-02,8.18168e+02
1.37902e-02,7.80607e+02
1.39573e-02,7.44665e+02
1.41264e-02,7.10272e+02
1.42975e-02,6.77362e+02
1.44708e-02,6.45872e+02
1.46461e-02,6.15740e+02
1.48236e-02,5.86908e+02
1.50032e-02,5.59319e+02
1.51850e-02,5.32922e+02
1.53690e-02,5.07663e+02
1.55552e-02,4.83495e+02
1.57437e-02,4.60369e+02
1.59344e-02,4.38243e+02
1.61275e-02,4.17072e+02
1.63229e-02,3.96815e+02
1.65207e-02,3.77432e+02
1.67209e-02,3.58887e+02
1.69235e-02,3.41144e+02
1.71285e-02,3.24166e+02
1.73361e-02,3.07923e+02
1.75461e-02,2.92381e+02
1.77587e-02,2.77511e+02
1.79739e-02,2.63284e+02
1.81917e-02,2.49672e+02
1.84121e-02,2.36648e+02
1.86352e-02,2.24187e+02
1.88610e-02,2.12266e+02
1.90895e-02,2.00859e+02
1.93208e-02,1.89946e+02
1.95549e-02,1.79505e+02
1.97919e-02,1.69516e+02
2.00317e-02,1.59959e+02
2.02744e-02,1.50815e+02
2.05200e-02,1.42067e+02
2.07687e-02,1.33697e+02
2.10203e-02,1.25690e+02
2.12750e-02,1.18029e+02
2.15328e-02,1.10700e+02
2.17937e-02,1.03688e+02
2.20578e-02,9.69795e+01
2.23250e-02,9.05615e+01
2.25955e-02,8.44213e+01
2.28693e-02,7.85470e+01
2.31464e-02,7.29270e+01
2.34269e-02,6.75504e+01
2.37107e-02,6.24066e+01
2.39980e-02,5.74856e+01
2.42888e-02,5.27778e+01
2.45831e-02,4.82739e+01
2.48810e-02,4.39650e+01
2.51824e-02,3.98428e+01
2.54876e-02,3.58992e+01
2.57964e-02,3.21265e+01
2.61090e-02,2.85172e+01
2.64253e-02,2.50643e+01
2.67455e-02,2.17611e+01
2.70696e-02,1.86009e+01
2.73976e-02,1.55778e+01
2.77295e-02,1.26856e+01
2.80655e-02,9.91880e+00
2.84056e-02,7.27192e+00
2.87497e-02,4.73977e+00
2.90981e-02,2.31738e+00
2.94507e-02,0.00000e+00
