m1=40843.993, m2=35.215, gsp=2.055, rhosp=1136.846
fGW[Hz],dPh[rad]
2.35533e-03,2.28591e+02
2.40102e-03,2.17963e+02
2.44758e-03,2.07812e+02
2.49506e-03,1.98118e+02
2.54345e-03,1.88861e+02
2.59278e-03,1.80021e+02
2.64307e-03,1.71581e+02
2.69433e-03,1.63521e+02
2.74658e-03,1.55827e+02
2.79985e-03,1.48481e+02
2.85416e-03,1.41468e+02
2.90952e-03,1.34774e+02
2.96595e-03,1.28384e+02
3.02347e-03,1.22286e+02
3.08211e-03,1.16465e+02
3.14189e-03,1.10910e+02
3.20283e-03,1.05609e+02
3.26495e-03,1.00552e+02
3.32827e-03,9.57255e+01
3.39282e-03,9.11212e+01
3.45863e-03,8.67288e+01
3.52571e-03,8.25388e+01
3.59409e-03,7.85422e+01
3.66380e-03,7.47303e+01
3.73485e-03,7.10950e+01
3.80729e-03,6.76284e+01
3.88114e-03,6.43229e+01
3.95641e-03,6.11713e+01
4.03315e-03,5.81667e+01
4.11137e-03,5.53026e+01
4.19111e-03,5.25725e+01
4.27240e-03,4.99706e+01
4.35526e-03,4.74910e+01
4.43973e-03,4.51282e+01
4.52584e-03,4.28770e+01
4.61362e-03,4.07322e+01
4.70310e-03,3.86892e+01
4.79432e-03,3.67432e+01
4.88730e-03,3.48900e+01
4.98209e-03,3.31252e+01
5.07872e-03,3.14448e+01
5.17723e-03,2.98450e+01
5.27764e-03,2.83222e+01
5.38000e-03,2.68728e+01
5.48434e-03,2.54934e+01
5.59071e-03,2.41808e+01
5.69915e-03,2.29321e+01
5.80968e-03,2.17441e+01
5.92236e-03,2.06141e+01
6.03723e-03,1.95395e+01
6.15432e-03,1.85177e+01
6.27368e-03,1.75462e+01
6.39536e-03,1.66226e+01
6.51940e-03,1.57449e+01
6.64584e-03,1.49107e+01
6.77474e-03,1.41181e+01
6.90614e-03,1.33651e+01
7.04008e-03,1.26499e+01
7.17663e-03,1.19707e+01
7.31582e-03,1.13257e+01
7.45771e-03,1.07134e+01
7.60235e-03,1.01322e+01
7.74980e-03,9.58064e+00
7.90011e-03,9.05726e+00
8.05333e-03,8.56075e+00
8.20953e-03,8.08979e+00
8.36875e-03,7.64317e+00
8.53107e-03,7.21971e+00
8.69653e-03,6.81828e+00
8.86520e-03,6.43781e+00
9.03714e-03,6.07729e+00
9.21241e-03,5.73573e+00
9.39109e-03,5.41221e+00
9.57323e-03,5.10583e+00
9.75891e-03,4.81574e+00
9.94818e-03,4.54115e+00
1.01411e-02,4.28127e+00
1.03378e-02,4.03538e+00
1.05383e-02,3.80277e+00
1.07427e-02,3.58277e+00
1.09511e-02,3.37475e+00
1.11635e-02,3.17810e+00
1.13800e-02,2.99223e+00
1.16007e-02,2.81660e+00
1.18257e-02,2.65069e+00
1.20551e-02,2.49399e+00
1.22889e-02,2.34602e+00
1.25272e-02,2.20633e+00
1.27702e-02,2.07449e+00
1.30179e-02,1.95009e+00
1.32703e-02,1.83274e+00
1.35277e-02,1.72206e+00
1.37901e-02,1.61770e+00
1.40575e-02,1.51932e+00
1.43302e-02,1.42661e+00
1.46081e-02,1.33925e+00
1.48915e-02,1.25696e+00
1.51803e-02,1.17947e+00
1.54747e-02,1.10650e+00
1.57748e-02,1.03782e+00
1.60808e-02,9.73193e-01
1.63927e-02,9.12386e-01
1.67106e-02,8.55193e-01
1.70347e-02,8.01410e-01
1.73651e-02,7.50848e-01
1.77019e-02,7.03324e-01
1.80452e-02,6.58667e-01
1.83952e-02,6.16715e-01
1.87520e-02,5.77313e-01
1.91157e-02,5.40315e-01
1.94865e-02,5.05582e-01
1.98644e-02,4.72984e-01
2.02497e-02,4.42397e-01
2.06424e-02,4.13704e-01
2.10428e-02,3.86793e-01
2.14509e-02,3.61560e-01
2.18669e-02,3.37905e-01
2.22911e-02,3.15736e-01
2.27234e-02,2.94963e-01
2.31641e-02,2.75503e-01
2.36134e-02,2.57276e-01
2.40714e-02,2.40210e-01
2.45382e-02,2.24232e-01
2.50142e-02,2.09277e-01
2.54993e-02,1.95283e-01
2.59939e-02,1.82191e-01
2.64980e-02,1.69944e-01
2.70120e-02,1.58491e-01
2.75359e-02,1.47782e-01
2.80699e-02,1.37772e-01
2.86143e-02,1.28416e-01
2.91693e-02,1.19673e-01
2.97351e-02,1.11505e-01
3.03118e-02,1.03876e-01
3.08997e-02,9.67505e-02
3.14990e-02,9.00973e-02
3.21099e-02,8.38860e-02
3.27327e-02,7.80884e-02
3.33675e-02,7.26778e-02
3.40147e-02,6.76293e-02
3.46744e-02,6.29194e-02
3.53469e-02,5.85262e-02
3.60325e-02,5.44290e-02
3.67313e-02,5.06084e-02
3.74438e-02,4.70465e-02
3.81700e-02,4.37261e-02
3.89103e-02,4.06314e-02
3.96650e-02,3.77474e-02
4.04343e-02,3.50603e-02
4.12185e-02,3.25568e-02
4.20179e-02,3.02248e-02
4.28329e-02,2.80529e-02
4.36636e-02,2.60303e-02
4.45105e-02,2.41469e-02
4.53738e-02,2.23935e-02
4.62538e-02,2.07613e-02
4.71509e-02,1.92420e-02
4.80654e-02,1.78281e-02
4.89976e-02,1.65124e-02
4.99479e-02,1.52881e-02
5.09167e-02,1.41491e-02
5.19042e-02,1.30896e-02
5.29109e-02,1.21041e-02
5.39371e-02,1.11874e-02
5.49832e-02,1.03350e-02
5.60497e-02,9.54241e-03
5.71367e-02,8.80544e-03
5.82449e-02,8.12028e-03
5.93746e-02,7.48335e-03
6.05262e-02,6.89131e-03
6.17001e-02,6.34103e-03
6.28968e-02,5.82963e-03
6.41166e-02,5.35438e-03
6.53602e-02,4.91277e-03
6.66279e-02,4.50246e-03
6.79201e-02,4.12125e-03
6.92374e-02,3.76710e-03
7.05803e-02,3.43812e-03
7.19492e-02,3.13254e-03
7.33447e-02,2.84871e-03
7.47672e-02,2.58511e-03
7.62173e-02,2.34030e-03
7.76956e-02,2.11297e-03
7.92025e-02,1.90188e-03
8.07386e-02,1.70588e-03
8.23046e-02,1.52390e-03
8.39009e-02,1.35494e-03
8.55281e-02,1.19809e-03
8.71870e-02,1.05249e-03
8.88780e-02,9.17332e-04
9.06018e-02,7.91877e-04
9.23590e-02,6.75433e-04
9.41503e-02,5.67359e-04
9.59764e-02,4.67058e-04
9.78378e-02,3.73974e-04
9.97354e-02,2.87593e-04
1.01670e-01,2.07434e-04
1.03642e-01,1.33053e-04
1.05652e-01,6.40369e-05
1.07701e-01,0.00000e+00
