m1=22194.689, m2=3.411, gsp=2.125, rhosp=22.216
fGW[Hz],dPh[rad]
6.58304e-03,1.08718e+03
6.69663e-03,1.03466e+03
6.81218e-03,9.84517e+02
6.92972e-03,9.36653e+02
7.04929e-03,8.90969e+02
7.17093e-03,8.47372e+02
7.29466e-03,8.05775e+02
7.42053e-03,7.66090e+02
7.54857e-03,7.28238e+02
7.67881e-03,6.92138e+02
7.81131e-03,6.57715e+02
7.94609e-03,6.24897e+02
8.08320e-03,5.93615e+02
8.22268e-03,5.63801e+02
8.36456e-03,5.35391e+02
8.50888e-03,5.08324e+02
8.65570e-03,4.82542e+02
8.80506e-03,4.57986e+02
8.95698e-03,4.34604e+02
9.11154e-03,4.12343e+02
9.26875e-03,3.91153e+02
9.42868e-03,3.70986e+02
9.59137e-03,3.51797e+02
9.75687e-03,3.33541e+02
9.92522e-03,3.16176e+02
1.00965e-02,2.99662e+02
1.02707e-02,2.83960e+02
1.04479e-02,2.69032e+02
1.06282e-02,2.54845e+02
1.08116e-02,2.41362e+02
1.09981e-02,2.28552e+02
1.11879e-02,2.16384e+02
1.13809e-02,2.04827e+02
1.15773e-02,1.93854e+02
1.17771e-02,1.83436e+02
1.19803e-02,1.73547e+02
1.21870e-02,1.64162e+02
1.23973e-02,1.55258e+02
1.26112e-02,1.46811e+02
1.28288e-02,1.38800e+02
1.30502e-02,1.31203e+02
1.32753e-02,1.24001e+02
1.35044e-02,1.17174e+02
1.37374e-02,1.10704e+02
1.39745e-02,1.04574e+02
1.42156e-02,9.87660e+01
1.44609e-02,9.32654e+01
1.47104e-02,8.80565e+01
1.49642e-02,8.31248e+01
1.52224e-02,7.84564e+01
1.54851e-02,7.40382e+01
1.57523e-02,6.98575e+01
1.60241e-02,6.59024e+01
1.63006e-02,6.21613e+01
1.65818e-02,5.86233e+01
1.68679e-02,5.52781e+01
1.71590e-02,5.21158e+01
1.74551e-02,4.91268e+01
1.77563e-02,4.63023e+01
1.80626e-02,4.36336e+01
1.83743e-02,4.11127e+01
1.86914e-02,3.87317e+01
1.90139e-02,3.64833e+01
1.93419e-02,3.43605e+01
1.96757e-02,3.23567e+01
2.00152e-02,3.04654e+01
2.03605e-02,2.86807e+01
2.07119e-02,2.69969e+01
2.10692e-02,2.54085e+01
2.14328e-02,2.39104e+01
2.18026e-02,2.24977e+01
2.21788e-02,2.11657e+01
2.25615e-02,1.99100e+01
2.29508e-02,1.87265e+01
2.33468e-02,1.76111e+01
2.37496e-02,1.65601e+01
2.41594e-02,1.55700e+01
2.45763e-02,1.46373e+01
2.50004e-02,1.37589e+01
2.54317e-02,1.29318e+01
2.58706e-02,1.21529e+01
2.63169e-02,1.14198e+01
2.67710e-02,1.07296e+01
2.72330e-02,1.00801e+01
2.77029e-02,9.46888e+00
2.81809e-02,8.89380e+00
2.86671e-02,8.35279e+00
2.91618e-02,7.84389e+00
2.96650e-02,7.36526e+00
3.01768e-02,6.91516e+00
3.06975e-02,6.49194e+00
3.12272e-02,6.09405e+00
3.17660e-02,5.72000e+00
3.23141e-02,5.36842e+00
3.28717e-02,5.03800e+00
3.34389e-02,4.72749e+00
3.40159e-02,4.43574e+00
3.46028e-02,4.16163e+00
3.51999e-02,3.90412e+00
3.58072e-02,3.66225e+00
3.64251e-02,3.43508e+00
3.70536e-02,3.22173e+00
3.76929e-02,3.02140e+00
3.83433e-02,2.83330e+00
3.90049e-02,2.65671e+00
3.96780e-02,2.49093e+00
4.03626e-02,2.33532e+00
4.10590e-02,2.18926e+00
4.17675e-02,2.05219e+00
4.24882e-02,1.92356e+00
4.32213e-02,1.80286e+00
4.39671e-02,1.68961e+00
4.47257e-02,1.58337e+00
4.54975e-02,1.48369e+00
4.62825e-02,1.39020e+00
4.70811e-02,1.30250e+00
4.78935e-02,1.22026e+00
4.87199e-02,1.14312e+00
4.95605e-02,1.07079e+00
5.04157e-02,1.00296e+00
5.12856e-02,9.39362e-01
5.21705e-02,8.79736e-01
5.30707e-02,8.23835e-01
5.39864e-02,7.71432e-01
5.49180e-02,7.22309e-01
5.58656e-02,6.76264e-01
5.68295e-02,6.33108e-01
5.78101e-02,5.92661e-01
5.88076e-02,5.54755e-01
5.98223e-02,5.19232e-01
6.08545e-02,4.85945e-01
6.19045e-02,4.54754e-01
6.29727e-02,4.25530e-01
6.40593e-02,3.98148e-01
6.51646e-02,3.72495e-01
6.62890e-02,3.48462e-01
6.74328e-02,3.25948e-01
6.85963e-02,3.04858e-01
6.97800e-02,2.85103e-01
7.09840e-02,2.66599e-01
7.22088e-02,2.49268e-01
7.34548e-02,2.33036e-01
7.47222e-02,2.17833e-01
7.60115e-02,2.03596e-01
7.73231e-02,1.90263e-01
7.86573e-02,1.77777e-01
8.00145e-02,1.66085e-01
8.13951e-02,1.55137e-01
8.27996e-02,1.44886e-01
8.42283e-02,1.35288e-01
8.56816e-02,1.26301e-01
8.71600e-02,1.17887e-01
8.86640e-02,1.10009e-01
9.01938e-02,1.02635e-01
9.17501e-02,9.57304e-02
9.33332e-02,8.92671e-02
9.49437e-02,8.32167e-02
9.65819e-02,7.75529e-02
9.82484e-02,7.22512e-02
9.99437e-02,6.72885e-02
1.01668e-01,6.26433e-02
1.03422e-01,5.82954e-02
1.05207e-01,5.42259e-02
1.07022e-01,5.04170e-02
1.08869e-01,4.68520e-02
1.10747e-01,4.35156e-02
1.12658e-01,4.03930e-02
1.14602e-01,3.74706e-02
1.16580e-01,3.47357e-02
1.18591e-01,3.21763e-02
1.20638e-01,2.97811e-02
1.22719e-01,2.75397e-02
1.24837e-01,2.54421e-02
1.26991e-01,2.34794e-02
1.29182e-01,2.16427e-02
1.31411e-01,1.99240e-02
1.33678e-01,1.83158e-02
1.35985e-01,1.68110e-02
1.38331e-01,1.54029e-02
1.40718e-01,1.40855e-02
1.43146e-01,1.28527e-02
1.45616e-01,1.16993e-02
1.48129e-01,1.06201e-02
1.50685e-01,9.61043e-03
1.53285e-01,8.66572e-03
1.55930e-01,7.78185e-03
1.58620e-01,6.95490e-03
1.61357e-01,6.18122e-03
1.64141e-01,5.45739e-03
1.66973e-01,4.78019e-03
1.69855e-01,4.14665e-03
1.72785e-01,3.55393e-03
1.75767e-01,2.99943e-03
1.78800e-01,2.48069e-03
1.81885e-01,1.99539e-03
1.85023e-01,1.54140e-03
1.88216e-01,1.11668e-03
1.91463e-01,7.19371e-04
1.94767e-01,3.47694e-04
1.98128e-01,0.00000e+00
