m1=233928.642, m2=7.212, gsp=2.170, rhosp=226.450
fGW[Hz],dPh[rad]
2.75916e-03,8.88676e+02
2.78589e-03,8.56661e+02
2.81288e-03,8.25789e+02
2.84013e-03,7.96019e+02
2.86765e-03,7.67313e+02
2.89544e-03,7.39633e+02
2.92349e-03,7.12942e+02
2.95181e-03,6.87207e+02
2.98041e-03,6.62392e+02
3.00929e-03,6.38465e+02
3.03844e-03,6.15396e+02
3.06788e-03,5.93153e+02
3.09761e-03,5.71707e+02
3.12762e-03,5.51030e+02
3.15792e-03,5.31095e+02
3.18852e-03,5.11875e+02
3.21941e-03,4.93346e+02
3.25060e-03,4.75481e+02
3.28209e-03,4.58259e+02
3.31389e-03,4.41655e+02
3.34600e-03,4.25649e+02
3.37842e-03,4.10217e+02
3.41115e-03,3.95342e+02
3.44420e-03,3.81001e+02
3.47757e-03,3.67177e+02
3.51126e-03,3.53850e+02
3.54528e-03,3.41004e+02
3.57963e-03,3.28620e+02
3.61431e-03,3.16683e+02
3.64933e-03,3.05176e+02
3.68469e-03,2.94085e+02
3.72039e-03,2.83393e+02
3.75643e-03,2.73087e+02
3.79283e-03,2.63154e+02
3.82958e-03,2.53579e+02
3.86668e-03,2.44349e+02
3.90414e-03,2.35454e+02
3.94197e-03,2.26880e+02
3.98016e-03,2.18615e+02
4.01872e-03,2.10650e+02
4.05766e-03,2.02973e+02
4.09697e-03,1.95573e+02
4.13667e-03,1.88441e+02
4.17674e-03,1.81568e+02
4.21721e-03,1.74943e+02
4.25807e-03,1.68558e+02
4.29933e-03,1.62404e+02
4.34098e-03,1.56474e+02
4.38304e-03,1.50758e+02
4.42550e-03,1.45249e+02
4.46838e-03,1.39941e+02
4.51167e-03,1.34824e+02
4.55539e-03,1.29894e+02
4.59952e-03,1.25142e+02
4.64408e-03,1.20562e+02
4.68908e-03,1.16149e+02
4.73451e-03,1.11896e+02
4.78038e-03,1.07798e+02
4.82670e-03,1.03848e+02
4.87346e-03,1.00042e+02
4.92068e-03,9.63739e+01
4.96835e-03,9.28393e+01
5.01649e-03,8.94331e+01
5.06509e-03,8.61508e+01
5.11417e-03,8.29878e+01
5.16372e-03,7.99398e+01
5.21375e-03,7.70027e+01
5.26426e-03,7.41724e+01
5.31526e-03,7.14451e+01
5.36676e-03,6.88170e+01
5.41876e-03,6.62847e+01
5.47126e-03,6.38444e+01
5.52427e-03,6.14931e+01
5.57779e-03,5.92273e+01
5.63183e-03,5.70441e+01
5.68640e-03,5.49404e+01
5.74149e-03,5.29133e+01
5.79712e-03,5.09601e+01
5.85328e-03,4.90781e+01
5.90999e-03,4.72647e+01
5.96725e-03,4.55174e+01
6.02507e-03,4.38337e+01
6.08344e-03,4.22115e+01
6.14238e-03,4.06484e+01
6.20189e-03,3.91424e+01
6.26198e-03,3.76912e+01
6.32265e-03,3.62931e+01
6.38391e-03,3.49459e+01
6.44576e-03,3.36479e+01
6.50821e-03,3.23972e+01
6.57127e-03,3.11922e+01
6.63494e-03,3.00312e+01
6.69922e-03,2.89126e+01
6.76413e-03,2.78348e+01
6.82966e-03,2.67964e+01
6.89583e-03,2.57959e+01
6.96264e-03,2.48320e+01
7.03010e-03,2.39032e+01
7.09821e-03,2.30084e+01
7.16698e-03,2.21463e+01
7.23642e-03,2.13157e+01
7.30653e-03,2.05154e+01
7.37732e-03,1.97444e+01
7.44880e-03,1.90016e+01
7.52097e-03,1.82859e+01
7.59384e-03,1.75964e+01
7.66741e-03,1.69321e+01
7.74170e-03,1.62921e+01
7.81671e-03,1.56755e+01
7.89244e-03,1.50814e+01
7.96891e-03,1.45091e+01
8.04611e-03,1.39577e+01
8.12407e-03,1.34265e+01
8.20278e-03,1.29147e+01
8.28225e-03,1.24217e+01
8.36250e-03,1.19467e+01
8.44352e-03,1.14890e+01
8.52533e-03,1.10481e+01
8.60793e-03,1.06234e+01
8.69132e-03,1.02142e+01
8.77553e-03,9.81997e+00
8.86055e-03,9.44018e+00
8.94640e-03,9.07429e+00
9.03308e-03,8.72180e+00
9.12060e-03,8.38222e+00
9.20896e-03,8.05507e+00
9.29819e-03,7.73990e+00
9.38827e-03,7.43628e+00
9.47923e-03,7.14378e+00
9.57107e-03,6.86199e+00
9.66381e-03,6.59052e+00
9.75743e-03,6.32900e+00
9.85197e-03,6.07706e+00
9.94742e-03,5.83435e+00
1.00438e-02,5.60053e+00
1.01411e-02,5.37528e+00
1.02394e-02,5.15829e+00
1.03386e-02,4.94925e+00
1.04387e-02,4.74787e+00
1.05399e-02,4.55386e+00
1.06420e-02,4.36697e+00
1.07451e-02,4.18694e+00
1.08492e-02,4.01350e+00
1.09543e-02,3.84641e+00
1.10605e-02,3.68546e+00
1.11676e-02,3.53040e+00
1.12758e-02,3.38103e+00
1.13851e-02,3.23714e+00
1.14954e-02,3.09852e+00
1.16067e-02,2.96499e+00
1.17192e-02,2.83635e+00
1.18327e-02,2.71244e+00
1.19474e-02,2.59306e+00
1.20631e-02,2.47807e+00
1.21800e-02,2.36729e+00
1.22980e-02,2.26057e+00
1.24172e-02,2.15777e+00
1.25375e-02,2.05874e+00
1.26589e-02,1.96335e+00
1.27816e-02,1.87145e+00
1.29054e-02,1.78293e+00
1.30305e-02,1.69765e+00
1.31567e-02,1.61550e+00
1.32842e-02,1.53637e+00
1.34129e-02,1.46014e+00
1.35428e-02,1.38670e+00
1.36741e-02,1.31597e+00
1.38065e-02,1.24782e+00
1.39403e-02,1.18218e+00
1.40754e-02,1.11895e+00
1.42117e-02,1.05804e+00
1.43494e-02,9.99361e-01
1.44885e-02,9.42839e-01
1.46288e-02,8.88391e-01
1.47706e-02,8.35942e-01
1.49137e-02,7.85418e-01
1.50582e-02,7.36749e-01
1.52041e-02,6.89866e-01
1.53514e-02,6.44704e-01
1.55001e-02,6.01201e-01
1.56503e-02,5.59294e-01
1.58019e-02,5.18927e-01
1.59550e-02,4.80041e-01
1.61096e-02,4.42583e-01
1.62657e-02,4.06500e-01
1.64233e-02,3.71742e-01
1.65824e-02,3.38261e-01
1.67430e-02,3.06009e-01
1.69053e-02,2.74941e-01
1.70690e-02,2.45014e-01
1.72344e-02,2.16186e-01
1.74014e-02,1.88417e-01
1.75700e-02,1.61668e-01
1.77402e-02,1.35901e-01
1.79121e-02,1.11080e-01
1.80856e-02,8.71712e-02
1.82609e-02,6.41403e-02
1.84378e-02,4.19553e-02
1.86164e-02,2.05852e-02
1.87968e-02,0.00000e+00
