m1=102699.517, m2=20.758, gsp=2.112, rhosp=1277.149
fGW[Hz],dPh[rad]
2.28027e-03,1.09184e+03
2.31413e-03,1.04316e+03
2.34848e-03,9.96529e+02
2.38335e-03,9.51852e+02
2.41873e-03,9.09060e+02
2.45464e-03,8.68076e+02
2.49108e-03,8.28831e+02
2.52807e-03,7.91255e+02
2.56560e-03,7.55284e+02
2.60369e-03,7.20852e+02
2.64234e-03,6.87899e+02
2.68157e-03,6.56366e+02
2.72138e-03,6.26196e+02
2.76179e-03,5.97334e+02
2.80279e-03,5.69728e+02
2.84440e-03,5.43326e+02
2.88663e-03,5.18079e+02
2.92948e-03,4.93941e+02
2.97298e-03,4.70866e+02
3.01711e-03,4.48811e+02
3.06191e-03,4.27733e+02
3.10736e-03,4.07592e+02
3.15350e-03,3.88350e+02
3.20031e-03,3.69968e+02
3.24783e-03,3.52411e+02
3.29604e-03,3.35645e+02
3.34498e-03,3.19635e+02
3.39464e-03,3.04351e+02
3.44504e-03,2.89761e+02
3.49618e-03,2.75836e+02
3.54809e-03,2.62547e+02
3.60076e-03,2.49867e+02
3.65422e-03,2.37771e+02
3.70847e-03,2.26232e+02
3.76353e-03,2.15227e+02
3.81940e-03,2.04732e+02
3.87611e-03,1.94726e+02
3.93365e-03,1.85187e+02
3.99205e-03,1.76094e+02
4.05132e-03,1.67428e+02
4.11147e-03,1.59169e+02
4.17251e-03,1.51301e+02
4.23445e-03,1.43805e+02
4.29732e-03,1.36664e+02
4.36112e-03,1.29864e+02
4.42586e-03,1.23388e+02
4.49157e-03,1.17221e+02
4.55825e-03,1.11351e+02
4.62593e-03,1.05763e+02
4.69460e-03,1.00445e+02
4.76430e-03,9.53839e+01
4.83503e-03,9.05682e+01
4.90682e-03,8.59865e+01
4.97966e-03,8.16281e+01
5.05359e-03,7.74827e+01
5.12862e-03,7.35403e+01
5.20476e-03,6.97914e+01
5.28203e-03,6.62271e+01
5.36045e-03,6.28385e+01
5.44003e-03,5.96176e+01
5.52080e-03,5.65563e+01
5.60276e-03,5.36470e+01
5.68594e-03,5.08827e+01
5.77035e-03,4.82562e+01
5.85602e-03,4.57612e+01
5.94296e-03,4.33912e+01
6.03119e-03,4.11402e+01
6.12073e-03,3.90026e+01
6.21160e-03,3.69728e+01
6.30382e-03,3.50456e+01
6.39741e-03,3.32160e+01
6.49239e-03,3.14793e+01
6.58877e-03,2.98309e+01
6.68659e-03,2.82665e+01
6.78586e-03,2.67820e+01
6.88661e-03,2.53734e+01
6.98885e-03,2.40370e+01
7.09261e-03,2.27692e+01
7.19791e-03,2.15666e+01
7.30477e-03,2.04260e+01
7.41322e-03,1.93442e+01
7.52327e-03,1.83184e+01
7.63497e-03,1.73457e+01
7.74832e-03,1.64235e+01
7.86335e-03,1.55492e+01
7.98009e-03,1.47204e+01
8.09857e-03,1.39348e+01
8.21880e-03,1.31902e+01
8.34082e-03,1.24846e+01
8.46465e-03,1.18159e+01
8.59032e-03,1.11823e+01
8.71785e-03,1.05819e+01
8.84728e-03,1.00132e+01
8.97863e-03,9.47439e+00
9.11192e-03,8.96401e+00
9.24720e-03,8.48058e+00
9.38449e-03,8.02273e+00
9.52381e-03,7.58912e+00
9.66521e-03,7.17850e+00
9.80870e-03,6.78968e+00
9.95432e-03,6.42154e+00
1.01021e-02,6.07298e+00
1.02521e-02,5.74299e+00
1.04043e-02,5.43061e+00
1.05588e-02,5.13491e+00
1.07155e-02,4.85502e+00
1.08746e-02,4.59012e+00
1.10360e-02,4.33940e+00
1.11999e-02,4.10214e+00
1.13662e-02,3.87761e+00
1.15349e-02,3.66515e+00
1.17062e-02,3.46412e+00
1.18799e-02,3.27392e+00
1.20563e-02,3.09397e+00
1.22353e-02,2.92373e+00
1.24170e-02,2.76269e+00
1.26013e-02,2.61034e+00
1.27884e-02,2.46624e+00
1.29782e-02,2.32995e+00
1.31709e-02,2.20104e+00
1.33665e-02,2.07912e+00
1.35649e-02,1.96382e+00
1.37663e-02,1.85478e+00
1.39707e-02,1.75167e+00
1.41781e-02,1.65417e+00
1.43886e-02,1.56198e+00
1.46022e-02,1.47481e+00
1.48190e-02,1.39239e+00
1.50390e-02,1.31447e+00
1.52623e-02,1.24081e+00
1.54888e-02,1.17117e+00
1.57188e-02,1.10534e+00
1.59522e-02,1.04311e+00
1.61890e-02,9.84284e-01
1.64293e-02,9.28682e-01
1.66732e-02,8.76127e-01
1.69208e-02,8.26455e-01
1.71720e-02,7.79508e-01
1.74269e-02,7.35138e-01
1.76857e-02,6.93206e-01
1.79482e-02,6.53578e-01
1.82147e-02,6.16129e-01
1.84851e-02,5.80741e-01
1.87595e-02,5.47300e-01
1.90381e-02,5.15701e-01
1.93207e-02,4.85844e-01
1.96075e-02,4.57632e-01
1.98986e-02,4.30976e-01
2.01941e-02,4.05790e-01
2.04939e-02,3.81995e-01
2.07981e-02,3.59514e-01
2.11069e-02,3.38274e-01
2.14202e-02,3.18209e-01
2.17383e-02,2.99253e-01
2.20610e-02,2.81345e-01
2.23885e-02,2.64428e-01
2.27209e-02,2.48447e-01
2.30582e-02,2.33352e-01
2.34005e-02,2.19092e-01
2.37480e-02,2.05623e-01
2.41005e-02,1.92900e-01
2.44583e-02,1.80883e-01
2.48214e-02,1.69532e-01
2.51899e-02,1.58811e-01
2.55639e-02,1.48685e-01
2.59434e-02,1.39121e-01
2.63286e-02,1.30088e-01
2.67195e-02,1.21557e-01
2.71162e-02,1.13500e-01
2.75187e-02,1.05891e-01
2.79273e-02,9.87049e-02
2.83419e-02,9.19183e-02
2.87627e-02,8.55093e-02
2.91897e-02,7.94568e-02
2.96231e-02,7.37411e-02
3.00628e-02,6.83436e-02
3.05092e-02,6.32466e-02
3.09621e-02,5.84335e-02
3.14218e-02,5.38884e-02
3.18883e-02,4.95966e-02
3.23617e-02,4.55439e-02
3.28422e-02,4.17172e-02
3.33297e-02,3.81037e-02
3.38246e-02,3.46918e-02
3.43267e-02,3.14701e-02
3.48363e-02,2.84281e-02
3.53535e-02,2.55559e-02
3.58784e-02,2.28439e-02
3.64111e-02,2.02833e-02
3.69516e-02,1.78656e-02
3.75002e-02,1.55829e-02
3.80570e-02,1.34276e-02
3.86220e-02,1.13927e-02
3.91954e-02,9.47153e-03
3.97773e-02,7.65763e-03
4.03678e-02,5.94509e-03
4.09671e-02,4.32824e-03
4.15753e-02,2.80175e-03
4.21926e-02,1.36059e-03
4.28190e-02,0.00000e+00
