m1=32932.485, m2=46.055, gsp=2.248, rhosp=804.025
fGW[Hz],dPh[rad]
2.24776e-03,3.92834e+03
2.29438e-03,3.74891e+03
2.34197e-03,3.57747e+03
2.39054e-03,3.41367e+03
2.44012e-03,3.25717e+03
2.49072e-03,3.10766e+03
2.54238e-03,2.96482e+03
2.59511e-03,2.82837e+03
2.64893e-03,2.69802e+03
2.70387e-03,2.57350e+03
2.75995e-03,2.45456e+03
2.81719e-03,2.34096e+03
2.87562e-03,2.23245e+03
2.93525e-03,2.12881e+03
2.99613e-03,2.02983e+03
3.05827e-03,1.93531e+03
3.12170e-03,1.84504e+03
3.18644e-03,1.75884e+03
3.25253e-03,1.67653e+03
3.31998e-03,1.59794e+03
3.38884e-03,1.52290e+03
3.45912e-03,1.45126e+03
3.53086e-03,1.38287e+03
3.60409e-03,1.31758e+03
3.67884e-03,1.25525e+03
3.75514e-03,1.19576e+03
3.83302e-03,1.13898e+03
3.91252e-03,1.08478e+03
3.99366e-03,1.03306e+03
4.07649e-03,9.83709e+02
4.16103e-03,9.36613e+02
4.24733e-03,8.91675e+02
4.33542e-03,8.48801e+02
4.42534e-03,8.07897e+02
4.51712e-03,7.68877e+02
4.61080e-03,7.31656e+02
4.70643e-03,6.96154e+02
4.80404e-03,6.62294e+02
4.90367e-03,6.30004e+02
5.00537e-03,5.99213e+02
5.10918e-03,5.69853e+02
5.21514e-03,5.41861e+02
5.32331e-03,5.15176e+02
5.43371e-03,4.89738e+02
5.54640e-03,4.65492e+02
5.66143e-03,4.42384e+02
5.77885e-03,4.20363e+02
5.89870e-03,3.99380e+02
6.02104e-03,3.79389e+02
6.14591e-03,3.60343e+02
6.27338e-03,3.42201e+02
6.40349e-03,3.24922e+02
6.53629e-03,3.08466e+02
6.67186e-03,2.92796e+02
6.81023e-03,2.77877e+02
6.95147e-03,2.63674e+02
7.09564e-03,2.50155e+02
7.24280e-03,2.37287e+02
7.39302e-03,2.25043e+02
7.54635e-03,2.13392e+02
7.70286e-03,2.02308e+02
7.86261e-03,1.91764e+02
8.02568e-03,1.81736e+02
8.19213e-03,1.72200e+02
8.36203e-03,1.63134e+02
8.53546e-03,1.54514e+02
8.71248e-03,1.46322e+02
8.89318e-03,1.38536e+02
9.07762e-03,1.31138e+02
9.26589e-03,1.24110e+02
9.45806e-03,1.17434e+02
9.65422e-03,1.11094e+02
9.85444e-03,1.05073e+02
1.00588e-02,9.93583e+01
1.02674e-02,9.39335e+01
1.04804e-02,8.87855e+01
1.06977e-02,8.39009e+01
1.09196e-02,7.92673e+01
1.11461e-02,7.48727e+01
1.13772e-02,7.07055e+01
1.16132e-02,6.67549e+01
1.18541e-02,6.30103e+01
1.20999e-02,5.94617e+01
1.23509e-02,5.60998e+01
1.26070e-02,5.29152e+01
1.28685e-02,4.98994e+01
1.31354e-02,4.70441e+01
1.34078e-02,4.43413e+01
1.36859e-02,4.17835e+01
1.39697e-02,3.93635e+01
1.42594e-02,3.70744e+01
1.45552e-02,3.49097e+01
1.48570e-02,3.28631e+01
1.51652e-02,3.09287e+01
1.54797e-02,2.91007e+01
1.58007e-02,2.73738e+01
1.61284e-02,2.57428e+01
1.64629e-02,2.42028e+01
1.68044e-02,2.27490e+01
1.71529e-02,2.13770e+01
1.75086e-02,2.00826e+01
1.78718e-02,1.88616e+01
1.82424e-02,1.77103e+01
1.86208e-02,1.66250e+01
1.90070e-02,1.56021e+01
1.94012e-02,1.46383e+01
1.98035e-02,1.37305e+01
2.02143e-02,1.28756e+01
2.06335e-02,1.20709e+01
2.10614e-02,1.13135e+01
2.14982e-02,1.06008e+01
2.19441e-02,9.93055e+00
2.23992e-02,9.30024e+00
2.28638e-02,8.70770e+00
2.33380e-02,8.15082e+00
2.38220e-02,7.62760e+00
2.43160e-02,7.13615e+00
2.48203e-02,6.67467e+00
2.53351e-02,6.24146e+00
2.58606e-02,5.83489e+00
2.63969e-02,5.45344e+00
2.69444e-02,5.09565e+00
2.75032e-02,4.76015e+00
2.80736e-02,4.44564e+00
2.86558e-02,4.15089e+00
2.92501e-02,3.87472e+00
2.98568e-02,3.61605e+00
3.04760e-02,3.37382e+00
3.11081e-02,3.14705e+00
3.17532e-02,2.93482e+00
3.24118e-02,2.73624e+00
3.30840e-02,2.55048e+00
3.37702e-02,2.37676e+00
3.44706e-02,2.21435e+00
3.51855e-02,2.06254e+00
3.59152e-02,1.92067e+00
3.66601e-02,1.78814e+00
3.74204e-02,1.66435e+00
3.81965e-02,1.54876e+00
3.89887e-02,1.44085e+00
3.97973e-02,1.34013e+00
4.06227e-02,1.24615e+00
4.14652e-02,1.15848e+00
4.23251e-02,1.07670e+00
4.32030e-02,1.00045e+00
4.40990e-02,9.29359e-01
4.50136e-02,8.63097e-01
4.59471e-02,8.01348e-01
4.69001e-02,7.43818e-01
4.78728e-02,6.90228e-01
4.88656e-02,6.40318e-01
4.98791e-02,5.93847e-01
5.09136e-02,5.50584e-01
5.19695e-02,5.10315e-01
5.30473e-02,4.72842e-01
5.41475e-02,4.37975e-01
5.52705e-02,4.05540e-01
5.64168e-02,3.75373e-01
5.75869e-02,3.47318e-01
5.87812e-02,3.21234e-01
6.00003e-02,2.96984e-01
6.12447e-02,2.74445e-01
6.25149e-02,2.53499e-01
6.38115e-02,2.34035e-01
6.51349e-02,2.15953e-01
6.64858e-02,1.99155e-01
6.78647e-02,1.83554e-01
6.92722e-02,1.69066e-01
7.07089e-02,1.55613e-01
7.21754e-02,1.43124e-01
7.36723e-02,1.31530e-01
7.52002e-02,1.20768e-01
7.67598e-02,1.10781e-01
7.83518e-02,1.01514e-01
7.99768e-02,9.29151e-02
8.16355e-02,8.49379e-02
8.33286e-02,7.75379e-02
8.50568e-02,7.06742e-02
8.68209e-02,6.43086e-02
8.86215e-02,5.84056e-02
9.04595e-02,5.29320e-02
9.23356e-02,4.78572e-02
9.42506e-02,4.31524e-02
9.62054e-02,3.87912e-02
9.82006e-02,3.47488e-02
1.00237e-01,3.10023e-02
1.02316e-01,2.75301e-02
1.04438e-01,2.43127e-02
1.06604e-01,2.13314e-02
1.08815e-01,1.85691e-02
1.11072e-01,1.60100e-02
1.13376e-01,1.36393e-02
1.15727e-01,1.14433e-02
1.18127e-01,9.40921e-03
1.20577e-01,7.52525e-03
1.23078e-01,5.78046e-03
1.25630e-01,4.16464e-03
1.28236e-01,2.66836e-03
1.30895e-01,1.28286e-03
1.33610e-01,0.00000e+00
