m1=7637.499, m2=74.847, gsp=2.384, rhosp=2457.294
fGW[Hz],dPh[rad]
2.70262e-03,1.00595e+04
2.77650e-03,9.50972e+03
2.85239e-03,8.98994e+03
2.93035e-03,8.49850e+03
3.01045e-03,8.03387e+03
3.09273e-03,7.59458e+03
3.17726e-03,7.17925e+03
3.26411e-03,6.78658e+03
3.35333e-03,6.41533e+03
3.44498e-03,6.06434e+03
3.53914e-03,5.73249e+03
3.63588e-03,5.41875e+03
3.73526e-03,5.12213e+03
3.83736e-03,4.84170e+03
3.94224e-03,4.57657e+03
4.05000e-03,4.32590e+03
4.16070e-03,4.08892e+03
4.27442e-03,3.86488e+03
4.39125e-03,3.65307e+03
4.51128e-03,3.45281e+03
4.63459e-03,3.26350e+03
4.76126e-03,3.08452e+03
4.89140e-03,2.91531e+03
5.02510e-03,2.75534e+03
5.16245e-03,2.60411e+03
5.30356e-03,2.46115e+03
5.44852e-03,2.32599e+03
5.59744e-03,2.19821e+03
5.75044e-03,2.07742e+03
5.90762e-03,1.96323e+03
6.06909e-03,1.85528e+03
6.23498e-03,1.75323e+03
6.40540e-03,1.65676e+03
6.58048e-03,1.56556e+03
6.76034e-03,1.47936e+03
6.94512e-03,1.39786e+03
7.13495e-03,1.32083e+03
7.32997e-03,1.24801e+03
7.53032e-03,1.17917e+03
7.73615e-03,1.11410e+03
7.94760e-03,1.05259e+03
8.16484e-03,9.94456e+02
8.38801e-03,9.39500e+02
8.61728e-03,8.87555e+02
8.85281e-03,8.38455e+02
9.09479e-03,7.92046e+02
9.34338e-03,7.48181e+02
9.59876e-03,7.06721e+02
9.86112e-03,6.67534e+02
1.01307e-02,6.30497e+02
1.04076e-02,5.95492e+02
1.06920e-02,5.62408e+02
1.09843e-02,5.31140e+02
1.12845e-02,5.01590e+02
1.15929e-02,4.73662e+02
1.19098e-02,4.47270e+02
1.22354e-02,4.22328e+02
1.25698e-02,3.98758e+02
1.29134e-02,3.76485e+02
1.32663e-02,3.55437e+02
1.36289e-02,3.35548e+02
1.40014e-02,3.16754e+02
1.43841e-02,2.98996e+02
1.47773e-02,2.82217e+02
1.51812e-02,2.66364e+02
1.55962e-02,2.51385e+02
1.60225e-02,2.37233e+02
1.64604e-02,2.23863e+02
1.69103e-02,2.11232e+02
1.73725e-02,1.99299e+02
1.78474e-02,1.88027e+02
1.83352e-02,1.77378e+02
1.88363e-02,1.67320e+02
1.93512e-02,1.57819e+02
1.98801e-02,1.48845e+02
2.04235e-02,1.40370e+02
2.09817e-02,1.32365e+02
2.15552e-02,1.24806e+02
2.21444e-02,1.17667e+02
2.27497e-02,1.10925e+02
2.33715e-02,1.04560e+02
2.40103e-02,9.85490e+01
2.46666e-02,9.28740e+01
2.53408e-02,8.75163e+01
2.60335e-02,8.24583e+01
2.67450e-02,7.76835e+01
2.74761e-02,7.31765e+01
2.82271e-02,6.89225e+01
2.89986e-02,6.49074e+01
2.97912e-02,6.11183e+01
3.06055e-02,5.75426e+01
3.14420e-02,5.41686e+01
3.23014e-02,5.09852e+01
3.31843e-02,4.79817e+01
3.40914e-02,4.51484e+01
3.50232e-02,4.24758e+01
3.59805e-02,3.99550e+01
3.69639e-02,3.75776e+01
3.79743e-02,3.53357e+01
3.90122e-02,3.32218e+01
4.00786e-02,3.12287e+01
4.11740e-02,2.93499e+01
4.22994e-02,2.75789e+01
4.34556e-02,2.59097e+01
4.46434e-02,2.43368e+01
4.58636e-02,2.28546e+01
4.71172e-02,2.14582e+01
4.84051e-02,2.01429e+01
4.97281e-02,1.89039e+01
5.10874e-02,1.77372e+01
5.24837e-02,1.66386e+01
5.39183e-02,1.56044e+01
5.53920e-02,1.46309e+01
5.69061e-02,1.37147e+01
5.84615e-02,1.28526e+01
6.00594e-02,1.20415e+01
6.17010e-02,1.12785e+01
6.33875e-02,1.05611e+01
6.51201e-02,9.88644e+00
6.69000e-02,9.25225e+00
6.87286e-02,8.65620e+00
7.06071e-02,8.09611e+00
7.25370e-02,7.56994e+00
7.45197e-02,7.07574e+00
7.65566e-02,6.61168e+00
7.86491e-02,6.17603e+00
8.07988e-02,5.76715e+00
8.30073e-02,5.38351e+00
8.52761e-02,5.02363e+00
8.76070e-02,4.68614e+00
9.00015e-02,4.36974e+00
9.24616e-02,4.07320e+00
9.49888e-02,3.79535e+00
9.75851e-02,3.53509e+00
1.00252e-01,3.29139e+00
1.02993e-01,3.06327e+00
1.05808e-01,2.84980e+00
1.08700e-01,2.65012e+00
1.11671e-01,2.46338e+00
1.14723e-01,2.28883e+00
1.17859e-01,2.12572e+00
1.21080e-01,1.97335e+00
1.24390e-01,1.83108e+00
1.27790e-01,1.69829e+00
1.31283e-01,1.57440e+00
1.34871e-01,1.45885e+00
1.38558e-01,1.35113e+00
1.42345e-01,1.25074e+00
1.46235e-01,1.15724e+00
1.50233e-01,1.07018e+00
1.54339e-01,9.89161e-01
1.58557e-01,9.13791e-01
1.62891e-01,8.43709e-01
1.67344e-01,7.78575e-01
1.71918e-01,7.18066e-01
1.76617e-01,6.61881e-01
1.81444e-01,6.09735e-01
1.86403e-01,5.61361e-01
1.91498e-01,5.16506e-01
1.96733e-01,4.74936e-01
2.02110e-01,4.36428e-01
2.07634e-01,4.00774e-01
2.13310e-01,3.67778e-01
2.19140e-01,3.37258e-01
2.25130e-01,3.09041e-01
2.31283e-01,2.82966e-01
2.37605e-01,2.58883e-01
2.44099e-01,2.36650e-01
2.50771e-01,2.16135e-01
2.57626e-01,1.97215e-01
2.64667e-01,1.79774e-01
2.71902e-01,1.63705e-01
2.79333e-01,1.48906e-01
2.86969e-01,1.35283e-01
2.94812e-01,1.22750e-01
3.02870e-01,1.11224e-01
3.11149e-01,1.00630e-01
3.19653e-01,9.08956e-02
3.28391e-01,8.19563e-02
3.37366e-01,7.37506e-02
3.46588e-01,6.62215e-02
3.56061e-01,5.93164e-02
3.65793e-01,5.29862e-02
3.75791e-01,4.71855e-02
3.86063e-01,4.18722e-02
3.96615e-01,3.70075e-02
4.07456e-01,3.25551e-02
4.18593e-01,2.84818e-02
4.30034e-01,2.47567e-02
4.41789e-01,2.13513e-02
4.53864e-01,1.82394e-02
4.66270e-01,1.53967e-02
4.79014e-01,1.28008e-02
4.92107e-01,1.04311e-02
5.05558e-01,8.26868e-03
5.19376e-01,6.29597e-03
5.33572e-01,4.49694e-03
5.48157e-01,2.85680e-03
5.63139e-01,1.36198e-03
5.78532e-01,0.00000e+00
