m1=2619.316, m2=30.087, gsp=2.497, rhosp=3051.480
fGW[Hz],dPh[rad]
4.97152e-03,8.86030e+04
5.11927e-03,8.35497e+04
5.27140e-03,7.87843e+04
5.42806e-03,7.42904e+04
5.58937e-03,7.00526e+04
5.75548e-03,6.60561e+04
5.92652e-03,6.22873e+04
6.10265e-03,5.87333e+04
6.28401e-03,5.53817e+04
6.47076e-03,5.22212e+04
6.66306e-03,4.92406e+04
6.86107e-03,4.64300e+04
7.06497e-03,4.37795e+04
7.27493e-03,4.12800e+04
7.49113e-03,3.89229e+04
7.71375e-03,3.67002e+04
7.94299e-03,3.46042e+04
8.17904e-03,3.26276e+04
8.42211e-03,3.07636e+04
8.67240e-03,2.90059e+04
8.93013e-03,2.73484e+04
9.19551e-03,2.57854e+04
9.46879e-03,2.43115e+04
9.75018e-03,2.29216e+04
1.00399e-02,2.16109e+04
1.03383e-02,2.03750e+04
1.06455e-02,1.92095e+04
1.09619e-02,1.81105e+04
1.12877e-02,1.70742e+04
1.16231e-02,1.60970e+04
1.19686e-02,1.51755e+04
1.23242e-02,1.43065e+04
1.26905e-02,1.34872e+04
1.30676e-02,1.27145e+04
1.34560e-02,1.19860e+04
1.38559e-02,1.12990e+04
1.42676e-02,1.06512e+04
1.46916e-02,1.00404e+04
1.51283e-02,9.46444e+03
1.55778e-02,8.92136e+03
1.60408e-02,8.40928e+03
1.65175e-02,7.92643e+03
1.70084e-02,7.47116e+03
1.75138e-02,7.04188e+03
1.80343e-02,6.63713e+03
1.85703e-02,6.25549e+03
1.91221e-02,5.89565e+03
1.96904e-02,5.55637e+03
2.02756e-02,5.23648e+03
2.08781e-02,4.93488e+03
2.14986e-02,4.65051e+03
2.21375e-02,4.38241e+03
2.27954e-02,4.12963e+03
2.34728e-02,3.89132e+03
2.41704e-02,3.66663e+03
2.48887e-02,3.45481e+03
2.56283e-02,3.25510e+03
2.63900e-02,3.06683e+03
2.71742e-02,2.88934e+03
2.79818e-02,2.72201e+03
2.88134e-02,2.56427e+03
2.96696e-02,2.41557e+03
3.05514e-02,2.27539e+03
3.14593e-02,2.14325e+03
3.23942e-02,2.01869e+03
3.33569e-02,1.90127e+03
3.43482e-02,1.79059e+03
3.53690e-02,1.68627e+03
3.64201e-02,1.58794e+03
3.75025e-02,1.49526e+03
3.86170e-02,1.40790e+03
3.97646e-02,1.32557e+03
4.09463e-02,1.24798e+03
4.21632e-02,1.17485e+03
4.34162e-02,1.10593e+03
4.47064e-02,1.04098e+03
4.60350e-02,9.79773e+02
4.74031e-02,9.22097e+02
4.88119e-02,8.67749e+02
5.02625e-02,8.16539e+02
5.17562e-02,7.68287e+02
5.32943e-02,7.22824e+02
5.48781e-02,6.79991e+02
5.65090e-02,6.39637e+02
5.81883e-02,6.01621e+02
5.99176e-02,5.65808e+02
6.16982e-02,5.32073e+02
6.35318e-02,5.00296e+02
6.54198e-02,4.70366e+02
6.73640e-02,4.42177e+02
6.93659e-02,4.15628e+02
7.14274e-02,3.90627e+02
7.35501e-02,3.67084e+02
7.57358e-02,3.44915e+02
7.79866e-02,3.24042e+02
8.03042e-02,3.04390e+02
8.26907e-02,2.85890e+02
8.51481e-02,2.68475e+02
8.76786e-02,2.52083e+02
9.02842e-02,2.36654e+02
9.29673e-02,2.22134e+02
9.57301e-02,2.08471e+02
9.85751e-02,1.95614e+02
1.01505e-01,1.83518e+02
1.04521e-01,1.72139e+02
1.07627e-01,1.61434e+02
1.10826e-01,1.51366e+02
1.14119e-01,1.41898e+02
1.17511e-01,1.32995e+02
1.21003e-01,1.24624e+02
1.24599e-01,1.16754e+02
1.28302e-01,1.09357e+02
1.32115e-01,1.02404e+02
1.36041e-01,9.58714e+01
1.40084e-01,8.97331e+01
1.44247e-01,8.39667e+01
1.48534e-01,7.85506e+01
1.52948e-01,7.34642e+01
1.57493e-01,6.86884e+01
1.62174e-01,6.42051e+01
1.66993e-01,5.99970e+01
1.71956e-01,5.60481e+01
1.77066e-01,5.23432e+01
1.82328e-01,4.88679e+01
1.87747e-01,4.56087e+01
1.93326e-01,4.25529e+01
1.99071e-01,3.96884e+01
2.04987e-01,3.70040e+01
2.11079e-01,3.44889e+01
2.17352e-01,3.21330e+01
2.23812e-01,2.99270e+01
2.30463e-01,2.78618e+01
2.37312e-01,2.59290e+01
2.44364e-01,2.41206e+01
2.51626e-01,2.24293e+01
2.59104e-01,2.08478e+01
2.66804e-01,1.93695e+01
2.74733e-01,1.79883e+01
2.82898e-01,1.66981e+01
2.91305e-01,1.54934e+01
2.99962e-01,1.43689e+01
3.08877e-01,1.33197e+01
3.18056e-01,1.23411e+01
3.27508e-01,1.14288e+01
3.37241e-01,1.05786e+01
3.47263e-01,9.78665e+00
3.57583e-01,9.04922e+00
3.68210e-01,8.36287e+00
3.79153e-01,7.72438e+00
3.90420e-01,7.13066e+00
4.02023e-01,6.57884e+00
4.13970e-01,6.06622e+00
4.26273e-01,5.59024e+00
4.38941e-01,5.14850e+00
4.51985e-01,4.73875e+00
4.65418e-01,4.35887e+00
4.79249e-01,4.00687e+00
4.93491e-01,3.68087e+00
5.08157e-01,3.37912e+00
5.23259e-01,3.09996e+00
5.38809e-01,2.84185e+00
5.54821e-01,2.60333e+00
5.71310e-01,2.38304e+00
5.88288e-01,2.17971e+00
6.05771e-01,1.99212e+00
6.23773e-01,1.81918e+00
6.42311e-01,1.65981e+00
6.61399e-01,1.51305e+00
6.81055e-01,1.37797e+00
7.01295e-01,1.25372e+00
7.22136e-01,1.13949e+00
7.43597e-01,1.03454e+00
7.65695e-01,9.38167e-01
7.88450e-01,8.49724e-01
8.11881e-01,7.68605e-01
8.36009e-01,6.94245e-01
8.60854e-01,6.26120e-01
8.86437e-01,5.63742e-01
9.12780e-01,5.06658e-01
9.39906e-01,4.54447e-01
9.67839e-01,4.06721e-01
9.96601e-01,3.63116e-01
1.02622e+00,3.23298e-01
1.05672e+00,2.86957e-01
1.08812e+00,2.53807e-01
1.12046e+00,2.23583e-01
1.15375e+00,1.96040e-01
1.18804e+00,1.70952e-01
1.22335e+00,1.48113e-01
1.25970e+00,1.27329e-01
1.29714e+00,1.08424e-01
1.33569e+00,9.12375e-02
1.37538e+00,7.56186e-02
1.41626e+00,6.14308e-02
1.45835e+00,4.85484e-02
1.50169e+00,3.68559e-02
1.54631e+00,2.62476e-02
1.59227e+00,1.66267e-02
1.63959e+00,7.90454e-03
1.68831e+00,0.00000e+00
