m1=7480.223, m2=34.467, gsp=2.277, rhosp=498.506
fGW[Hz],dPh[rad]
3.63126e-03,2.68796e+03
3.72532e-03,2.54324e+03
3.82182e-03,2.40628e+03
3.92082e-03,2.27666e+03
4.02238e-03,2.15400e+03
4.12657e-03,2.03791e+03
4.23346e-03,1.92804e+03
4.34312e-03,1.82407e+03
4.45563e-03,1.72568e+03
4.57104e-03,1.63257e+03
4.68945e-03,1.54445e+03
4.81092e-03,1.46106e+03
4.93554e-03,1.38215e+03
5.06339e-03,1.30747e+03
5.19455e-03,1.23680e+03
5.32910e-03,1.16993e+03
5.46714e-03,1.10665e+03
5.60876e-03,1.04676e+03
5.75405e-03,9.90099e+02
5.90310e-03,9.36478e+02
6.05601e-03,8.85739e+02
6.21288e-03,8.37727e+02
6.37381e-03,7.92296e+02
6.53892e-03,7.49309e+02
6.70830e-03,7.08633e+02
6.88206e-03,6.70146e+02
7.06033e-03,6.33730e+02
7.24322e-03,5.99274e+02
7.43084e-03,5.66673e+02
7.62333e-03,5.35827e+02
7.82080e-03,5.06643e+02
8.02338e-03,4.79031e+02
8.23122e-03,4.52907e+02
8.44443e-03,4.28192e+02
8.66317e-03,4.04809e+02
8.88758e-03,3.82688e+02
9.11780e-03,3.61760e+02
9.35398e-03,3.41963e+02
9.59628e-03,3.23234e+02
9.84485e-03,3.05517e+02
1.00999e-02,2.88757e+02
1.03615e-02,2.72903e+02
1.06299e-02,2.57907e+02
1.09052e-02,2.43722e+02
1.11877e-02,2.30305e+02
1.14775e-02,2.17615e+02
1.17748e-02,2.05612e+02
1.20798e-02,1.94260e+02
1.23927e-02,1.83523e+02
1.27138e-02,1.73369e+02
1.30431e-02,1.63766e+02
1.33809e-02,1.54685e+02
1.37276e-02,1.46098e+02
1.40832e-02,1.37977e+02
1.44480e-02,1.30298e+02
1.48222e-02,1.23038e+02
1.52061e-02,1.16173e+02
1.56000e-02,1.09683e+02
1.60041e-02,1.03547e+02
1.64187e-02,9.77454e+01
1.68440e-02,9.22613e+01
1.72803e-02,8.70771e+01
1.77279e-02,8.21768e+01
1.81871e-02,7.75449e+01
1.86583e-02,7.31670e+01
1.91416e-02,6.90294e+01
1.96374e-02,6.51191e+01
2.01461e-02,6.14238e+01
2.06679e-02,5.79320e+01
2.12033e-02,5.46326e+01
2.17525e-02,5.15152e+01
2.23160e-02,4.85700e+01
2.28941e-02,4.57876e+01
2.34871e-02,4.31593e+01
2.40955e-02,4.06766e+01
2.47196e-02,3.83317e+01
2.53600e-02,3.61172e+01
2.60169e-02,3.40259e+01
2.66908e-02,3.20511e+01
2.73822e-02,3.01865e+01
2.80915e-02,2.84262e+01
2.88191e-02,2.67644e+01
2.95656e-02,2.51958e+01
3.03315e-02,2.37153e+01
3.11172e-02,2.23180e+01
3.19232e-02,2.09996e+01
3.27502e-02,1.97556e+01
3.35985e-02,1.85819e+01
3.44688e-02,1.74748e+01
3.53617e-02,1.64306e+01
3.62777e-02,1.54458e+01
3.72174e-02,1.45172e+01
3.81814e-02,1.36416e+01
3.91705e-02,1.28163e+01
4.01851e-02,1.20383e+01
4.12260e-02,1.13051e+01
4.22939e-02,1.06142e+01
4.33895e-02,9.96329e+00
4.45134e-02,9.35013e+00
4.56665e-02,8.77264e+00
4.68494e-02,8.22883e+00
4.80629e-02,7.71684e+00
4.93079e-02,7.23487e+00
5.05852e-02,6.78127e+00
5.18955e-02,6.35444e+00
5.32398e-02,5.95288e+00
5.46189e-02,5.57518e+00
5.60337e-02,5.21999e+00
5.74851e-02,4.88604e+00
5.89742e-02,4.57214e+00
6.05018e-02,4.27714e+00
6.20690e-02,3.99997e+00
6.36768e-02,3.73963e+00
6.53263e-02,3.49514e+00
6.70185e-02,3.26561e+00
6.87545e-02,3.05016e+00
7.05354e-02,2.84801e+00
7.23625e-02,2.65837e+00
7.42370e-02,2.48052e+00
7.61600e-02,2.31377e+00
7.81328e-02,2.15749e+00
8.01567e-02,2.01105e+00
8.22330e-02,1.87388e+00
8.43631e-02,1.74544e+00
8.65484e-02,1.62520e+00
8.87903e-02,1.51269e+00
9.10903e-02,1.40743e+00
9.34498e-02,1.30900e+00
9.58705e-02,1.21699e+00
9.83539e-02,1.13100e+00
1.00902e-01,1.05067e+00
1.03515e-01,9.75664e-01
1.06197e-01,9.05645e-01
1.08948e-01,8.40311e-01
1.11770e-01,7.79370e-01
1.14665e-01,7.22550e-01
1.17635e-01,6.69594e-01
1.20682e-01,6.20257e-01
1.23808e-01,5.74312e-01
1.27015e-01,5.31543e-01
1.30305e-01,4.91747e-01
1.33681e-01,4.54733e-01
1.37144e-01,4.20321e-01
1.40696e-01,3.88341e-01
1.44341e-01,3.58635e-01
1.48080e-01,3.31052e-01
1.51915e-01,3.05452e-01
1.55850e-01,2.81703e-01
1.59887e-01,2.59681e-01
1.64029e-01,2.39269e-01
1.68278e-01,2.20357e-01
1.72637e-01,2.02844e-01
1.77109e-01,1.86632e-01
1.81697e-01,1.71631e-01
1.86403e-01,1.57758e-01
1.91232e-01,1.44933e-01
1.96185e-01,1.33082e-01
2.01267e-01,1.22136e-01
2.06481e-01,1.12030e-01
2.11829e-01,1.02704e-01
2.17316e-01,9.41002e-02
2.22945e-01,8.61673e-02
2.28720e-01,7.88557e-02
2.34645e-01,7.21194e-02
2.40723e-01,6.59158e-02
2.46959e-01,6.02051e-02
2.53356e-01,5.49502e-02
2.59919e-01,5.01166e-02
2.66651e-01,4.56724e-02
2.73559e-01,4.15876e-02
2.80645e-01,3.78347e-02
2.87914e-01,3.43880e-02
2.95372e-01,3.12237e-02
3.03023e-01,2.83196e-02
3.10873e-01,2.56553e-02
3.18925e-01,2.32119e-02
3.27187e-01,2.09719e-02
3.35662e-01,1.89189e-02
3.44357e-01,1.70380e-02
3.53277e-01,1.53152e-02
3.62428e-01,1.37379e-02
3.71816e-01,1.22941e-02
3.81447e-01,1.09730e-02
3.91328e-01,9.76444e-03
4.01465e-01,8.65919e-03
4.11864e-01,7.64869e-03
4.22533e-01,6.72506e-03
4.33478e-01,5.88106e-03
4.44706e-01,5.11002e-03
4.56226e-01,4.40581e-03
4.68043e-01,3.76280e-03
4.80167e-01,3.17579e-03
4.92605e-01,2.64004e-03
5.05365e-01,2.15118e-03
5.18456e-01,1.70520e-03
5.31886e-01,1.29842e-03
5.45664e-01,9.27472e-04
5.59798e-01,5.89269e-04
5.74299e-01,2.80976e-04
5.89175e-01,0.00000e+00
