m1=38891.785, m2=87.945, gsp=2.090, rhosp=5569.216
fGW[Hz],dPh[rad]
1.69196e-03,2.74732e+02
1.72808e-03,2.61477e+02
1.76496e-03,2.48851e+02
1.80264e-03,2.36826e+02
1.84112e-03,2.25372e+02
1.88042e-03,2.14463e+02
1.92056e-03,2.04074e+02
1.96155e-03,1.94179e+02
2.00343e-03,1.84756e+02
2.04619e-03,1.75781e+02
2.08987e-03,1.67235e+02
2.13448e-03,1.59096e+02
2.18004e-03,1.51346e+02
2.22658e-03,1.43966e+02
2.27411e-03,1.36939e+02
2.32265e-03,1.30248e+02
2.37223e-03,1.23876e+02
2.42287e-03,1.17810e+02
2.47458e-03,1.12035e+02
2.52741e-03,1.06536e+02
2.58136e-03,1.01301e+02
2.63646e-03,9.63168e+01
2.69274e-03,9.15724e+01
2.75021e-03,8.70559e+01
2.80892e-03,8.27567e+01
2.86888e-03,7.86645e+01
2.93012e-03,7.47694e+01
2.99266e-03,7.10620e+01
3.05655e-03,6.75336e+01
3.12179e-03,6.41755e+01
3.18843e-03,6.09798e+01
3.25649e-03,5.79386e+01
3.32600e-03,5.50447e+01
3.39700e-03,5.22911e+01
3.46951e-03,4.96710e+01
3.54357e-03,4.71782e+01
3.61921e-03,4.48065e+01
3.69647e-03,4.25503e+01
3.77537e-03,4.04040e+01
3.85596e-03,3.83623e+01
3.93827e-03,3.64203e+01
4.02234e-03,3.45733e+01
4.10820e-03,3.28166e+01
4.19589e-03,3.11460e+01
4.28546e-03,2.95574e+01
4.37693e-03,2.80468e+01
4.47036e-03,2.66105e+01
4.56579e-03,2.52450e+01
4.66325e-03,2.39468e+01
4.76279e-03,2.27128e+01
4.86446e-03,2.15398e+01
4.96829e-03,2.04249e+01
5.07434e-03,1.93653e+01
5.18266e-03,1.83584e+01
5.29329e-03,1.74016e+01
5.40628e-03,1.64925e+01
5.52168e-03,1.56289e+01
5.63955e-03,1.48084e+01
5.75993e-03,1.40291e+01
5.88288e-03,1.32889e+01
6.00846e-03,1.25859e+01
6.13671e-03,1.19184e+01
6.26771e-03,1.12846e+01
6.40150e-03,1.06829e+01
6.53814e-03,1.01117e+01
6.67771e-03,9.56954e+00
6.82025e-03,9.05499e+00
6.96583e-03,8.56670e+00
7.11453e-03,8.10339e+00
7.26639e-03,7.66384e+00
7.42150e-03,7.24688e+00
7.57992e-03,6.85141e+00
7.74172e-03,6.47636e+00
7.90698e-03,6.12074e+00
8.07576e-03,5.78358e+00
8.24814e-03,5.46397e+00
8.42421e-03,5.16104e+00
8.60403e-03,4.87396e+00
8.78769e-03,4.60195e+00
8.97527e-03,4.34426e+00
9.16686e-03,4.10017e+00
9.36254e-03,3.86900e+00
9.56239e-03,3.65010e+00
9.76651e-03,3.44287e+00
9.97498e-03,3.24671e+00
1.01879e-02,3.06106e+00
1.04054e-02,2.88539e+00
1.06275e-02,2.71920e+00
1.08543e-02,2.56201e+00
1.10860e-02,2.41335e+00
1.13227e-02,2.27280e+00
1.15644e-02,2.13993e+00
1.18112e-02,2.01435e+00
1.20634e-02,1.89570e+00
1.23209e-02,1.78360e+00
1.25839e-02,1.67772e+00
1.28525e-02,1.57774e+00
1.31268e-02,1.48335e+00
1.34070e-02,1.39425e+00
1.36932e-02,1.31018e+00
1.39855e-02,1.23086e+00
1.42840e-02,1.15605e+00
1.45889e-02,1.08550e+00
1.49004e-02,1.01899e+00
1.52184e-02,9.56306e-01
1.55433e-02,8.97240e-01
1.58751e-02,8.41597e-01
1.62139e-02,7.89193e-01
1.65600e-02,7.39852e-01
1.69135e-02,6.93408e-01
1.72746e-02,6.49703e-01
1.76433e-02,6.08585e-01
1.80199e-02,5.69913e-01
1.84046e-02,5.33551e-01
1.87974e-02,4.99370e-01
1.91987e-02,4.67249e-01
1.96085e-02,4.37072e-01
2.00271e-02,4.08730e-01
2.04546e-02,3.82118e-01
2.08912e-02,3.57138e-01
2.13371e-02,3.33698e-01
2.17926e-02,3.11708e-01
2.22578e-02,2.91084e-01
2.27329e-02,2.71749e-01
2.32181e-02,2.53626e-01
2.37137e-02,2.36644e-01
2.42199e-02,2.20737e-01
2.47369e-02,2.05840e-01
2.52650e-02,1.91895e-01
2.58043e-02,1.78843e-01
2.63551e-02,1.66631e-01
2.69177e-02,1.55209e-01
2.74923e-02,1.44529e-01
2.80791e-02,1.34546e-01
2.86785e-02,1.25216e-01
2.92906e-02,1.16500e-01
2.99159e-02,1.08359e-01
3.05545e-02,1.00758e-01
3.12067e-02,9.36635e-02
3.18728e-02,8.70432e-02
3.25532e-02,8.08672e-02
3.32481e-02,7.51075e-02
3.39578e-02,6.97374e-02
3.46826e-02,6.47320e-02
3.54230e-02,6.00680e-02
3.61791e-02,5.57230e-02
3.69514e-02,5.16766e-02
3.77401e-02,4.79091e-02
3.85457e-02,4.44023e-02
3.93685e-02,4.11391e-02
4.02089e-02,3.81032e-02
4.10672e-02,3.52796e-02
4.19438e-02,3.26541e-02
4.28391e-02,3.02134e-02
4.37536e-02,2.79451e-02
4.46875e-02,2.58376e-02
4.56414e-02,2.38798e-02
4.66157e-02,2.20617e-02
4.76108e-02,2.03735e-02
4.86271e-02,1.88065e-02
4.96651e-02,1.73522e-02
5.07252e-02,1.60028e-02
5.18080e-02,1.47511e-02
5.29139e-02,1.35901e-02
5.40434e-02,1.25137e-02
5.51970e-02,1.15157e-02
5.63752e-02,1.05907e-02
5.75786e-02,9.73356e-03
5.88077e-02,8.93939e-03
6.00630e-02,8.20372e-03
6.13451e-02,7.52237e-03
6.26545e-02,6.89144e-03
6.39920e-02,6.30732e-03
6.53579e-02,5.76662e-03
6.67531e-02,5.26619e-03
6.81780e-02,4.80313e-03
6.96333e-02,4.37470e-03
7.11197e-02,3.97838e-03
7.26378e-02,3.61182e-03
7.41883e-02,3.27284e-03
7.57720e-02,2.95940e-03
7.73894e-02,2.66964e-03
7.90413e-02,2.40178e-03
8.07285e-02,2.15422e-03
8.24518e-02,1.92545e-03
8.42118e-02,1.71406e-03
8.60094e-02,1.51876e-03
8.78453e-02,1.33836e-03
8.97205e-02,1.17172e-03
9.16356e-02,1.01783e-03
9.35917e-02,8.75713e-04
9.55895e-02,7.44494e-04
9.76299e-02,6.23348e-04
9.97139e-02,5.11512e-04
1.01842e-01,4.08283e-04
1.04016e-01,3.13006e-04
1.06237e-01,2.25078e-04
1.08504e-01,1.43940e-04
1.10821e-01,6.90732e-05
1.13186e-01,0.00000e+00
