m1=8741.439, m2=30.365, gsp=2.064, rhosp=4673.235
fGW[Hz],dPh[rad]
3.66197e-03,1.62637e+02
3.75372e-03,1.53598e+02
3.84776e-03,1.45058e+02
3.94417e-03,1.36990e+02
4.04298e-03,1.29369e+02
4.14428e-03,1.22169e+02
4.24811e-03,1.15368e+02
4.35454e-03,1.08943e+02
4.46364e-03,1.02874e+02
4.57547e-03,9.71404e+01
4.69011e-03,9.17246e+01
4.80762e-03,8.66087e+01
4.92807e-03,8.17762e+01
5.05153e-03,7.72115e+01
5.17810e-03,7.28997e+01
5.30783e-03,6.88268e+01
5.44081e-03,6.49798e+01
5.57713e-03,6.13460e+01
5.71686e-03,5.79138e+01
5.86009e-03,5.46720e+01
6.00691e-03,5.16100e+01
6.15741e-03,4.87180e+01
6.31168e-03,4.59866e+01
6.46981e-03,4.34068e+01
6.63191e-03,4.09703e+01
6.79806e-03,3.86692e+01
6.96838e-03,3.64960e+01
7.14297e-03,3.44436e+01
7.32193e-03,3.25054e+01
7.50537e-03,3.06750e+01
7.69342e-03,2.89464e+01
7.88617e-03,2.73141e+01
8.08375e-03,2.57727e+01
8.28628e-03,2.43171e+01
8.49389e-03,2.29427e+01
8.70669e-03,2.16449e+01
8.92483e-03,2.04195e+01
9.14844e-03,1.92625e+01
9.37764e-03,1.81701e+01
9.61259e-03,1.71387e+01
9.85343e-03,1.61650e+01
1.01003e-02,1.52456e+01
1.03534e-02,1.43778e+01
1.06127e-02,1.35584e+01
1.08786e-02,1.27850e+01
1.11512e-02,1.20549e+01
1.14306e-02,1.13658e+01
1.17170e-02,1.07153e+01
1.20105e-02,1.01013e+01
1.23114e-02,9.52179e+00
1.26199e-02,8.97487e+00
1.29361e-02,8.45871e+00
1.32602e-02,7.97161e+00
1.35924e-02,7.51194e+00
1.39329e-02,7.07819e+00
1.42820e-02,6.66891e+00
1.46398e-02,6.28274e+00
1.50066e-02,5.91839e+00
1.53826e-02,5.57466e+00
1.57680e-02,5.25038e+00
1.61631e-02,4.94448e+00
1.65680e-02,4.65592e+00
1.69831e-02,4.38376e+00
1.74086e-02,4.12706e+00
1.78448e-02,3.88496e+00
1.82919e-02,3.65666e+00
1.87501e-02,3.44137e+00
1.92199e-02,3.23837e+00
1.97014e-02,3.04698e+00
2.01950e-02,2.86654e+00
2.07010e-02,2.69644e+00
2.12197e-02,2.53610e+00
2.17513e-02,2.38497e+00
2.22963e-02,2.24253e+00
2.28549e-02,2.10831e+00
2.34275e-02,1.98183e+00
2.40144e-02,1.86265e+00
2.46161e-02,1.75038e+00
2.52328e-02,1.64462e+00
2.58650e-02,1.54500e+00
2.65131e-02,1.45117e+00
2.71773e-02,1.36281e+00
2.78582e-02,1.27962e+00
2.85562e-02,1.20128e+00
2.92716e-02,1.12755e+00
3.00050e-02,1.05814e+00
3.07568e-02,9.92812e-01
3.15274e-02,9.31341e-01
3.23172e-02,8.73503e-01
3.31269e-02,8.19091e-01
3.39569e-02,7.67910e-01
3.48077e-02,7.19775e-01
3.56797e-02,6.74511e-01
3.65737e-02,6.31955e-01
3.74900e-02,5.91950e-01
3.84293e-02,5.54351e-01
3.93921e-02,5.19018e-01
4.03790e-02,4.85821e-01
4.13907e-02,4.54636e-01
4.24277e-02,4.25347e-01
4.34907e-02,3.97845e-01
4.45803e-02,3.72024e-01
4.56972e-02,3.47788e-01
4.68421e-02,3.25043e-01
4.80157e-02,3.03704e-01
4.92187e-02,2.83686e-01
5.04518e-02,2.64913e-01
5.17159e-02,2.47311e-01
5.30116e-02,2.30811e-01
5.43397e-02,2.15349e-01
5.57012e-02,2.00861e-01
5.70967e-02,1.87291e-01
5.85272e-02,1.74583e-01
5.99936e-02,1.62687e-01
6.14967e-02,1.51552e-01
6.30374e-02,1.41134e-01
6.46168e-02,1.31389e-01
6.62357e-02,1.22276e-01
6.78951e-02,1.13757e-01
6.95962e-02,1.05795e-01
7.13399e-02,9.83561e-02
7.31272e-02,9.14086e-02
7.49594e-02,8.49219e-02
7.68374e-02,7.88674e-02
7.87625e-02,7.32181e-02
8.07359e-02,6.79488e-02
8.27586e-02,6.30355e-02
8.48321e-02,5.84558e-02
8.69575e-02,5.41886e-02
8.91361e-02,5.02140e-02
9.13693e-02,4.65133e-02
9.36585e-02,4.30688e-02
9.60051e-02,3.98640e-02
9.84104e-02,3.68834e-02
1.00876e-01,3.41124e-02
1.03403e-01,3.15371e-02
1.05994e-01,2.91448e-02
1.08650e-01,2.69232e-02
1.11372e-01,2.48611e-02
1.14162e-01,2.29476e-02
1.17022e-01,2.11729e-02
1.19954e-01,1.95275e-02
1.22960e-01,1.80026e-02
1.26040e-01,1.65900e-02
1.29198e-01,1.52819e-02
1.32435e-01,1.40711e-02
1.35753e-01,1.29508e-02
1.39154e-01,1.19147e-02
1.42641e-01,1.09568e-02
1.46214e-01,1.00716e-02
1.49878e-01,9.25388e-03
1.53633e-01,8.49884e-03
1.57482e-01,7.80195e-03
1.61427e-01,7.15898e-03
1.65472e-01,6.56601e-03
1.69618e-01,6.01935e-03
1.73867e-01,5.51560e-03
1.78223e-01,5.05156e-03
1.82689e-01,4.62428e-03
1.87266e-01,4.23099e-03
1.91957e-01,3.86913e-03
1.96767e-01,3.53631e-03
2.01697e-01,3.23031e-03
2.06750e-01,2.94908e-03
2.11930e-01,2.69071e-03
2.17240e-01,2.45342e-03
2.22682e-01,2.23557e-03
2.28261e-01,2.03564e-03
2.33980e-01,1.85221e-03
2.39843e-01,1.68398e-03
2.45852e-01,1.52975e-03
2.52011e-01,1.38839e-03
2.58325e-01,1.25888e-03
2.64797e-01,1.14024e-03
2.71432e-01,1.03162e-03
2.78232e-01,9.32181e-04
2.85203e-01,8.41185e-04
2.92348e-01,7.57936e-04
2.99673e-01,6.81797e-04
3.07181e-01,6.12179e-04
3.14877e-01,5.48541e-04
3.22766e-01,4.90385e-04
3.30853e-01,4.37251e-04
3.39142e-01,3.88719e-04
3.47639e-01,3.44400e-04
3.56349e-01,3.03939e-04
3.65277e-01,2.67007e-04
3.74428e-01,2.33306e-04
3.83809e-01,2.02558e-04
3.93425e-01,1.74511e-04
4.03282e-01,1.48933e-04
4.13386e-01,1.25612e-04
4.23743e-01,1.04352e-04
4.34360e-01,8.49744e-05
4.45242e-01,6.73165e-05
4.56398e-01,5.12281e-05
4.67832e-01,3.65724e-05
4.79553e-01,2.32239e-05
4.91568e-01,1.10680e-05
5.03884e-01,0.00000e+00
