m1=139024.049, m2=10.613, gsp=2.360, rhosp=109.468
fGW[Hz],dPh[rad]
2.71863e-03,3.74335e+04
2.75236e-03,3.58707e+04
2.78651e-03,3.43710e+04
2.82108e-03,3.29322e+04
2.85609e-03,3.15517e+04
2.89152e-03,3.02273e+04
2.92740e-03,2.89569e+04
2.96372e-03,2.77383e+04
3.00050e-03,2.65695e+04
3.03773e-03,2.54486e+04
3.07542e-03,2.43736e+04
3.11358e-03,2.33428e+04
3.15221e-03,2.23544e+04
3.19132e-03,2.14068e+04
3.23092e-03,2.04982e+04
3.27101e-03,1.96273e+04
3.31159e-03,1.87923e+04
3.35268e-03,1.79920e+04
3.39428e-03,1.72250e+04
3.43640e-03,1.64898e+04
3.47903e-03,1.57853e+04
3.52220e-03,1.51101e+04
3.56590e-03,1.44632e+04
3.61015e-03,1.38433e+04
3.65494e-03,1.32494e+04
3.70029e-03,1.26804e+04
3.74621e-03,1.21354e+04
3.79269e-03,1.16132e+04
3.83975e-03,1.11130e+04
3.88739e-03,1.06339e+04
3.93562e-03,1.01751e+04
3.98445e-03,9.73565e+03
4.03389e-03,9.31480e+03
4.08394e-03,8.91179e+03
4.13462e-03,8.52588e+03
4.18592e-03,8.15636e+03
4.23786e-03,7.80256e+03
4.29044e-03,7.46382e+03
4.34367e-03,7.13953e+03
4.39757e-03,6.82907e+03
4.45213e-03,6.53187e+03
4.50737e-03,6.24739e+03
4.56330e-03,5.97508e+03
4.61992e-03,5.71445e+03
4.67724e-03,5.46499e+03
4.73528e-03,5.22625e+03
4.79403e-03,4.99777e+03
4.85351e-03,4.77912e+03
4.91374e-03,4.56989e+03
4.97470e-03,4.36967e+03
5.03643e-03,4.17810e+03
5.09892e-03,3.99480e+03
5.16219e-03,3.81942e+03
5.22624e-03,3.65163e+03
5.29108e-03,3.49110e+03
5.35673e-03,3.33753e+03
5.42320e-03,3.19063e+03
5.49049e-03,3.05010e+03
5.55861e-03,2.91567e+03
5.62758e-03,2.78709e+03
5.69741e-03,2.66410e+03
5.76810e-03,2.54647e+03
5.83967e-03,2.43396e+03
5.91213e-03,2.32637e+03
5.98548e-03,2.22346e+03
6.05975e-03,2.12505e+03
6.13494e-03,2.03095e+03
6.21106e-03,1.94095e+03
6.28812e-03,1.85490e+03
6.36615e-03,1.77261e+03
6.44514e-03,1.69393e+03
6.52511e-03,1.61870e+03
6.60607e-03,1.54677e+03
6.68803e-03,1.47800e+03
6.77102e-03,1.41225e+03
6.85503e-03,1.34939e+03
6.94009e-03,1.28929e+03
7.02620e-03,1.23184e+03
7.11338e-03,1.17692e+03
7.20164e-03,1.12442e+03
7.29099e-03,1.07423e+03
7.38146e-03,1.02626e+03
7.47305e-03,9.80398e+02
7.56577e-03,9.36564e+02
7.65964e-03,8.94667e+02
7.75468e-03,8.54622e+02
7.85090e-03,8.16347e+02
7.94831e-03,7.79765e+02
8.04693e-03,7.44802e+02
8.14678e-03,7.11387e+02
8.24786e-03,6.79453e+02
8.35020e-03,6.48933e+02
8.45381e-03,6.19767e+02
8.55870e-03,5.91894e+02
8.66489e-03,5.65258e+02
8.77241e-03,5.39804e+02
8.88125e-03,5.15480e+02
8.99145e-03,4.92238e+02
9.10301e-03,4.70028e+02
9.21596e-03,4.48805e+02
9.33031e-03,4.28527e+02
9.44608e-03,4.09151e+02
9.56328e-03,3.90637e+02
9.68194e-03,3.72947e+02
9.80207e-03,3.56045e+02
9.92370e-03,3.39897e+02
1.00468e-02,3.24468e+02
1.01715e-02,3.09727e+02
1.02977e-02,2.95643e+02
1.04255e-02,2.82188e+02
1.05548e-02,2.69333e+02
1.06858e-02,2.57052e+02
1.08184e-02,2.45319e+02
1.09526e-02,2.34111e+02
1.10885e-02,2.23403e+02
1.12261e-02,2.13174e+02
1.13654e-02,2.03401e+02
1.15064e-02,1.94066e+02
1.16492e-02,1.85149e+02
1.17937e-02,1.76630e+02
1.19400e-02,1.68493e+02
1.20882e-02,1.60720e+02
1.22382e-02,1.53294e+02
1.23900e-02,1.46202e+02
1.25437e-02,1.39427e+02
1.26994e-02,1.32955e+02
1.28570e-02,1.26774e+02
1.30165e-02,1.20870e+02
1.31780e-02,1.15230e+02
1.33415e-02,1.09843e+02
1.35070e-02,1.04698e+02
1.36746e-02,9.97837e+01
1.38443e-02,9.50899e+01
1.40161e-02,9.06067e+01
1.41900e-02,8.63247e+01
1.43661e-02,8.22350e+01
1.45443e-02,7.83289e+01
1.47248e-02,7.45983e+01
1.49075e-02,7.10352e+01
1.50924e-02,6.76322e+01
1.52797e-02,6.43821e+01
1.54693e-02,6.12781e+01
1.56612e-02,5.83136e+01
1.58555e-02,5.54824e+01
1.60523e-02,5.27785e+01
1.62514e-02,5.01962e+01
1.64531e-02,4.77300e+01
1.66572e-02,4.53747e+01
1.68639e-02,4.31255e+01
1.70732e-02,4.09774e+01
1.72850e-02,3.89260e+01
1.74995e-02,3.69670e+01
1.77166e-02,3.50961e+01
1.79364e-02,3.33095e+01
1.81590e-02,3.16033e+01
1.83843e-02,2.99739e+01
1.86124e-02,2.84180e+01
1.88433e-02,2.69321e+01
1.90771e-02,2.55131e+01
1.93138e-02,2.41581e+01
1.95535e-02,2.28641e+01
1.97961e-02,2.16285e+01
2.00417e-02,2.04485e+01
2.02904e-02,1.93218e+01
2.05422e-02,1.82458e+01
2.07970e-02,1.72183e+01
2.10551e-02,1.62372e+01
2.13163e-02,1.53003e+01
2.15808e-02,1.44056e+01
2.18486e-02,1.35514e+01
2.21197e-02,1.27356e+01
2.23941e-02,1.19566e+01
2.26720e-02,1.12128e+01
2.29533e-02,1.05026e+01
2.32381e-02,9.82434e+00
2.35264e-02,9.17673e+00
2.38183e-02,8.55835e+00
2.41139e-02,7.96788e+00
2.44131e-02,7.40406e+00
2.47160e-02,6.86569e+00
2.50227e-02,6.35163e+00
2.53331e-02,5.86077e+00
2.56475e-02,5.39208e+00
2.59657e-02,4.94455e+00
2.62879e-02,4.51723e+00
2.66140e-02,4.10920e+00
2.69443e-02,3.71961e+00
2.72786e-02,3.34761e+00
2.76170e-02,2.99241e+00
2.79597e-02,2.65326e+00
2.83066e-02,2.32943e+00
2.86578e-02,2.02023e+00
2.90134e-02,1.72500e+00
2.93734e-02,1.44310e+00
2.97379e-02,1.17395e+00
3.01069e-02,9.16958e-01
3.04804e-02,6.71579e-01
3.08586e-02,4.37290e-01
3.12415e-02,2.13590e-01
3.16291e-02,0.00000e+00
