m1=93412.933, m2=3.078, gsp=2.208, rhosp=868.593
fGW[Hz],dPh[rad]
4.77638e-03,5.56369e+03
4.83162e-03,5.33118e+03
4.88749e-03,5.10823e+03
4.94401e-03,4.89447e+03
5.00118e-03,4.68952e+03
5.05901e-03,4.49302e+03
5.11751e-03,4.30464e+03
5.17669e-03,4.12404e+03
5.23655e-03,3.95092e+03
5.29710e-03,3.78496e+03
5.35836e-03,3.62588e+03
5.42032e-03,3.47340e+03
5.48300e-03,3.32724e+03
5.54641e-03,3.18716e+03
5.61054e-03,3.05289e+03
5.67542e-03,2.92422e+03
5.74105e-03,2.80090e+03
5.80744e-03,2.68271e+03
5.87460e-03,2.56946e+03
5.94253e-03,2.46093e+03
6.01125e-03,2.35692e+03
6.08076e-03,2.25727e+03
6.15108e-03,2.16178e+03
6.22221e-03,2.07029e+03
6.29416e-03,1.98262e+03
6.36694e-03,1.89863e+03
6.44057e-03,1.81816e+03
6.51505e-03,1.74106e+03
6.59038e-03,1.66720e+03
6.66659e-03,1.59644e+03
6.74369e-03,1.52865e+03
6.82167e-03,1.46372e+03
6.90055e-03,1.40151e+03
6.98035e-03,1.34193e+03
7.06107e-03,1.28485e+03
7.14272e-03,1.23018e+03
7.22532e-03,1.17781e+03
7.30887e-03,1.12765e+03
7.39339e-03,1.07961e+03
7.47888e-03,1.03360e+03
7.56537e-03,9.89527e+02
7.65285e-03,9.47321e+02
7.74135e-03,9.06900e+02
7.83087e-03,8.68188e+02
7.92142e-03,8.31116e+02
8.01302e-03,7.95613e+02
8.10569e-03,7.61614e+02
8.19942e-03,7.29057e+02
8.29423e-03,6.97880e+02
8.39015e-03,6.68025e+02
8.48717e-03,6.39438e+02
8.58531e-03,6.12064e+02
8.68459e-03,5.85853e+02
8.78502e-03,5.60756e+02
8.88661e-03,5.36726e+02
8.98937e-03,5.13718e+02
9.09332e-03,4.91688e+02
9.19847e-03,4.70596e+02
9.30484e-03,4.50402e+02
9.41244e-03,4.31068e+02
9.52129e-03,4.12558e+02
9.63139e-03,3.94836e+02
9.74276e-03,3.77870e+02
9.85543e-03,3.61628e+02
9.96939e-03,3.46079e+02
1.00847e-02,3.31193e+02
1.02013e-02,3.16942e+02
1.03193e-02,3.03301e+02
1.04386e-02,2.90242e+02
1.05593e-02,2.77740e+02
1.06814e-02,2.65774e+02
1.08049e-02,2.54319e+02
1.09299e-02,2.43353e+02
1.10563e-02,2.32857e+02
1.11841e-02,2.22810e+02
1.13134e-02,2.13193e+02
1.14443e-02,2.03988e+02
1.15766e-02,1.95177e+02
1.17105e-02,1.86743e+02
1.18459e-02,1.78671e+02
1.19829e-02,1.70944e+02
1.21214e-02,1.63549e+02
1.22616e-02,1.56471e+02
1.24034e-02,1.49697e+02
1.25468e-02,1.43213e+02
1.26919e-02,1.37007e+02
1.28387e-02,1.31068e+02
1.29872e-02,1.25383e+02
1.31373e-02,1.19943e+02
1.32893e-02,1.14736e+02
1.34429e-02,1.09753e+02
1.35984e-02,1.04984e+02
1.37556e-02,1.00420e+02
1.39147e-02,9.60521e+01
1.40756e-02,9.18720e+01
1.42384e-02,8.78716e+01
1.44030e-02,8.40432e+01
1.45696e-02,8.03794e+01
1.47380e-02,7.68733e+01
1.49085e-02,7.35180e+01
1.50809e-02,7.03072e+01
1.52553e-02,6.72345e+01
1.54317e-02,6.42941e+01
1.56101e-02,6.14802e+01
1.57906e-02,5.87876e+01
1.59732e-02,5.62109e+01
1.61579e-02,5.37452e+01
1.63448e-02,5.13858e+01
1.65338e-02,4.91280e+01
1.67250e-02,4.69675e+01
1.69184e-02,4.49001e+01
1.71140e-02,4.29218e+01
1.73119e-02,4.10288e+01
1.75121e-02,3.92175e+01
1.77146e-02,3.74842e+01
1.79195e-02,3.58257e+01
1.81267e-02,3.42388e+01
1.83363e-02,3.27203e+01
1.85484e-02,3.12673e+01
1.87628e-02,2.98770e+01
1.89798e-02,2.85467e+01
1.91993e-02,2.72739e+01
1.94213e-02,2.60560e+01
1.96459e-02,2.48906e+01
1.98731e-02,2.37756e+01
2.01029e-02,2.27087e+01
2.03354e-02,2.16879e+01
2.05705e-02,2.07112e+01
2.08084e-02,1.97766e+01
2.10490e-02,1.88825e+01
2.12924e-02,1.80269e+01
2.15386e-02,1.72084e+01
2.17877e-02,1.64252e+01
2.20396e-02,1.56758e+01
2.22945e-02,1.49589e+01
2.25523e-02,1.42729e+01
2.28131e-02,1.36166e+01
2.30769e-02,1.29886e+01
2.33438e-02,1.23878e+01
2.36137e-02,1.18130e+01
2.38868e-02,1.12630e+01
2.41630e-02,1.07368e+01
2.44424e-02,1.02334e+01
2.47251e-02,9.75170e+00
2.50110e-02,9.29087e+00
2.53002e-02,8.84998e+00
2.55928e-02,8.42816e+00
2.58887e-02,8.02459e+00
2.61881e-02,7.63848e+00
2.64909e-02,7.26907e+00
2.67973e-02,6.91566e+00
2.71071e-02,6.57753e+00
2.74206e-02,6.25404e+00
2.77377e-02,5.94455e+00
2.80584e-02,5.64846e+00
2.83829e-02,5.36518e+00
2.87111e-02,5.09416e+00
2.90431e-02,4.83488e+00
2.93790e-02,4.58682e+00
2.97187e-02,4.34950e+00
3.00624e-02,4.12246e+00
3.04100e-02,3.90525e+00
3.07616e-02,3.69745e+00
3.11174e-02,3.49864e+00
3.14772e-02,3.30844e+00
3.18412e-02,3.12648e+00
3.22094e-02,2.95241e+00
3.25819e-02,2.78587e+00
3.29586e-02,2.62654e+00
3.33398e-02,2.47412e+00
3.37253e-02,2.32830e+00
3.41153e-02,2.18880e+00
3.45098e-02,2.05534e+00
3.49089e-02,1.92766e+00
3.53125e-02,1.80552e+00
3.57209e-02,1.68867e+00
3.61339e-02,1.57688e+00
3.65518e-02,1.46993e+00
3.69745e-02,1.36762e+00
3.74020e-02,1.26975e+00
3.78345e-02,1.17611e+00
3.82721e-02,1.08654e+00
3.87146e-02,1.00084e+00
3.91623e-02,9.18862e-01
3.96152e-02,8.40436e-01
4.00733e-02,7.65409e-01
4.05367e-02,6.93634e-01
4.10054e-02,6.24970e-01
4.14796e-02,5.59283e-01
4.19593e-02,4.96444e-01
4.24445e-02,4.36329e-01
4.29353e-02,3.78820e-01
4.34318e-02,3.23805e-01
4.39340e-02,2.71175e-01
4.44421e-02,2.20826e-01
4.49560e-02,1.72661e-01
4.54759e-02,1.26585e-01
4.60017e-02,8.25060e-02
4.65337e-02,4.03387e-02
4.70718e-02,0.00000e+00
