m1=7687.165, m2=3.046, gsp=2.207, rhosp=29.180
fGW[Hz],dPh[rad]
8.95311e-03,4.55385e+03
9.14212e-03,4.33171e+03
9.33511e-03,4.11998e+03
9.53219e-03,3.91820e+03
9.73342e-03,3.72591e+03
9.93890e-03,3.54268e+03
1.01487e-02,3.36808e+03
1.03630e-02,3.20173e+03
1.05817e-02,3.04325e+03
1.08051e-02,2.89227e+03
1.10332e-02,2.74846e+03
1.12662e-02,2.61148e+03
1.15040e-02,2.48101e+03
1.17469e-02,2.35677e+03
1.19948e-02,2.23846e+03
1.22481e-02,2.12581e+03
1.25066e-02,2.01855e+03
1.27707e-02,1.91645e+03
1.30403e-02,1.81926e+03
1.33155e-02,1.72675e+03
1.35966e-02,1.63871e+03
1.38837e-02,1.55493e+03
1.41768e-02,1.47521e+03
1.44761e-02,1.39936e+03
1.47817e-02,1.32721e+03
1.50937e-02,1.25858e+03
1.54124e-02,1.19330e+03
1.57377e-02,1.13123e+03
1.60700e-02,1.07220e+03
1.64092e-02,1.01609e+03
1.67556e-02,9.62742e+02
1.71094e-02,9.12038e+02
1.74705e-02,8.63851e+02
1.78394e-02,8.18061e+02
1.82160e-02,7.74557e+02
1.86005e-02,7.33230e+02
1.89932e-02,6.93977e+02
1.93942e-02,6.56698e+02
1.98036e-02,6.21302e+02
2.02217e-02,5.87697e+02
2.06486e-02,5.55798e+02
2.10845e-02,5.25524e+02
2.15296e-02,4.96796e+02
2.19841e-02,4.69541e+02
2.24482e-02,4.43687e+02
2.29221e-02,4.19167e+02
2.34060e-02,3.95916e+02
2.39001e-02,3.73873e+02
2.44047e-02,3.52978e+02
2.49199e-02,3.33177e+02
2.54460e-02,3.14415e+02
2.59831e-02,2.96641e+02
2.65317e-02,2.79807e+02
2.70918e-02,2.63867e+02
2.76637e-02,2.48775e+02
2.82477e-02,2.34491e+02
2.88440e-02,2.20974e+02
2.94530e-02,2.08185e+02
3.00747e-02,1.96088e+02
3.07096e-02,1.84649e+02
3.13579e-02,1.73833e+02
3.20199e-02,1.63610e+02
3.26959e-02,1.53950e+02
3.33862e-02,1.44823e+02
3.40910e-02,1.36202e+02
3.48107e-02,1.28061e+02
3.55455e-02,1.20376e+02
3.62959e-02,1.13123e+02
3.70622e-02,1.06279e+02
3.78446e-02,9.98229e+01
3.86435e-02,9.37344e+01
3.94593e-02,8.79940e+01
4.02923e-02,8.25834e+01
4.11429e-02,7.74850e+01
4.20115e-02,7.26821e+01
4.28984e-02,6.81588e+01
4.38040e-02,6.39000e+01
4.47288e-02,5.98914e+01
4.56730e-02,5.61194e+01
4.66372e-02,5.25710e+01
4.76218e-02,4.92339e+01
4.86271e-02,4.60964e+01
4.96537e-02,4.31475e+01
5.07019e-02,4.03766e+01
5.17723e-02,3.77738e+01
5.28652e-02,3.53294e+01
5.39813e-02,3.30347e+01
5.51208e-02,3.08810e+01
5.62845e-02,2.88602e+01
5.74727e-02,2.69648e+01
5.86860e-02,2.51874e+01
5.99249e-02,2.35212e+01
6.11900e-02,2.19598e+01
6.24818e-02,2.04968e+01
6.38008e-02,1.91266e+01
6.51477e-02,1.78436e+01
6.65230e-02,1.66425e+01
6.79274e-02,1.55186e+01
6.93614e-02,1.44671e+01
7.08257e-02,1.34837e+01
7.23209e-02,1.25642e+01
7.38476e-02,1.17047e+01
7.54066e-02,1.09014e+01
7.69985e-02,1.01510e+01
7.86240e-02,9.45013e+00
8.02838e-02,8.79571e+00
8.19787e-02,8.18481e+00
8.37093e-02,7.61470e+00
8.54765e-02,7.08279e+00
8.72810e-02,6.58666e+00
8.91236e-02,6.12400e+00
9.10050e-02,5.69269e+00
9.29262e-02,5.29068e+00
9.48880e-02,4.91609e+00
9.68912e-02,4.56712e+00
9.89366e-02,4.24211e+00
1.01025e-01,3.93948e+00
1.03158e-01,3.65775e+00
1.05336e-01,3.39554e+00
1.07559e-01,3.15156e+00
1.09830e-01,2.92458e+00
1.12149e-01,2.71347e+00
1.14516e-01,2.51715e+00
1.16934e-01,2.33464e+00
1.19402e-01,2.16500e+00
1.21923e-01,2.00734e+00
1.24497e-01,1.86086e+00
1.27125e-01,1.72478e+00
1.29809e-01,1.59839e+00
1.32549e-01,1.48103e+00
1.35348e-01,1.37207e+00
1.38205e-01,1.27092e+00
1.41123e-01,1.17704e+00
1.44102e-01,1.08993e+00
1.47144e-01,1.00911e+00
1.50250e-01,9.34132e-01
1.53422e-01,8.64593e-01
1.56661e-01,8.00106e-01
1.59968e-01,7.40313e-01
1.63345e-01,6.84881e-01
1.66794e-01,6.33498e-01
1.70315e-01,5.85877e-01
1.73910e-01,5.41747e-01
1.77582e-01,5.00858e-01
1.81331e-01,4.62977e-01
1.85159e-01,4.27887e-01
1.89067e-01,3.95387e-01
1.93059e-01,3.65290e-01
1.97134e-01,3.37420e-01
2.01296e-01,3.11616e-01
2.05546e-01,2.87728e-01
2.09885e-01,2.65615e-01
2.14316e-01,2.45148e-01
2.18840e-01,2.26206e-01
2.23460e-01,2.08678e-01
2.28178e-01,1.92460e-01
2.32995e-01,1.77454e-01
2.37913e-01,1.63572e-01
2.42936e-01,1.50731e-01
2.48064e-01,1.38853e-01
2.53301e-01,1.27868e-01
2.58649e-01,1.17708e-01
2.64109e-01,1.08314e-01
2.69685e-01,9.96269e-02
2.75378e-01,9.15952e-02
2.81191e-01,8.41696e-02
2.87128e-01,7.73051e-02
2.93189e-01,7.09595e-02
2.99378e-01,6.50941e-02
3.05699e-01,5.96728e-02
3.12152e-01,5.46624e-02
3.18742e-01,5.00320e-02
3.25471e-01,4.57529e-02
3.32342e-01,4.17989e-02
3.39358e-01,3.81454e-02
3.46522e-01,3.47697e-02
3.53837e-01,3.16508e-02
3.61307e-01,2.87695e-02
3.68935e-01,2.61076e-02
3.76723e-01,2.36487e-02
3.84676e-01,2.13773e-02
3.92797e-01,1.92793e-02
4.01089e-01,1.73414e-02
4.09557e-01,1.55515e-02
4.18203e-01,1.38985e-02
4.27031e-01,1.23718e-02
4.36046e-01,1.09620e-02
4.45252e-01,9.65999e-03
4.54651e-01,8.45769e-03
4.64249e-01,7.34749e-03
4.74050e-01,6.32235e-03
4.84058e-01,5.37579e-03
4.94277e-01,4.50181e-03
5.04711e-01,3.69488e-03
5.15366e-01,2.94986e-03
5.26246e-01,2.26204e-03
5.37356e-01,1.62703e-03
5.48700e-01,1.04079e-03
5.60283e-01,4.99599e-04
5.72111e-01,0.00000e+00
