m1=28097.178, m2=15.849, gsp=2.138, rhosp=378.682
fGW[Hz],dPh[rad]
3.48881e-03,1.15817e+03
3.55614e-03,1.10455e+03
3.62477e-03,1.05330e+03
3.69472e-03,1.00433e+03
3.76602e-03,9.57544e+02
3.83870e-03,9.12838e+02
3.91278e-03,8.70126e+02
3.98829e-03,8.29322e+02
4.06525e-03,7.90345e+02
4.14370e-03,7.53114e+02
4.22367e-03,7.17556e+02
4.30518e-03,6.83597e+02
4.38826e-03,6.51167e+02
4.47294e-03,6.20202e+02
4.55926e-03,5.90637e+02
4.64725e-03,5.62411e+02
4.73693e-03,5.35466e+02
4.82835e-03,5.09746e+02
4.92152e-03,4.85199e+02
5.01650e-03,4.61772e+02
5.11331e-03,4.39417e+02
5.21199e-03,4.18087e+02
5.31257e-03,3.97737e+02
5.41509e-03,3.78323e+02
5.51959e-03,3.59806e+02
5.62611e-03,3.42145e+02
5.73468e-03,3.25303e+02
5.84535e-03,3.09244e+02
5.95816e-03,2.93932e+02
6.07314e-03,2.79336e+02
6.19034e-03,2.65423e+02
6.30980e-03,2.52162e+02
6.43157e-03,2.39526e+02
6.55568e-03,2.27486e+02
6.68220e-03,2.16015e+02
6.81115e-03,2.05088e+02
6.94259e-03,1.94681e+02
7.07657e-03,1.84771e+02
7.21313e-03,1.75334e+02
7.35233e-03,1.66350e+02
7.49422e-03,1.57798e+02
7.63884e-03,1.49659e+02
7.78626e-03,1.41914e+02
7.93652e-03,1.34545e+02
8.08968e-03,1.27535e+02
8.24580e-03,1.20867e+02
8.40492e-03,1.14527e+02
8.56712e-03,1.08498e+02
8.73245e-03,1.02766e+02
8.90097e-03,9.73182e+01
9.07274e-03,9.21410e+01
9.24783e-03,8.72219e+01
9.42630e-03,8.25487e+01
9.60821e-03,7.81102e+01
9.79363e-03,7.38952e+01
9.98262e-03,6.98933e+01
1.01753e-02,6.60944e+01
1.03716e-02,6.24890e+01
1.05718e-02,5.90678e+01
1.07758e-02,5.58221e+01
1.09838e-02,5.27436e+01
1.11957e-02,4.98242e+01
1.14118e-02,4.70563e+01
1.16320e-02,4.44325e+01
1.18565e-02,4.19460e+01
1.20853e-02,3.95900e+01
1.23185e-02,3.73581e+01
1.25562e-02,3.52443e+01
1.27985e-02,3.32428e+01
1.30455e-02,3.13481e+01
1.32973e-02,2.95548e+01
1.35539e-02,2.78579e+01
1.38155e-02,2.62526e+01
1.40821e-02,2.47343e+01
1.43538e-02,2.32987e+01
1.46308e-02,2.19415e+01
1.49132e-02,2.06587e+01
1.52010e-02,1.94466e+01
1.54943e-02,1.83016e+01
1.57933e-02,1.72201e+01
1.60981e-02,1.61990e+01
1.64088e-02,1.52350e+01
1.67254e-02,1.43252e+01
1.70482e-02,1.34668e+01
1.73772e-02,1.26571e+01
1.77126e-02,1.18934e+01
1.80544e-02,1.11734e+01
1.84028e-02,1.04947e+01
1.87579e-02,9.85503e+00
1.91199e-02,9.25240e+00
1.94889e-02,8.68475e+00
1.98650e-02,8.15020e+00
2.02484e-02,7.64693e+00
2.06391e-02,7.17322e+00
2.10374e-02,6.72746e+00
2.14434e-02,6.30809e+00
2.18572e-02,5.91364e+00
2.22790e-02,5.54272e+00
2.27090e-02,5.19402e+00
2.31472e-02,4.86627e+00
2.35939e-02,4.55829e+00
2.40492e-02,4.26897e+00
2.45133e-02,3.99722e+00
2.49864e-02,3.74205e+00
2.54686e-02,3.50249e+00
2.59601e-02,3.27765e+00
2.64610e-02,3.06666e+00
2.69717e-02,2.86871e+00
2.74922e-02,2.68305e+00
2.80227e-02,2.50895e+00
2.85635e-02,2.34572e+00
2.91147e-02,2.19272e+00
2.96766e-02,2.04933e+00
3.02493e-02,1.91499e+00
3.08331e-02,1.78914e+00
3.14281e-02,1.67128e+00
3.20346e-02,1.56092e+00
3.26528e-02,1.45759e+00
3.32829e-02,1.36089e+00
3.39252e-02,1.27039e+00
3.45799e-02,1.18571e+00
3.52472e-02,1.10650e+00
3.59275e-02,1.03242e+00
3.66208e-02,9.63140e-01
3.73275e-02,8.98370e-01
3.80478e-02,8.37824e-01
3.87821e-02,7.81238e-01
3.95305e-02,7.28360e-01
4.02934e-02,6.78956e-01
4.10710e-02,6.32806e-01
4.18636e-02,5.89702e-01
4.26715e-02,5.49450e-01
4.34949e-02,5.11867e-01
4.43343e-02,4.76782e-01
4.51899e-02,4.44032e-01
4.60619e-02,4.13468e-01
4.69509e-02,3.84948e-01
4.78569e-02,3.58338e-01
4.87805e-02,3.33514e-01
4.97218e-02,3.10360e-01
5.06814e-02,2.88766e-01
5.16594e-02,2.68630e-01
5.26564e-02,2.49855e-01
5.36725e-02,2.32351e-01
5.47083e-02,2.16036e-01
5.57641e-02,2.00829e-01
5.68402e-02,1.86657e-01
5.79371e-02,1.73451e-01
5.90552e-02,1.61147e-01
6.01949e-02,1.49684e-01
6.13565e-02,1.39007e-01
6.25406e-02,1.29061e-01
6.37475e-02,1.19798e-01
6.49777e-02,1.11173e-01
6.62316e-02,1.03141e-01
6.75098e-02,9.56628e-02
6.88126e-02,8.87009e-02
7.01405e-02,8.22200e-02
7.14941e-02,7.61876e-02
7.28738e-02,7.05730e-02
7.42802e-02,6.53478e-02
7.57136e-02,6.04853e-02
7.71747e-02,5.59607e-02
7.86641e-02,5.17508e-02
8.01821e-02,4.78341e-02
8.17295e-02,4.41904e-02
8.33067e-02,4.08009e-02
8.49144e-02,3.76481e-02
8.65531e-02,3.47157e-02
8.82234e-02,3.19883e-02
8.99259e-02,2.94520e-02
9.16613e-02,2.70933e-02
9.34302e-02,2.49001e-02
9.52333e-02,2.28608e-02
9.70711e-02,2.09647e-02
9.89444e-02,1.92019e-02
1.00854e-01,1.75630e-02
1.02800e-01,1.60395e-02
1.04784e-01,1.46233e-02
1.06806e-01,1.33069e-02
1.08867e-01,1.20834e-02
1.10968e-01,1.09462e-02
1.13110e-01,9.88927e-03
1.15292e-01,8.90702e-03
1.17517e-01,7.99420e-03
1.19785e-01,7.14594e-03
1.22097e-01,6.35771e-03
1.24453e-01,5.62528e-03
1.26855e-01,4.94474e-03
1.29303e-01,4.31242e-03
1.31798e-01,3.72494e-03
1.34342e-01,3.17913e-03
1.36934e-01,2.67206e-03
1.39577e-01,2.20098e-03
1.42270e-01,1.76337e-03
1.45016e-01,1.35685e-03
1.47814e-01,9.79221e-04
1.50667e-01,6.28450e-04
1.53575e-01,3.02632e-04
1.56538e-01,0.00000e+00
