m1=5064.946, m2=89.404, gsp=2.335, rhosp=20.477
fGW[Hz],dPh[rad]
2.80451e-03,8.89455e+02
2.88664e-03,8.36831e+02
2.97117e-03,7.87319e+02
3.05818e-03,7.40734e+02
3.14774e-03,6.96902e+02
3.23992e-03,6.55662e+02
3.33480e-03,6.16860e+02
3.43245e-03,5.80352e+02
3.53297e-03,5.46002e+02
3.63643e-03,5.13683e+02
3.74292e-03,4.83275e+02
3.85253e-03,4.54665e+02
3.96535e-03,4.27747e+02
4.08147e-03,4.02420e+02
4.20099e-03,3.78591e+02
4.32401e-03,3.56171e+02
4.45064e-03,3.35076e+02
4.58097e-03,3.15229e+02
4.71512e-03,2.96556e+02
4.85320e-03,2.78987e+02
4.99532e-03,2.62458e+02
5.14161e-03,2.46905e+02
5.29218e-03,2.32273e+02
5.44715e-03,2.18506e+02
5.60667e-03,2.05554e+02
5.77086e-03,1.93368e+02
5.93985e-03,1.81902e+02
6.11380e-03,1.71115e+02
6.29283e-03,1.60966e+02
6.47711e-03,1.51418e+02
6.66679e-03,1.42434e+02
6.86202e-03,1.33983e+02
7.06297e-03,1.26031e+02
7.26981e-03,1.18550e+02
7.48270e-03,1.11511e+02
7.70182e-03,1.04890e+02
7.92736e-03,9.86599e+01
8.15951e-03,9.27990e+01
8.39845e-03,8.72849e+01
8.64440e-03,8.20974e+01
8.89754e-03,7.72170e+01
9.15810e-03,7.26257e+01
9.42629e-03,6.83062e+01
9.70233e-03,6.42426e+01
9.98645e-03,6.04197e+01
1.02789e-02,5.68233e+01
1.05799e-02,5.34399e+01
1.08897e-02,5.02571e+01
1.12086e-02,4.72628e+01
1.15369e-02,4.44461e+01
1.18747e-02,4.17962e+01
1.22225e-02,3.93035e+01
1.25804e-02,3.69586e+01
1.29488e-02,3.47528e+01
1.33280e-02,3.26778e+01
1.37183e-02,3.07258e+01
1.41200e-02,2.88897e+01
1.45335e-02,2.71626e+01
1.49591e-02,2.55379e+01
1.53972e-02,2.40097e+01
1.58481e-02,2.25723e+01
1.63122e-02,2.12202e+01
1.67899e-02,1.99484e+01
1.72815e-02,1.87522e+01
1.77876e-02,1.76271e+01
1.83085e-02,1.65689e+01
1.88447e-02,1.55735e+01
1.93965e-02,1.46374e+01
1.99645e-02,1.37570e+01
2.05492e-02,1.29290e+01
2.11509e-02,1.21502e+01
2.17703e-02,1.14178e+01
2.24078e-02,1.07291e+01
2.30640e-02,1.00814e+01
2.37395e-02,9.47227e+00
2.44346e-02,8.89948e+00
2.51502e-02,8.36087e+00
2.58867e-02,7.85440e+00
2.66448e-02,7.37816e+00
2.74250e-02,6.93037e+00
2.82282e-02,6.50934e+00
2.90548e-02,6.11347e+00
2.99057e-02,5.74129e+00
3.07814e-02,5.39138e+00
3.16828e-02,5.06242e+00
3.26106e-02,4.75316e+00
3.35656e-02,4.46245e+00
3.45486e-02,4.18917e+00
3.55603e-02,3.93230e+00
3.66016e-02,3.69085e+00
3.76735e-02,3.46391e+00
3.87767e-02,3.25062e+00
3.99123e-02,3.05017e+00
4.10811e-02,2.86179e+00
4.22841e-02,2.68477e+00
4.35224e-02,2.51843e+00
4.47969e-02,2.36213e+00
4.61087e-02,2.21528e+00
4.74590e-02,2.07731e+00
4.88488e-02,1.94770e+00
5.02793e-02,1.82594e+00
5.17517e-02,1.71157e+00
5.32672e-02,1.60415e+00
5.48271e-02,1.50326e+00
5.64326e-02,1.40852e+00
5.80852e-02,1.31955e+00
5.97862e-02,1.23601e+00
6.15370e-02,1.15758e+00
6.33390e-02,1.08395e+00
6.51939e-02,1.01483e+00
6.71030e-02,9.49952e-01
6.90681e-02,8.89065e-01
7.10907e-02,8.31928e-01
7.31725e-02,7.78315e-01
7.53153e-02,7.28015e-01
7.75209e-02,6.80828e-01
7.97910e-02,6.36568e-01
8.21276e-02,5.95058e-01
8.45327e-02,5.56133e-01
8.70082e-02,5.19636e-01
8.95561e-02,4.85420e-01
9.21787e-02,4.53349e-01
9.48781e-02,4.23293e-01
9.76565e-02,3.95128e-01
1.00516e-01,3.68741e-01
1.03460e-01,3.44024e-01
1.06490e-01,3.20875e-01
1.09608e-01,2.99199e-01
1.12818e-01,2.78905e-01
1.16122e-01,2.59910e-01
1.19522e-01,2.42134e-01
1.23022e-01,2.25502e-01
1.26625e-01,2.09944e-01
1.30333e-01,1.95395e-01
1.34150e-01,1.81791e-01
1.38078e-01,1.69075e-01
1.42122e-01,1.57192e-01
1.46284e-01,1.46090e-01
1.50567e-01,1.35720e-01
1.54977e-01,1.26037e-01
1.59515e-01,1.16998e-01
1.64186e-01,1.08563e-01
1.68994e-01,1.00694e-01
1.73943e-01,9.33546e-02
1.79037e-01,8.65121e-02
1.84280e-01,8.01348e-02
1.89677e-01,7.41931e-02
1.95231e-01,6.86593e-02
2.00948e-01,6.35071e-02
2.06833e-01,5.87121e-02
2.12890e-01,5.42513e-02
2.19124e-01,5.01029e-02
2.25541e-01,4.62467e-02
2.32146e-01,4.26636e-02
2.38944e-01,3.93355e-02
2.45941e-01,3.62458e-02
2.53143e-01,3.33786e-02
2.60557e-01,3.07191e-02
2.68187e-01,2.82534e-02
2.76040e-01,2.59684e-02
2.84124e-01,2.38519e-02
2.92444e-01,2.18924e-02
3.01008e-01,2.00793e-02
3.09823e-01,1.84023e-02
3.18896e-01,1.68521e-02
3.28235e-01,1.54198e-02
3.37847e-01,1.40971e-02
3.47740e-01,1.28764e-02
3.57924e-01,1.17503e-02
3.68405e-01,1.07120e-02
3.79194e-01,9.75535e-03
3.90298e-01,8.87428e-03
4.01728e-01,8.06330e-03
4.13492e-01,7.31724e-03
4.25601e-01,6.63131e-03
4.38064e-01,6.00099e-03
4.50893e-01,5.42211e-03
4.64097e-01,4.89077e-03
4.77687e-01,4.40333e-03
4.91676e-01,3.95642e-03
5.06074e-01,3.54691e-03
5.20894e-01,3.17186e-03
5.36148e-01,2.82857e-03
5.51849e-01,2.51452e-03
5.68010e-01,2.22738e-03
5.84643e-01,1.96498e-03
6.01764e-01,1.72533e-03
6.19386e-01,1.50656e-03
6.37524e-01,1.30697e-03
6.56194e-01,1.12496e-03
6.75410e-01,9.59072e-04
6.95189e-01,8.07955e-04
7.15547e-01,6.70360e-04
7.36501e-01,5.45140e-04
7.58069e-01,4.31237e-04
7.80269e-01,3.27675e-04
8.03118e-01,2.33561e-04
8.26637e-01,1.48070e-04
8.50844e-01,7.04479e-05
8.75760e-01,0.00000e+00
