m1=1244.123, m2=17.015, gsp=2.030, rhosp=99.961
fGW[Hz],dPh[rad]
7.41771e-03,9.51367e+00
7.65142e-03,8.85444e+00
7.89250e-03,8.24086e+00
8.14117e-03,7.66979e+00
8.39767e-03,7.13827e+00
8.66226e-03,6.64357e+00
8.93518e-03,6.18314e+00
9.21670e-03,5.75461e+00
9.50710e-03,5.35576e+00
9.80664e-03,4.98453e+00
1.01156e-02,4.63903e+00
1.04343e-02,4.31746e+00
1.07631e-02,4.01816e+00
1.11022e-02,3.73961e+00
1.14520e-02,3.48035e+00
1.18128e-02,3.23905e+00
1.21850e-02,3.01446e+00
1.25689e-02,2.80544e+00
1.29649e-02,2.61090e+00
1.33734e-02,2.42984e+00
1.37948e-02,2.26133e+00
1.42294e-02,2.10449e+00
1.46777e-02,1.95852e+00
1.51402e-02,1.82266e+00
1.56172e-02,1.69622e+00
1.61093e-02,1.57854e+00
1.66168e-02,1.46901e+00
1.71404e-02,1.36708e+00
1.76804e-02,1.27221e+00
1.82375e-02,1.18392e+00
1.88121e-02,1.10174e+00
1.94048e-02,1.02526e+00
2.00162e-02,9.54084e-01
2.06469e-02,8.87840e-01
2.12974e-02,8.26189e-01
2.19684e-02,7.68811e-01
2.26606e-02,7.15412e-01
2.33745e-02,6.65714e-01
2.41110e-02,6.19463e-01
2.48707e-02,5.76419e-01
2.56543e-02,5.36360e-01
2.64626e-02,4.99079e-01
2.72963e-02,4.64383e-01
2.81564e-02,4.32094e-01
2.90435e-02,4.02045e-01
2.99586e-02,3.74080e-01
3.09025e-02,3.48055e-01
3.18761e-02,3.23836e-01
3.28804e-02,3.01298e-01
3.39164e-02,2.80323e-01
3.49850e-02,2.60804e-01
3.60873e-02,2.42640e-01
3.72243e-02,2.25737e-01
3.83971e-02,2.10007e-01
3.96069e-02,1.95369e-01
4.08548e-02,1.81748e-01
4.21421e-02,1.69073e-01
4.34698e-02,1.57278e-01
4.48394e-02,1.46303e-01
4.62522e-02,1.36090e-01
4.77095e-02,1.26586e-01
4.92127e-02,1.17744e-01
5.07632e-02,1.09515e-01
5.23626e-02,1.01859e-01
5.40124e-02,9.47355e-02
5.57142e-02,8.81071e-02
5.74696e-02,8.19399e-02
5.92803e-02,7.62017e-02
6.11481e-02,7.08629e-02
6.30747e-02,6.58956e-02
6.50620e-02,6.12742e-02
6.71119e-02,5.69746e-02
6.92264e-02,5.29745e-02
7.14075e-02,4.92532e-02
7.36574e-02,4.57911e-02
7.59781e-02,4.25705e-02
7.83719e-02,3.95744e-02
8.08412e-02,3.67873e-02
8.33883e-02,3.41948e-02
8.60156e-02,3.17831e-02
8.87257e-02,2.95399e-02
9.15212e-02,2.74534e-02
9.44048e-02,2.55128e-02
9.73792e-02,2.37077e-02
1.00447e-01,2.20290e-02
1.03612e-01,2.04677e-02
1.06877e-01,1.90157e-02
1.10244e-01,1.76654e-02
1.13718e-01,1.64097e-02
1.17300e-01,1.52421e-02
1.20996e-01,1.41564e-02
1.24809e-01,1.31469e-02
1.28741e-01,1.22082e-02
1.32797e-01,1.13356e-02
1.36981e-01,1.05243e-02
1.41297e-01,9.77014e-03
1.45749e-01,9.06907e-03
1.50341e-01,8.41740e-03
1.55078e-01,7.81169e-03
1.59964e-01,7.24874e-03
1.65004e-01,6.72556e-03
1.70203e-01,6.23937e-03
1.75565e-01,5.78759e-03
1.81097e-01,5.36781e-03
1.86803e-01,4.97780e-03
1.92688e-01,4.61547e-03
1.98760e-01,4.27888e-03
2.05022e-01,3.96624e-03
2.11482e-01,3.67587e-03
2.18145e-01,3.40620e-03
2.25018e-01,3.15578e-03
2.32108e-01,2.92326e-03
2.39421e-01,2.70739e-03
2.46964e-01,2.50700e-03
2.54745e-01,2.32099e-03
2.62771e-01,2.14835e-03
2.71051e-01,1.98815e-03
2.79591e-01,1.83950e-03
2.88400e-01,1.70160e-03
2.97486e-01,1.57368e-03
3.06859e-01,1.45503e-03
3.16528e-01,1.34501e-03
3.26501e-01,1.24300e-03
3.36788e-01,1.14842e-03
3.47399e-01,1.06077e-03
3.58344e-01,9.79537e-04
3.69635e-01,9.04271e-04
3.81281e-01,8.34547e-04
3.93294e-01,7.69969e-04
4.05686e-01,7.10170e-04
4.18468e-01,6.54808e-04
4.31652e-01,6.03565e-04
4.45252e-01,5.56146e-04
4.59281e-01,5.12275e-04
4.73752e-01,4.71698e-04
4.88678e-01,4.34176e-04
5.04075e-01,3.99489e-04
5.19957e-01,3.67431e-04
5.36340e-01,3.37813e-04
5.53238e-01,3.10455e-04
5.70669e-01,2.85193e-04
5.88649e-01,2.61875e-04
6.07196e-01,2.40357e-04
6.26327e-01,2.20508e-04
6.46061e-01,2.02204e-04
6.66416e-01,1.85331e-04
6.87413e-01,1.69783e-04
7.09071e-01,1.55461e-04
7.31412e-01,1.42275e-04
7.54457e-01,1.30138e-04
7.78228e-01,1.18973e-04
8.02748e-01,1.08705e-04
8.28040e-01,9.92667e-05
8.54129e-01,9.05953e-05
8.81040e-01,8.26320e-05
9.08799e-01,7.53224e-05
9.37433e-01,6.86162e-05
9.66969e-01,6.24667e-05
9.97435e-01,5.68306e-05
1.02886e+00,5.16676e-05
1.06128e+00,4.69406e-05
1.09472e+00,4.26152e-05
1.12921e+00,3.86594e-05
1.16479e+00,3.50437e-05
1.20148e+00,3.17408e-05
1.23934e+00,2.87253e-05
1.27839e+00,2.59738e-05
1.31867e+00,2.34649e-05
1.36021e+00,2.11784e-05
1.40307e+00,1.90959e-05
1.44728e+00,1.72005e-05
1.49288e+00,1.54763e-05
1.53991e+00,1.39089e-05
1.58843e+00,1.24850e-05
1.63848e+00,1.11921e-05
1.69010e+00,1.00191e-05
1.74335e+00,8.95552e-06
1.79828e+00,7.99171e-06
1.85494e+00,7.11890e-06
1.91338e+00,6.32901e-06
1.97367e+00,5.61460e-06
2.03585e+00,4.96889e-06
2.10000e+00,4.38562e-06
2.16616e+00,3.85910e-06
2.23441e+00,3.38411e-06
2.30481e+00,2.95585e-06
2.37743e+00,2.56997e-06
2.45234e+00,2.22249e-06
2.52960e+00,1.90977e-06
2.60930e+00,1.62850e-06
2.69151e+00,1.37566e-06
2.77632e+00,1.14851e-06
2.86379e+00,9.44557e-07
2.95402e+00,7.61526e-07
3.04709e+00,5.97362e-07
3.14310e+00,4.50197e-07
3.24213e+00,3.18340e-07
3.34428e+00,2.00257e-07
3.44965e+00,9.45616e-08
3.55833e+00,0.00000e+00
