m1=1279.581, m2=47.959, gsp=2.266, rhosp=48.442
fGW[Hz],dPh[rad]
5.00860e-03,2.01096e+02
5.17618e-03,1.87319e+02
5.34937e-03,1.74486e+02
5.52836e-03,1.62532e+02
5.71333e-03,1.51397e+02
5.90449e-03,1.41025e+02
6.10205e-03,1.31363e+02
6.30622e-03,1.22363e+02
6.51722e-03,1.13980e+02
6.73528e-03,1.06170e+02
6.96064e-03,9.88960e+01
7.19354e-03,9.21199e+01
7.43423e-03,8.58080e+01
7.68297e-03,7.99285e+01
7.94003e-03,7.44517e+01
8.20570e-03,6.93501e+01
8.48026e-03,6.45980e+01
8.76400e-03,6.01714e+01
9.05723e-03,5.60480e+01
9.36028e-03,5.22071e+01
9.67347e-03,4.86293e+01
9.99713e-03,4.52966e+01
1.03316e-02,4.21923e+01
1.06773e-02,3.93005e+01
1.10346e-02,3.66069e+01
1.14038e-02,3.40979e+01
1.17853e-02,3.17607e+01
1.21797e-02,2.95836e+01
1.25872e-02,2.75557e+01
1.30083e-02,2.56667e+01
1.34436e-02,2.39071e+01
1.38934e-02,2.22681e+01
1.43583e-02,2.07414e+01
1.48387e-02,1.93193e+01
1.53352e-02,1.79946e+01
1.58483e-02,1.67607e+01
1.63785e-02,1.56113e+01
1.69265e-02,1.45407e+01
1.74929e-02,1.35435e+01
1.80782e-02,1.26146e+01
1.86831e-02,1.17493e+01
1.93082e-02,1.09433e+01
1.99542e-02,1.01926e+01
2.06219e-02,9.49331e+00
2.13119e-02,8.84194e+00
2.20249e-02,8.23521e+00
2.27619e-02,7.67007e+00
2.35235e-02,7.14366e+00
2.43105e-02,6.65333e+00
2.51239e-02,6.19661e+00
2.59646e-02,5.77120e+00
2.68333e-02,5.37495e+00
2.77311e-02,5.00586e+00
2.86590e-02,4.66207e+00
2.96179e-02,4.34185e+00
3.06089e-02,4.04359e+00
3.16330e-02,3.76578e+00
3.26915e-02,3.50701e+00
3.37853e-02,3.26599e+00
3.49157e-02,3.04150e+00
3.60840e-02,2.83240e+00
3.72913e-02,2.63765e+00
3.85390e-02,2.45625e+00
3.98285e-02,2.28729e+00
4.11611e-02,2.12993e+00
4.25383e-02,1.98336e+00
4.39616e-02,1.84685e+00
4.54326e-02,1.71970e+00
4.69527e-02,1.60128e+00
4.85237e-02,1.49099e+00
5.01472e-02,1.38826e+00
5.18251e-02,1.29259e+00
5.35592e-02,1.20348e+00
5.53512e-02,1.12050e+00
5.72032e-02,1.04321e+00
5.91172e-02,9.71226e-01
6.10952e-02,9.04188e-01
6.31394e-02,8.41756e-01
6.52519e-02,7.83613e-01
6.74352e-02,7.29466e-01
6.96915e-02,6.79039e-01
7.20234e-02,6.32079e-01
7.44332e-02,5.88347e-01
7.69237e-02,5.47622e-01
7.94975e-02,5.09698e-01
8.21574e-02,4.74383e-01
8.49063e-02,4.41497e-01
8.77472e-02,4.10875e-01
9.06831e-02,3.82360e-01
9.37173e-02,3.55809e-01
9.68530e-02,3.31087e-01
1.00094e-01,3.08067e-01
1.03443e-01,2.86634e-01
1.06904e-01,2.66678e-01
1.10481e-01,2.48098e-01
1.14177e-01,2.30799e-01
1.17998e-01,2.14694e-01
1.21946e-01,1.99700e-01
1.26026e-01,1.85742e-01
1.30243e-01,1.72748e-01
1.34600e-01,1.60652e-01
1.39104e-01,1.49392e-01
1.43758e-01,1.38911e-01
1.48568e-01,1.29155e-01
1.53539e-01,1.20074e-01
1.58676e-01,1.11623e-01
1.63986e-01,1.03757e-01
1.69472e-01,9.64362e-02
1.75143e-01,8.96237e-02
1.81003e-01,8.32841e-02
1.87059e-01,7.73850e-02
1.93318e-01,7.18959e-02
1.99786e-01,6.67887e-02
2.06471e-01,6.20371e-02
2.13379e-01,5.76166e-02
2.20519e-01,5.35043e-02
2.27897e-01,4.96790e-02
2.35522e-01,4.61209e-02
2.43403e-01,4.28117e-02
2.51547e-01,3.97340e-02
2.59963e-01,3.68719e-02
2.68661e-01,3.42106e-02
2.77651e-01,3.17361e-02
2.86941e-01,2.94356e-02
2.96541e-01,2.72970e-02
3.06463e-01,2.53091e-02
3.16717e-01,2.34615e-02
3.27314e-01,2.17444e-02
3.38266e-01,2.01489e-02
3.49584e-01,1.86664e-02
3.61281e-01,1.72892e-02
3.73369e-01,1.60099e-02
3.85862e-01,1.48217e-02
3.98772e-01,1.37183e-02
4.12115e-01,1.26938e-02
4.25904e-01,1.17426e-02
4.40154e-01,1.08598e-02
4.54881e-01,1.00404e-02
4.70101e-01,9.28011e-03
4.85830e-01,8.57474e-03
5.02086e-01,7.92046e-03
5.18885e-01,7.31369e-03
5.36247e-01,6.75109e-03
5.54189e-01,6.22955e-03
5.72732e-01,5.74619e-03
5.91895e-01,5.29831e-03
6.11699e-01,4.88341e-03
6.32166e-01,4.49916e-03
6.53318e-01,4.14339e-03
6.75177e-01,3.81407e-03
6.97768e-01,3.50932e-03
7.21115e-01,3.22740e-03
7.45242e-01,2.96667e-03
7.70178e-01,2.72561e-03
7.95947e-01,2.50282e-03
8.22579e-01,2.29698e-03
8.50102e-01,2.10688e-03
8.78545e-01,1.93136e-03
9.07940e-01,1.76937e-03
9.38319e-01,1.61994e-03
9.69715e-01,1.48213e-03
1.00216e+00,1.35511e-03
1.03569e+00,1.23808e-03
1.07035e+00,1.13030e-03
1.10616e+00,1.03108e-03
1.14317e+00,9.39796e-04
1.18142e+00,8.55847e-04
1.22095e+00,7.78685e-04
1.26180e+00,7.07798e-04
1.30402e+00,6.42711e-04
1.34765e+00,5.82982e-04
1.39274e+00,5.28202e-04
1.43934e+00,4.77988e-04
1.48750e+00,4.31989e-04
1.53727e+00,3.89876e-04
1.58871e+00,3.51343e-04
1.64186e+00,3.16110e-04
1.69680e+00,2.83915e-04
1.75357e+00,2.54514e-04
1.81224e+00,2.27683e-04
1.87288e+00,2.03215e-04
1.93554e+00,1.80915e-04
2.00031e+00,1.60607e-04
2.06724e+00,1.42124e-04
2.13640e+00,1.25316e-04
2.20789e+00,1.10041e-04
2.28176e+00,9.61695e-05
2.35810e+00,8.35813e-05
2.43700e+00,7.21662e-05
2.51854e+00,6.18222e-05
2.60281e+00,5.24558e-05
2.68990e+00,4.39807e-05
2.77990e+00,3.63177e-05
2.87292e+00,2.93939e-05
2.96904e+00,2.31426e-05
3.06838e+00,1.75025e-05
3.17105e+00,1.24174e-05
3.27715e+00,7.83595e-06
3.38680e+00,3.71114e-06
3.50012e+00,0.00000e+00
