m1=164029.827, m2=6.211, gsp=2.210, rhosp=60.641
fGW[Hz],dPh[rad]
3.18902e-03,1.82050e+03
3.22332e-03,1.74926e+03
3.25799e-03,1.68078e+03
3.29303e-03,1.61494e+03
3.32845e-03,1.55165e+03
3.36425e-03,1.49081e+03
3.40043e-03,1.43232e+03
3.43701e-03,1.37609e+03
3.47398e-03,1.32205e+03
3.51134e-03,1.27010e+03
3.54911e-03,1.22016e+03
3.58728e-03,1.17217e+03
3.62586e-03,1.12604e+03
3.66486e-03,1.08171e+03
3.70428e-03,1.03910e+03
3.74412e-03,9.98151e+02
3.78439e-03,9.58797e+02
3.82510e-03,9.20978e+02
3.86624e-03,8.84633e+02
3.90782e-03,8.49708e+02
3.94985e-03,8.16147e+02
3.99233e-03,7.83897e+02
4.03528e-03,7.52908e+02
4.07868e-03,7.23132e+02
4.12255e-03,6.94522e+02
4.16689e-03,6.67032e+02
4.21170e-03,6.40619e+02
4.25700e-03,6.15242e+02
4.30279e-03,5.90861e+02
4.34907e-03,5.67436e+02
4.39585e-03,5.44931e+02
4.44313e-03,5.23311e+02
4.49092e-03,5.02540e+02
4.53922e-03,4.82587e+02
4.58804e-03,4.63418e+02
4.63739e-03,4.45004e+02
4.68727e-03,4.27315e+02
4.73768e-03,4.10323e+02
4.78864e-03,3.94001e+02
4.84014e-03,3.78322e+02
4.89220e-03,3.63262e+02
4.94482e-03,3.48797e+02
4.99800e-03,3.34902e+02
5.05176e-03,3.21556e+02
5.10610e-03,3.08738e+02
5.16102e-03,2.96427e+02
5.21653e-03,2.84602e+02
5.27263e-03,2.73245e+02
5.32934e-03,2.62338e+02
5.38666e-03,2.51862e+02
5.44460e-03,2.41801e+02
5.50316e-03,2.32139e+02
5.56235e-03,2.22860e+02
5.62218e-03,2.13949e+02
5.68265e-03,2.05391e+02
5.74377e-03,1.97173e+02
5.80555e-03,1.89281e+02
5.86799e-03,1.81702e+02
5.93110e-03,1.74424e+02
5.99490e-03,1.67435e+02
6.05937e-03,1.60725e+02
6.12455e-03,1.54280e+02
6.19042e-03,1.48092e+02
6.25700e-03,1.42150e+02
6.32430e-03,1.36445e+02
6.39232e-03,1.30967e+02
6.46108e-03,1.25706e+02
6.53057e-03,1.20655e+02
6.60081e-03,1.15806e+02
6.67180e-03,1.11149e+02
6.74356e-03,1.06678e+02
6.81610e-03,1.02386e+02
6.88941e-03,9.82641e+01
6.96351e-03,9.43069e+01
7.03840e-03,9.05076e+01
7.11411e-03,8.68599e+01
7.19062e-03,8.33577e+01
7.26796e-03,7.99953e+01
7.34614e-03,7.67672e+01
7.42515e-03,7.36680e+01
7.50501e-03,7.06926e+01
7.58573e-03,6.78361e+01
7.66732e-03,6.50938e+01
7.74979e-03,6.24610e+01
7.83314e-03,5.99335e+01
7.91739e-03,5.75071e+01
8.00255e-03,5.51777e+01
8.08862e-03,5.29416e+01
8.17562e-03,5.07948e+01
8.26355e-03,4.87340e+01
8.35243e-03,4.67557e+01
8.44227e-03,4.48566e+01
8.53307e-03,4.30335e+01
8.62485e-03,4.12834e+01
8.71762e-03,3.96034e+01
8.81138e-03,3.79907e+01
8.90615e-03,3.64427e+01
9.00194e-03,3.49567e+01
9.09876e-03,3.35302e+01
9.19663e-03,3.21609e+01
9.29554e-03,3.08465e+01
9.39552e-03,2.95849e+01
9.49658e-03,2.83738e+01
9.59872e-03,2.72113e+01
9.70196e-03,2.60954e+01
9.80631e-03,2.50244e+01
9.91178e-03,2.39963e+01
1.00184e-02,2.30094e+01
1.01261e-02,2.20622e+01
1.02351e-02,2.11530e+01
1.03451e-02,2.02803e+01
1.04564e-02,1.94427e+01
1.05689e-02,1.86386e+01
1.06826e-02,1.78669e+01
1.07974e-02,1.71262e+01
1.09136e-02,1.64153e+01
1.10310e-02,1.57329e+01
1.11496e-02,1.50779e+01
1.12695e-02,1.44493e+01
1.13907e-02,1.38459e+01
1.15133e-02,1.32668e+01
1.16371e-02,1.27109e+01
1.17623e-02,1.21775e+01
1.18888e-02,1.16654e+01
1.20166e-02,1.11740e+01
1.21459e-02,1.07023e+01
1.22765e-02,1.02496e+01
1.24086e-02,9.81510e+00
1.25420e-02,9.39809e+00
1.26769e-02,8.99786e+00
1.28133e-02,8.61373e+00
1.29511e-02,8.24507e+00
1.30904e-02,7.89124e+00
1.32312e-02,7.55165e+00
1.33735e-02,7.22573e+00
1.35173e-02,6.91293e+00
1.36627e-02,6.61273e+00
1.38097e-02,6.32461e+00
1.39582e-02,6.04810e+00
1.41083e-02,5.78272e+00
1.42601e-02,5.52803e+00
1.44134e-02,5.28359e+00
1.45685e-02,5.04901e+00
1.47252e-02,4.82387e+00
1.48835e-02,4.60780e+00
1.50436e-02,4.40044e+00
1.52054e-02,4.20143e+00
1.53690e-02,4.01044e+00
1.55343e-02,3.82715e+00
1.57014e-02,3.65125e+00
1.58702e-02,3.48243e+00
1.60409e-02,3.32042e+00
1.62135e-02,3.16494e+00
1.63878e-02,3.01572e+00
1.65641e-02,2.87253e+00
1.67423e-02,2.73510e+00
1.69223e-02,2.60321e+00
1.71044e-02,2.47665e+00
1.72883e-02,2.35518e+00
1.74743e-02,2.23862e+00
1.76622e-02,2.12675e+00
1.78522e-02,2.01940e+00
1.80442e-02,1.91638e+00
1.82383e-02,1.81751e+00
1.84344e-02,1.72263e+00
1.86327e-02,1.63157e+00
1.88331e-02,1.54419e+00
1.90357e-02,1.46034e+00
1.92404e-02,1.37986e+00
1.94474e-02,1.30264e+00
1.96565e-02,1.22853e+00
1.98680e-02,1.15741e+00
2.00816e-02,1.08916e+00
2.02976e-02,1.02366e+00
2.05160e-02,9.60810e-01
2.07366e-02,9.00493e-01
2.09596e-02,8.42611e-01
2.11851e-02,7.87065e-01
2.14129e-02,7.33761e-01
2.16433e-02,6.82608e-01
2.18760e-02,6.33520e-01
2.21113e-02,5.86414e-01
2.23492e-02,5.41208e-01
2.25895e-02,4.97828e-01
2.28325e-02,4.56199e-01
2.30781e-02,4.16251e-01
2.33263e-02,3.77916e-01
2.35772e-02,3.41128e-01
2.38308e-02,3.05825e-01
2.40871e-02,2.71948e-01
2.43462e-02,2.39439e-01
2.46080e-02,2.08243e-01
2.48727e-02,1.78306e-01
2.51402e-02,1.49578e-01
2.54106e-02,1.22011e-01
2.56839e-02,9.55563e-02
2.59602e-02,7.01703e-02
2.62394e-02,4.58096e-02
2.65216e-02,2.24327e-02
2.68069e-02,0.00000e+00
