m1=44608.278, m2=4.882, gsp=2.365, rhosp=894.520
fGW[Hz],dPh[rad]
4.83308e-03,1.56126e+05
4.90687e-03,1.48981e+05
4.98179e-03,1.42143e+05
5.05785e-03,1.35600e+05
5.13507e-03,1.29341e+05
5.21347e-03,1.23354e+05
5.29307e-03,1.17629e+05
5.37388e-03,1.12154e+05
5.45593e-03,1.06919e+05
5.53923e-03,1.01915e+05
5.62380e-03,9.71329e+04
5.70967e-03,9.25627e+04
5.79684e-03,8.81959e+04
5.88534e-03,8.40242e+04
5.97520e-03,8.00394e+04
6.06643e-03,7.62338e+04
6.15905e-03,7.25999e+04
6.25309e-03,6.91304e+04
6.34856e-03,6.58184e+04
6.44549e-03,6.26572e+04
6.54390e-03,5.96405e+04
6.64381e-03,5.67620e+04
6.74524e-03,5.40158e+04
6.84823e-03,5.13963e+04
6.95279e-03,4.88979e+04
7.05894e-03,4.65154e+04
7.16671e-03,4.42437e+04
7.27613e-03,4.20781e+04
7.38723e-03,4.00139e+04
7.50001e-03,3.80465e+04
7.61452e-03,3.61718e+04
7.73078e-03,3.43855e+04
7.84881e-03,3.26839e+04
7.96865e-03,3.10630e+04
8.09031e-03,2.95193e+04
8.21383e-03,2.80493e+04
8.33924e-03,2.66497e+04
8.46656e-03,2.53172e+04
8.59583e-03,2.40489e+04
8.72707e-03,2.28417e+04
8.86031e-03,2.16930e+04
8.99559e-03,2.05999e+04
9.13293e-03,1.95600e+04
9.27237e-03,1.85708e+04
9.41394e-03,1.76299e+04
9.55767e-03,1.67351e+04
9.70360e-03,1.58842e+04
9.85175e-03,1.50751e+04
1.00022e-02,1.43060e+04
1.01549e-02,1.35749e+04
1.03099e-02,1.28800e+04
1.04673e-02,1.22196e+04
1.06271e-02,1.15921e+04
1.07894e-02,1.09958e+04
1.09541e-02,1.04294e+04
1.11214e-02,9.89130e+03
1.12912e-02,9.38021e+03
1.14636e-02,8.89482e+03
1.16386e-02,8.43387e+03
1.18163e-02,7.99620e+03
1.19967e-02,7.58065e+03
1.21799e-02,7.18616e+03
1.23658e-02,6.81169e+03
1.25546e-02,6.45626e+03
1.27463e-02,6.11894e+03
1.29409e-02,5.79884e+03
1.31385e-02,5.49509e+03
1.33391e-02,5.20690e+03
1.35427e-02,4.93349e+03
1.37495e-02,4.67412e+03
1.39594e-02,4.42810e+03
1.41726e-02,4.19476e+03
1.43889e-02,3.97347e+03
1.46086e-02,3.76361e+03
1.48317e-02,3.56462e+03
1.50581e-02,3.37594e+03
1.52880e-02,3.19707e+03
1.55214e-02,3.02749e+03
1.57584e-02,2.86674e+03
1.59990e-02,2.71437e+03
1.62433e-02,2.56996e+03
1.64913e-02,2.43309e+03
1.67431e-02,2.30339e+03
1.69987e-02,2.18048e+03
1.72582e-02,2.06403e+03
1.75217e-02,1.95369e+03
1.77893e-02,1.84915e+03
1.80609e-02,1.75012e+03
1.83366e-02,1.65631e+03
1.86166e-02,1.56745e+03
1.89008e-02,1.48328e+03
1.91894e-02,1.40357e+03
1.94824e-02,1.32807e+03
1.97798e-02,1.25658e+03
2.00818e-02,1.18888e+03
2.03884e-02,1.12477e+03
2.06997e-02,1.06407e+03
2.10157e-02,1.00660e+03
2.13366e-02,9.52187e+02
2.16624e-02,9.00675e+02
2.19931e-02,8.51911e+02
2.23289e-02,8.05751e+02
2.26698e-02,7.62056e+02
2.30159e-02,7.20698e+02
2.33673e-02,6.81554e+02
2.37241e-02,6.44506e+02
2.40863e-02,6.09443e+02
2.44541e-02,5.76262e+02
2.48274e-02,5.44861e+02
2.52065e-02,5.15147e+02
2.55913e-02,4.87031e+02
2.59821e-02,4.60427e+02
2.63787e-02,4.35255e+02
2.67815e-02,4.11438e+02
2.71904e-02,3.88906e+02
2.76055e-02,3.67588e+02
2.80270e-02,3.47421e+02
2.84549e-02,3.28343e+02
2.88894e-02,3.10296e+02
2.93304e-02,2.93224e+02
2.97783e-02,2.77075e+02
3.02329e-02,2.61801e+02
3.06945e-02,2.47353e+02
3.11631e-02,2.33688e+02
3.16389e-02,2.20764e+02
3.21220e-02,2.08541e+02
3.26124e-02,1.96981e+02
3.31103e-02,1.86048e+02
3.36159e-02,1.75709e+02
3.41291e-02,1.65932e+02
3.46502e-02,1.56686e+02
3.51792e-02,1.47943e+02
3.57163e-02,1.39676e+02
3.62616e-02,1.31858e+02
3.68153e-02,1.24466e+02
3.73774e-02,1.17477e+02
3.79480e-02,1.10869e+02
3.85274e-02,1.04621e+02
3.91156e-02,9.87130e+01
3.97129e-02,9.31277e+01
4.03192e-02,8.78472e+01
4.09348e-02,8.28549e+01
4.15598e-02,7.81352e+01
4.21943e-02,7.36733e+01
4.28385e-02,6.94552e+01
4.34926e-02,6.54676e+01
4.41566e-02,6.16980e+01
4.48308e-02,5.81346e+01
4.55152e-02,5.47661e+01
4.62102e-02,5.15819e+01
4.69157e-02,4.85720e+01
4.76320e-02,4.57269e+01
4.83592e-02,4.30375e+01
4.90976e-02,4.04955e+01
4.98472e-02,3.80928e+01
5.06082e-02,3.58217e+01
5.13809e-02,3.36751e+01
5.21654e-02,3.16462e+01
5.29618e-02,2.97286e+01
5.37705e-02,2.79162e+01
5.45914e-02,2.62032e+01
5.54249e-02,2.45842e+01
5.62711e-02,2.30540e+01
5.71303e-02,2.16079e+01
5.80025e-02,2.02412e+01
5.88881e-02,1.89495e+01
5.97872e-02,1.77288e+01
6.07000e-02,1.65751e+01
6.16268e-02,1.54849e+01
6.25677e-02,1.44545e+01
6.35229e-02,1.34808e+01
6.44928e-02,1.25606e+01
6.54775e-02,1.16910e+01
6.64772e-02,1.08693e+01
6.74921e-02,1.00927e+01
6.85226e-02,9.35888e+00
6.95688e-02,8.66541e+00
7.06310e-02,8.01010e+00
7.17093e-02,7.39085e+00
7.28042e-02,6.80568e+00
7.39157e-02,6.25273e+00
7.50443e-02,5.73022e+00
7.61900e-02,5.23648e+00
7.73533e-02,4.76994e+00
7.85343e-02,4.32908e+00
7.97334e-02,3.91251e+00
8.09507e-02,3.51889e+00
8.21867e-02,3.14695e+00
8.34415e-02,2.79551e+00
8.47154e-02,2.46343e+00
8.60089e-02,2.14965e+00
8.73220e-02,1.85317e+00
8.86553e-02,1.57303e+00
9.00088e-02,1.30834e+00
9.13831e-02,1.05823e+00
9.27783e-02,8.21922e-01
9.41948e-02,5.98640e-01
9.56330e-02,3.87672e-01
9.70931e-02,1.88339e-01
9.85755e-02,0.00000e+00
