m1=13398.448, m2=7.667, gsp=2.078, rhosp=1156.072
fGW[Hz],dPh[rad]
5.51237e-03,6.99950e+02
5.62675e-03,6.65592e+02
5.74350e-03,6.32866e+02
5.86267e-03,6.01698e+02
5.98431e-03,5.72014e+02
6.10848e-03,5.43745e+02
6.23523e-03,5.16826e+02
6.36461e-03,4.91192e+02
6.49667e-03,4.66785e+02
6.63147e-03,4.43548e+02
6.76907e-03,4.21424e+02
6.90952e-03,4.00364e+02
7.05289e-03,3.80316e+02
7.19923e-03,3.61233e+02
7.34861e-03,3.43070e+02
7.50108e-03,3.25784e+02
7.65673e-03,3.09335e+02
7.81560e-03,2.93682e+02
7.97776e-03,2.78788e+02
8.14330e-03,2.64617e+02
8.31226e-03,2.51136e+02
8.48474e-03,2.38313e+02
8.66079e-03,2.26115e+02
8.84049e-03,2.14513e+02
9.02393e-03,2.03480e+02
9.21117e-03,1.92989e+02
9.40229e-03,1.83013e+02
9.59738e-03,1.73529e+02
9.79652e-03,1.64513e+02
9.99979e-03,1.55943e+02
1.02073e-02,1.47797e+02
1.04191e-02,1.40056e+02
1.06353e-02,1.32700e+02
1.08559e-02,1.25711e+02
1.10812e-02,1.19072e+02
1.13111e-02,1.12765e+02
1.15458e-02,1.06774e+02
1.17854e-02,1.01085e+02
1.20299e-02,9.56832e+01
1.22795e-02,9.05544e+01
1.25343e-02,8.56857e+01
1.27944e-02,8.10644e+01
1.30599e-02,7.66786e+01
1.33308e-02,7.25168e+01
1.36074e-02,6.85683e+01
1.38898e-02,6.48227e+01
1.41780e-02,6.12700e+01
1.44722e-02,5.79009e+01
1.47725e-02,5.47063e+01
1.50790e-02,5.16778e+01
1.53919e-02,4.88071e+01
1.57112e-02,4.60865e+01
1.60372e-02,4.35087e+01
1.63700e-02,4.10664e+01
1.67096e-02,3.87531e+01
1.70564e-02,3.65623e+01
1.74103e-02,3.44879e+01
1.77715e-02,3.25241e+01
1.81403e-02,3.06653e+01
1.85167e-02,2.89063e+01
1.89009e-02,2.72421e+01
1.92930e-02,2.56679e+01
1.96934e-02,2.41791e+01
2.01020e-02,2.27713e+01
2.05191e-02,2.14405e+01
2.09448e-02,2.01828e+01
2.13794e-02,1.89943e+01
2.18230e-02,1.78715e+01
2.22758e-02,1.68110e+01
2.27380e-02,1.58096e+01
2.32098e-02,1.48642e+01
2.36914e-02,1.39719e+01
2.41830e-02,1.31299e+01
2.46848e-02,1.23356e+01
2.51970e-02,1.15865e+01
2.57198e-02,1.08801e+01
2.62535e-02,1.02142e+01
2.67982e-02,9.58661e+00
2.73542e-02,8.99531e+00
2.79218e-02,8.43833e+00
2.85012e-02,7.91381e+00
2.90925e-02,7.42000e+00
2.96962e-02,6.95522e+00
3.03124e-02,6.51787e+00
3.09413e-02,6.10646e+00
3.15833e-02,5.71955e+00
3.22387e-02,5.35577e+00
3.29076e-02,5.01385e+00
3.35904e-02,4.69255e+00
3.42874e-02,4.39071e+00
3.49988e-02,4.10724e+00
3.57250e-02,3.84109e+00
3.64663e-02,3.59127e+00
3.72229e-02,3.35685e+00
3.79953e-02,3.13694e+00
3.87836e-02,2.93069e+00
3.95884e-02,2.73732e+00
4.04098e-02,2.55608e+00
4.12483e-02,2.38624e+00
4.21041e-02,2.22714e+00
4.29778e-02,2.07813e+00
4.38695e-02,1.93863e+00
4.47798e-02,1.80805e+00
4.57089e-02,1.68586e+00
4.66573e-02,1.57156e+00
4.76254e-02,1.46466e+00
4.86136e-02,1.36472e+00
4.96223e-02,1.27129e+00
5.06520e-02,1.18400e+00
5.17029e-02,1.10244e+00
5.27757e-02,1.02627e+00
5.38708e-02,9.55155e-01
5.49886e-02,8.88769e-01
5.61295e-02,8.26816e-01
5.72942e-02,7.69016e-01
5.84830e-02,7.15103e-01
5.96965e-02,6.64829e-01
6.09351e-02,6.17961e-01
6.21995e-02,5.74278e-01
6.34901e-02,5.33574e-01
6.48074e-02,4.95655e-01
6.61522e-02,4.60339e-01
6.75248e-02,4.27455e-01
6.89258e-02,3.96842e-01
7.03560e-02,3.68351e-01
7.18158e-02,3.41840e-01
7.33060e-02,3.17176e-01
7.48270e-02,2.94237e-01
7.63796e-02,2.72906e-01
7.79644e-02,2.53075e-01
7.95821e-02,2.34643e-01
8.12334e-02,2.17513e-01
8.29189e-02,2.01597e-01
8.46394e-02,1.86812e-01
8.63956e-02,1.73081e-01
8.81883e-02,1.60330e-01
9.00181e-02,1.48492e-01
9.18859e-02,1.37504e-01
9.37925e-02,1.27306e-01
9.57386e-02,1.17843e-01
9.77251e-02,1.09064e-01
9.97528e-02,1.00920e-01
1.01823e-01,9.33673e-02
1.03935e-01,8.63637e-02
1.06092e-01,7.98703e-02
1.08293e-01,7.38509e-02
1.10540e-01,6.82717e-02
1.12834e-01,6.31012e-02
1.15175e-01,5.83103e-02
1.17565e-01,5.38716e-02
1.20004e-01,4.97599e-02
1.22494e-01,4.59515e-02
1.25036e-01,4.24246e-02
1.27630e-01,3.91587e-02
1.30279e-01,3.61349e-02
1.32982e-01,3.33356e-02
1.35741e-01,3.07445e-02
1.38557e-01,2.83462e-02
1.41432e-01,2.61268e-02
1.44367e-01,2.40730e-02
1.47363e-01,2.21728e-02
1.50420e-01,2.04149e-02
1.53541e-01,1.87886e-02
1.56727e-01,1.72844e-02
1.59979e-01,1.58932e-02
1.63299e-01,1.46066e-02
1.66687e-01,1.34169e-02
1.70146e-01,1.23168e-02
1.73676e-01,1.12998e-02
1.77280e-01,1.03595e-02
1.80958e-01,9.49033e-03
1.84713e-01,8.68693e-03
1.88545e-01,7.94436e-03
1.92458e-01,7.25809e-03
1.96451e-01,6.62388e-03
2.00527e-01,6.03783e-03
2.04688e-01,5.49631e-03
2.08935e-01,4.99598e-03
2.13270e-01,4.53373e-03
2.17695e-01,4.10668e-03
2.22212e-01,3.71219e-03
2.26823e-01,3.34779e-03
2.31530e-01,3.01120e-03
2.36334e-01,2.70032e-03
2.41237e-01,2.41319e-03
2.46243e-01,2.14803e-03
2.51352e-01,1.90315e-03
2.56568e-01,1.67702e-03
2.61891e-01,1.46822e-03
2.67325e-01,1.27541e-03
2.72872e-01,1.09740e-03
2.78534e-01,9.33038e-04
2.84313e-01,7.81295e-04
2.90212e-01,6.41205e-04
2.96234e-01,5.11879e-04
3.02381e-01,3.92494e-04
3.08655e-01,2.82290e-04
3.15059e-01,1.80564e-04
3.21596e-01,8.66673e-05
3.28269e-01,0.00000e+00
