m1=20012.155, m2=85.111, gsp=2.015, rhosp=1973.999
fGW[Hz],dPh[rad]
2.02289e-03,3.50596e+01
2.07113e-03,3.31726e+01
2.12052e-03,3.13866e+01
2.17109e-03,2.96962e+01
2.22287e-03,2.80963e+01
2.27588e-03,2.65820e+01
2.33015e-03,2.51488e+01
2.38572e-03,2.37924e+01
2.44261e-03,2.25087e+01
2.50086e-03,2.12937e+01
2.56050e-03,2.01439e+01
2.62156e-03,1.90556e+01
2.68408e-03,1.80257e+01
2.74809e-03,1.70511e+01
2.81362e-03,1.61287e+01
2.88072e-03,1.52558e+01
2.94942e-03,1.44297e+01
3.01976e-03,1.36480e+01
3.09177e-03,1.29082e+01
3.16550e-03,1.22082e+01
3.24099e-03,1.15457e+01
3.31828e-03,1.09189e+01
3.39741e-03,1.03257e+01
3.47843e-03,9.76444e+00
3.56138e-03,9.23334e+00
3.64631e-03,8.73082e+00
3.73327e-03,8.25533e+00
3.82230e-03,7.80544e+00
3.91345e-03,7.37977e+00
4.00677e-03,6.97704e+00
4.10233e-03,6.59600e+00
4.20016e-03,6.23550e+00
4.30032e-03,5.89444e+00
4.40287e-03,5.57179e+00
4.50787e-03,5.26654e+00
4.61537e-03,4.97778e+00
4.72543e-03,4.70462e+00
4.83812e-03,4.44622e+00
4.95350e-03,4.20179e+00
5.07163e-03,3.97058e+00
5.19257e-03,3.75189e+00
5.31640e-03,3.54504e+00
5.44319e-03,3.34939e+00
5.57299e-03,3.16436e+00
5.70589e-03,2.98936e+00
5.84196e-03,2.82385e+00
5.98128e-03,2.66734e+00
6.12392e-03,2.51933e+00
6.26996e-03,2.37937e+00
6.41948e-03,2.24703e+00
6.57257e-03,2.12189e+00
6.72931e-03,2.00357e+00
6.88979e-03,1.89170e+00
7.05409e-03,1.78594e+00
7.22231e-03,1.68596e+00
7.39455e-03,1.59144e+00
7.57089e-03,1.50209e+00
7.75143e-03,1.41763e+00
7.93628e-03,1.33780e+00
8.12555e-03,1.26235e+00
8.31932e-03,1.19104e+00
8.51771e-03,1.12365e+00
8.72084e-03,1.05997e+00
8.92881e-03,9.99798e-01
9.14174e-03,9.42942e-01
9.35975e-03,8.89223e-01
9.58295e-03,8.38472e-01
9.81148e-03,7.90528e-01
1.00455e-02,7.45240e-01
1.02850e-02,7.02463e-01
1.05303e-02,6.62061e-01
1.07814e-02,6.23905e-01
1.10385e-02,5.87874e-01
1.13018e-02,5.53851e-01
1.15713e-02,5.21727e-01
1.18472e-02,4.91400e-01
1.21298e-02,4.62771e-01
1.24190e-02,4.35747e-01
1.27152e-02,4.10241e-01
1.30184e-02,3.86170e-01
1.33289e-02,3.63456e-01
1.36467e-02,3.42024e-01
1.39722e-02,3.21805e-01
1.43054e-02,3.02731e-01
1.46465e-02,2.84740e-01
1.49958e-02,2.67772e-01
1.53534e-02,2.51771e-01
1.57195e-02,2.36684e-01
1.60944e-02,2.22461e-01
1.64782e-02,2.09053e-01
1.68712e-02,1.96416e-01
1.72735e-02,1.84507e-01
1.76854e-02,1.73286e-01
1.81072e-02,1.62714e-01
1.85390e-02,1.52756e-01
1.89811e-02,1.43377e-01
1.94338e-02,1.34545e-01
1.98972e-02,1.26229e-01
2.03717e-02,1.18401e-01
2.08575e-02,1.11033e-01
2.13549e-02,1.04100e-01
2.18642e-02,9.75765e-02
2.23856e-02,9.14400e-02
2.29194e-02,8.56685e-02
2.34660e-02,8.02414e-02
2.40256e-02,7.51391e-02
2.45986e-02,7.03432e-02
2.51852e-02,6.58363e-02
2.57858e-02,6.16018e-02
2.64007e-02,5.76242e-02
2.70303e-02,5.38886e-02
2.76749e-02,5.03813e-02
2.83349e-02,4.70890e-02
2.90106e-02,4.39992e-02
2.97024e-02,4.11003e-02
3.04107e-02,3.83811e-02
3.11359e-02,3.58312e-02
3.18785e-02,3.34406e-02
3.26387e-02,3.11999e-02
3.34170e-02,2.91004e-02
3.42139e-02,2.71337e-02
3.50299e-02,2.52919e-02
3.58652e-02,2.35676e-02
3.67205e-02,2.19537e-02
3.75962e-02,2.04437e-02
3.84928e-02,1.90312e-02
3.94107e-02,1.77104e-02
4.03506e-02,1.64757e-02
4.13128e-02,1.53219e-02
4.22981e-02,1.42440e-02
4.33068e-02,1.32373e-02
4.43395e-02,1.22975e-02
4.53969e-02,1.14204e-02
4.64795e-02,1.06021e-02
4.75879e-02,9.83883e-03
4.87228e-02,9.12726e-03
4.98847e-02,8.46406e-03
5.10743e-02,7.84618e-03
5.22923e-02,7.27071e-03
5.35393e-02,6.73493e-03
5.48161e-02,6.23629e-03
5.61233e-02,5.77238e-03
5.74617e-02,5.34094e-03
5.88321e-02,4.93984e-03
6.02350e-02,4.56709e-03
6.16715e-02,4.22080e-03
6.31422e-02,3.89922e-03
6.46480e-02,3.60070e-03
6.61897e-02,3.32368e-03
6.77681e-02,3.06671e-03
6.93842e-02,2.82843e-03
7.10389e-02,2.60756e-03
7.27330e-02,2.40291e-03
7.44675e-02,2.21334e-03
7.62433e-02,2.03782e-03
7.80615e-02,1.87537e-03
7.99231e-02,1.72506e-03
8.18291e-02,1.58604e-03
8.37805e-02,1.45750e-03
8.57784e-02,1.33871e-03
8.78240e-02,1.22895e-03
8.99184e-02,1.12758e-03
9.20627e-02,1.03398e-03
9.42582e-02,9.47604e-04
9.65060e-02,8.67906e-04
9.88074e-02,7.94399e-04
1.01164e-01,7.26625e-04
1.03576e-01,6.64157e-04
1.06046e-01,6.06598e-04
1.08575e-01,5.53580e-04
1.11164e-01,5.04759e-04
1.13815e-01,4.59818e-04
1.16530e-01,4.18461e-04
1.19309e-01,3.80414e-04
1.22154e-01,3.45421e-04
1.25067e-01,3.13248e-04
1.28049e-01,2.83675e-04
1.31103e-01,2.56499e-04
1.34229e-01,2.31535e-04
1.37431e-01,2.08607e-04
1.40708e-01,1.87555e-04
1.44063e-01,1.68230e-04
1.47499e-01,1.50496e-04
1.51016e-01,1.34226e-04
1.54618e-01,1.19302e-04
1.58305e-01,1.05615e-04
1.62080e-01,9.30677e-05
1.65945e-01,8.15662e-05
1.69903e-01,7.10260e-05
1.73955e-01,6.13689e-05
1.78103e-01,5.25227e-05
1.82350e-01,4.44209e-05
1.86699e-01,3.70025e-05
1.91151e-01,3.02110e-05
1.95710e-01,2.39946e-05
2.00377e-01,1.83058e-05
2.05155e-01,1.31006e-05
2.10048e-01,8.33874e-06
2.15057e-01,3.98322e-06
2.20185e-01,0.00000e+00
