m1=1213.840, m2=11.664, gsp=2.306, rhosp=10.371
fGW[Hz],dPh[rad]
8.59441e-03,1.52030e+03
8.85965e-03,1.42491e+03
9.13307e-03,1.33551e+03
9.41493e-03,1.25171e+03
9.70549e-03,1.17316e+03
1.00050e-02,1.09954e+03
1.03138e-02,1.03054e+03
1.06321e-02,9.65857e+02
1.09602e-02,9.05234e+02
1.12984e-02,8.48411e+02
1.16471e-02,7.95152e+02
1.20066e-02,7.45232e+02
1.23771e-02,6.98442e+02
1.27591e-02,6.54586e+02
1.31529e-02,6.13481e+02
1.35588e-02,5.74953e+02
1.39772e-02,5.38842e+02
1.44086e-02,5.04995e+02
1.48532e-02,4.73271e+02
1.53116e-02,4.43537e+02
1.57842e-02,4.15668e+02
1.62713e-02,3.89547e+02
1.67735e-02,3.65064e+02
1.72911e-02,3.42117e+02
1.78247e-02,3.20610e+02
1.83748e-02,3.00452e+02
1.89419e-02,2.81559e+02
1.95265e-02,2.63851e+02
2.01291e-02,2.47254e+02
2.07503e-02,2.31699e+02
2.13907e-02,2.17120e+02
2.20509e-02,2.03456e+02
2.27314e-02,1.90649e+02
2.34329e-02,1.78646e+02
2.41561e-02,1.67397e+02
2.49016e-02,1.56854e+02
2.56701e-02,1.46973e+02
2.64623e-02,1.37712e+02
2.72789e-02,1.29032e+02
2.81208e-02,1.20898e+02
2.89887e-02,1.13275e+02
2.98833e-02,1.06130e+02
3.08055e-02,9.94342e+01
3.17562e-02,9.31591e+01
3.27363e-02,8.72782e+01
3.37466e-02,8.17668e+01
3.47880e-02,7.66018e+01
3.58616e-02,7.17615e+01
3.69684e-02,6.72254e+01
3.81093e-02,6.29745e+01
3.92854e-02,5.89909e+01
4.04978e-02,5.52578e+01
4.17476e-02,5.17596e+01
4.30360e-02,4.84814e+01
4.43642e-02,4.54095e+01
4.57333e-02,4.25309e+01
4.71447e-02,3.98335e+01
4.85997e-02,3.73060e+01
5.00995e-02,3.49376e+01
5.16456e-02,3.27184e+01
5.32395e-02,3.06390e+01
5.48826e-02,2.86906e+01
5.65763e-02,2.68650e+01
5.83223e-02,2.51545e+01
6.01223e-02,2.35520e+01
6.19777e-02,2.20505e+01
6.38904e-02,2.06437e+01
6.58622e-02,1.93257e+01
6.78948e-02,1.80910e+01
6.99901e-02,1.69343e+01
7.21501e-02,1.58506e+01
7.43768e-02,1.48355e+01
7.66722e-02,1.38845e+01
7.90384e-02,1.29937e+01
8.14776e-02,1.21593e+01
8.39921e-02,1.13777e+01
8.65842e-02,1.06456e+01
8.92564e-02,9.95987e+00
9.20109e-02,9.31766e+00
9.48505e-02,8.71618e+00
9.77778e-02,8.15289e+00
1.00795e-01,7.62536e+00
1.03906e-01,7.13137e+00
1.07113e-01,6.66878e+00
1.10418e-01,6.23563e+00
1.13826e-01,5.83006e+00
1.17339e-01,5.45033e+00
1.20960e-01,5.09481e+00
1.24693e-01,4.76198e+00
1.28541e-01,4.45040e+00
1.32508e-01,4.15874e+00
1.36598e-01,3.88574e+00
1.40813e-01,3.63021e+00
1.45159e-01,3.39107e+00
1.49639e-01,3.16726e+00
1.54257e-01,2.95783e+00
1.59017e-01,2.76186e+00
1.63925e-01,2.57851e+00
1.68984e-01,2.40697e+00
1.74199e-01,2.24649e+00
1.79575e-01,2.09638e+00
1.85117e-01,1.95598e+00
1.90830e-01,1.82467e+00
1.96719e-01,1.70188e+00
2.02790e-01,1.58706e+00
2.09049e-01,1.47972e+00
2.15500e-01,1.37936e+00
2.22151e-01,1.28556e+00
2.29007e-01,1.19789e+00
2.36074e-01,1.11596e+00
2.43360e-01,1.03941e+00
2.50870e-01,9.67887e-01
2.58613e-01,9.01078e-01
2.66594e-01,8.38679e-01
2.74821e-01,7.80408e-01
2.83303e-01,7.26001e-01
2.92046e-01,6.75210e-01
3.01059e-01,6.27802e-01
3.10350e-01,5.83561e-01
3.19928e-01,5.42282e-01
3.29801e-01,5.03775e-01
3.39979e-01,4.67861e-01
3.50471e-01,4.34372e-01
3.61287e-01,4.03151e-01
3.72437e-01,3.74051e-01
3.83931e-01,3.46934e-01
3.95780e-01,3.21672e-01
4.07994e-01,2.98144e-01
4.20586e-01,2.76235e-01
4.33566e-01,2.55841e-01
4.46946e-01,2.36861e-01
4.60739e-01,2.19203e-01
4.74958e-01,2.02780e-01
4.89616e-01,1.87510e-01
5.04727e-01,1.73317e-01
5.20303e-01,1.60129e-01
5.36361e-01,1.47879e-01
5.52913e-01,1.36504e-01
5.69977e-01,1.25946e-01
5.87567e-01,1.16150e-01
6.05701e-01,1.07064e-01
6.24393e-01,9.86399e-02
6.43663e-01,9.08332e-02
6.63527e-01,8.36014e-02
6.84005e-01,7.69051e-02
7.05114e-01,7.07075e-02
7.26875e-01,6.49739e-02
7.49308e-01,5.96721e-02
7.72432e-01,5.47719e-02
7.96271e-01,5.02451e-02
8.20845e-01,4.60655e-02
8.46177e-01,4.22082e-02
8.72291e-01,3.86503e-02
8.99212e-01,3.53703e-02
9.26963e-01,3.23482e-02
9.55570e-01,2.95652e-02
9.85060e-01,2.70038e-02
1.01546e+00,2.46476e-02
1.04680e+00,2.24816e-02
1.07911e+00,2.04915e-02
1.11241e+00,1.86641e-02
1.14674e+00,1.69871e-02
1.18213e+00,1.54491e-02
1.21861e+00,1.40394e-02
1.25622e+00,1.27480e-02
1.29499e+00,1.15658e-02
1.33495e+00,1.04842e-02
1.37615e+00,9.49531e-03
1.41862e+00,8.59167e-03
1.46240e+00,7.76647e-03
1.50753e+00,7.01337e-03
1.55406e+00,6.32650e-03
1.60202e+00,5.70042e-03
1.65146e+00,5.13010e-03
1.70243e+00,4.61089e-03
1.75497e+00,4.13850e-03
1.80913e+00,3.70897e-03
1.86496e+00,3.31865e-03
1.92251e+00,2.96416e-03
1.98185e+00,2.64240e-03
2.04301e+00,2.35053e-03
2.10606e+00,2.08591e-03
2.17105e+00,1.84614e-03
2.23806e+00,1.62900e-03
2.30713e+00,1.43246e-03
2.37833e+00,1.25467e-03
2.45173e+00,1.09392e-03
2.52739e+00,9.48657e-04
2.60539e+00,8.17447e-04
2.68579e+00,6.98992e-04
2.76868e+00,5.92103e-04
2.85413e+00,4.95696e-04
2.94221e+00,4.08783e-04
3.03301e+00,3.30464e-04
3.12661e+00,2.59920e-04
3.22311e+00,1.96405e-04
3.32258e+00,1.39242e-04
3.42511e+00,8.78176e-05
3.53082e+00,4.15722e-05
3.63978e+00,0.00000e+00
