m1=32032.166, m2=3.759, gsp=2.331, rhosp=4561.939
fGW[Hz],dPh[rad]
5.79092e-03,1.53902e+05
5.88378e-03,1.46727e+05
5.97813e-03,1.39865e+05
6.07399e-03,1.33303e+05
6.17139e-03,1.27030e+05
6.27035e-03,1.21033e+05
6.37090e-03,1.15302e+05
6.47306e-03,1.09825e+05
6.57686e-03,1.04592e+05
6.68232e-03,9.95938e+04
6.78947e-03,9.48196e+04
6.89834e-03,9.02606e+04
7.00896e-03,8.59077e+04
7.12135e-03,8.17524e+04
7.23554e-03,7.77864e+04
7.35157e-03,7.40016e+04
7.46945e-03,7.03904e+04
7.58923e-03,6.69455e+04
7.71092e-03,6.36596e+04
7.83457e-03,6.05262e+04
7.96020e-03,5.75384e+04
8.08784e-03,5.46902e+04
8.21754e-03,5.19754e+04
8.34931e-03,4.93882e+04
8.48319e-03,4.69230e+04
8.61922e-03,4.45745e+04
8.75743e-03,4.23375e+04
8.89786e-03,4.02071e+04
9.04054e-03,3.81786e+04
9.18551e-03,3.62473e+04
9.33280e-03,3.44090e+04
9.48246e-03,3.26595e+04
9.63451e-03,3.09947e+04
9.78900e-03,2.94108e+04
9.94597e-03,2.79041e+04
1.01055e-02,2.64712e+04
1.02675e-02,2.51085e+04
1.04321e-02,2.38128e+04
1.05994e-02,2.25812e+04
1.07694e-02,2.14105e+04
1.09421e-02,2.02979e+04
1.11175e-02,1.92408e+04
1.12958e-02,1.82365e+04
1.14769e-02,1.72824e+04
1.16610e-02,1.63764e+04
1.18480e-02,1.55160e+04
1.20380e-02,1.46990e+04
1.22310e-02,1.39235e+04
1.24271e-02,1.31873e+04
1.26264e-02,1.24887e+04
1.28289e-02,1.18257e+04
1.30346e-02,1.11968e+04
1.32436e-02,1.06001e+04
1.34560e-02,1.00341e+04
1.36717e-02,9.49732e+03
1.38910e-02,8.98834e+03
1.41137e-02,8.50575e+03
1.43400e-02,8.04825e+03
1.45700e-02,7.61460e+03
1.48036e-02,7.20361e+03
1.50410e-02,6.81413e+03
1.52822e-02,6.44509e+03
1.55272e-02,6.09547e+03
1.57762e-02,5.76427e+03
1.60292e-02,5.45057e+03
1.62862e-02,5.15348e+03
1.65474e-02,4.87215e+03
1.68127e-02,4.60577e+03
1.70823e-02,4.35358e+03
1.73562e-02,4.11486e+03
1.76345e-02,3.88890e+03
1.79173e-02,3.67505e+03
1.82046e-02,3.47267e+03
1.84965e-02,3.28119e+03
1.87931e-02,3.10001e+03
1.90945e-02,2.92862e+03
1.94007e-02,2.76650e+03
1.97118e-02,2.61315e+03
2.00279e-02,2.46813e+03
2.03490e-02,2.33098e+03
2.06753e-02,2.20130e+03
2.10069e-02,2.07870e+03
2.13437e-02,1.96278e+03
2.16860e-02,1.85321e+03
2.20337e-02,1.74963e+03
2.23870e-02,1.65174e+03
2.27460e-02,1.55922e+03
2.31107e-02,1.47179e+03
2.34813e-02,1.38918e+03
2.38579e-02,1.31113e+03
2.42404e-02,1.23738e+03
2.46291e-02,1.16772e+03
2.50241e-02,1.10191e+03
2.54253e-02,1.03975e+03
2.58330e-02,9.81035e+02
2.62473e-02,9.25587e+02
2.66682e-02,8.73224e+02
2.70958e-02,8.23778e+02
2.75303e-02,7.77089e+02
2.79717e-02,7.33006e+02
2.84203e-02,6.91386e+02
2.88760e-02,6.52095e+02
2.93390e-02,6.15004e+02
2.98095e-02,5.79992e+02
3.02875e-02,5.46945e+02
3.07732e-02,5.15753e+02
3.12666e-02,4.86315e+02
3.17680e-02,4.58534e+02
3.22774e-02,4.32316e+02
3.27950e-02,4.07577e+02
3.33209e-02,3.84233e+02
3.38552e-02,3.62207e+02
3.43981e-02,3.41426e+02
3.49496e-02,3.21820e+02
3.55101e-02,3.03323e+02
3.60795e-02,2.85874e+02
3.66580e-02,2.69414e+02
3.72459e-02,2.53888e+02
3.78431e-02,2.39243e+02
3.84499e-02,2.25429e+02
3.90665e-02,2.12401e+02
3.96929e-02,2.00114e+02
4.03294e-02,1.88526e+02
4.09761e-02,1.77598e+02
4.16332e-02,1.67293e+02
4.23008e-02,1.57575e+02
4.29791e-02,1.48411e+02
4.36683e-02,1.39771e+02
4.43685e-02,1.31624e+02
4.50800e-02,1.23942e+02
4.58028e-02,1.16700e+02
4.65373e-02,1.09872e+02
4.72835e-02,1.03435e+02
4.80417e-02,9.73665e+01
4.88121e-02,9.16456e+01
4.95948e-02,8.62525e+01
5.03901e-02,8.11687e+01
5.11981e-02,7.63765e+01
5.20191e-02,7.18594e+01
5.28532e-02,6.76015e+01
5.37008e-02,6.35883e+01
5.45619e-02,5.98056e+01
5.54368e-02,5.62404e+01
5.63257e-02,5.28802e+01
5.72289e-02,4.97133e+01
5.81466e-02,4.67287e+01
5.90790e-02,4.39159e+01
6.00264e-02,4.12651e+01
6.09889e-02,3.87669e+01
6.19669e-02,3.64128e+01
6.29605e-02,3.41943e+01
6.39701e-02,3.21038e+01
6.49959e-02,3.01338e+01
6.60381e-02,2.82775e+01
6.70971e-02,2.65284e+01
6.81730e-02,2.48802e+01
6.92662e-02,2.33272e+01
7.03769e-02,2.18639e+01
7.15054e-02,2.04852e+01
7.26520e-02,1.91861e+01
7.38170e-02,1.79622e+01
7.50007e-02,1.68090e+01
7.62033e-02,1.57225e+01
7.74253e-02,1.46988e+01
7.86668e-02,1.37344e+01
7.99283e-02,1.28258e+01
8.12100e-02,1.19698e+01
8.25122e-02,1.11633e+01
8.38353e-02,1.04036e+01
8.51796e-02,9.68783e+00
8.65455e-02,9.01356e+00
8.79333e-02,8.37835e+00
8.93433e-02,7.77995e+00
9.07760e-02,7.21624e+00
9.22316e-02,6.68521e+00
9.37106e-02,6.18498e+00
9.52132e-02,5.71375e+00
9.67400e-02,5.26985e+00
9.82913e-02,4.85171e+00
9.98674e-02,4.45783e+00
1.01469e-01,4.08680e+00
1.03096e-01,3.73731e+00
1.04749e-01,3.40810e+00
1.06429e-01,3.09801e+00
1.08135e-01,2.80592e+00
1.09869e-01,2.53079e+00
1.11631e-01,2.27164e+00
1.13421e-01,2.02755e+00
1.15240e-01,1.79763e+00
1.17088e-01,1.58107e+00
1.18965e-01,1.37710e+00
1.20873e-01,1.18497e+00
1.22811e-01,1.00402e+00
1.24781e-01,8.33576e-01
1.26781e-01,6.73044e-01
1.28814e-01,5.21845e-01
1.30880e-01,3.79437e-01
1.32979e-01,2.45309e-01
1.35111e-01,1.18981e-01
1.37278e-01,0.00000e+00
