m1=132701.159, m2=6.100, gsp=2.181, rhosp=4950.926
fGW[Hz],dPh[rad]
3.38532e-03,4.45146e+03
3.42435e-03,4.26692e+03
3.46383e-03,4.08990e+03
3.50376e-03,3.92008e+03
3.54416e-03,3.75718e+03
3.58502e-03,3.60093e+03
3.62635e-03,3.45106e+03
3.66816e-03,3.30732e+03
3.71045e-03,3.16946e+03
3.75323e-03,3.03725e+03
3.79650e-03,2.91047e+03
3.84027e-03,2.78889e+03
3.88454e-03,2.67230e+03
3.92933e-03,2.56051e+03
3.97463e-03,2.45333e+03
4.02045e-03,2.35056e+03
4.06680e-03,2.25203e+03
4.11369e-03,2.15757e+03
4.16112e-03,2.06701e+03
4.20909e-03,1.98020e+03
4.25762e-03,1.89698e+03
4.30671e-03,1.81721e+03
4.35636e-03,1.74075e+03
4.40658e-03,1.66746e+03
4.45739e-03,1.59722e+03
4.50878e-03,1.52989e+03
4.56076e-03,1.46536e+03
4.61334e-03,1.40353e+03
4.66653e-03,1.34426e+03
4.72033e-03,1.28747e+03
4.77475e-03,1.23305e+03
4.82980e-03,1.18090e+03
4.88548e-03,1.13093e+03
4.94181e-03,1.08305e+03
4.99878e-03,1.03717e+03
5.05641e-03,9.93213e+02
5.11471e-03,9.51098e+02
5.17368e-03,9.10749e+02
5.23332e-03,8.72092e+02
5.29366e-03,8.35059e+02
5.35469e-03,7.99581e+02
5.41642e-03,7.65594e+02
5.47887e-03,7.33037e+02
5.54204e-03,7.01849e+02
5.60593e-03,6.71975e+02
5.67056e-03,6.43360e+02
5.73594e-03,6.15951e+02
5.80207e-03,5.89698e+02
5.86896e-03,5.64553e+02
5.93663e-03,5.40470e+02
6.00507e-03,5.17404e+02
6.07430e-03,4.95313e+02
6.14433e-03,4.74156e+02
6.21517e-03,4.53895e+02
6.28683e-03,4.34491e+02
6.35931e-03,4.15910e+02
6.43263e-03,3.98115e+02
6.50679e-03,3.81075e+02
6.58181e-03,3.64758e+02
6.65769e-03,3.49133e+02
6.73444e-03,3.34171e+02
6.81209e-03,3.19845e+02
6.89062e-03,3.06127e+02
6.97007e-03,2.92993e+02
7.05042e-03,2.80417e+02
7.13171e-03,2.68376e+02
7.21393e-03,2.56848e+02
7.29710e-03,2.45810e+02
7.38123e-03,2.35243e+02
7.46633e-03,2.25126e+02
7.55241e-03,2.15440e+02
7.63948e-03,2.06167e+02
7.72756e-03,1.97290e+02
7.81665e-03,1.88791e+02
7.90677e-03,1.80655e+02
7.99793e-03,1.72867e+02
8.09014e-03,1.65411e+02
8.18341e-03,1.58274e+02
8.27775e-03,1.51442e+02
8.37319e-03,1.44902e+02
8.46972e-03,1.38642e+02
8.56737e-03,1.32649e+02
8.66615e-03,1.26913e+02
8.76606e-03,1.21423e+02
8.86712e-03,1.16168e+02
8.96935e-03,1.11137e+02
9.07276e-03,1.06323e+02
9.17736e-03,1.01714e+02
9.28317e-03,9.73036e+01
9.39020e-03,9.30820e+01
9.49846e-03,8.90415e+01
9.60796e-03,8.51743e+01
9.71874e-03,8.14730e+01
9.83078e-03,7.79307e+01
9.94412e-03,7.45404e+01
1.00588e-02,7.12957e+01
1.01747e-02,6.81904e+01
1.02920e-02,6.52186e+01
1.04107e-02,6.23744e+01
1.05307e-02,5.96525e+01
1.06521e-02,5.70477e+01
1.07749e-02,5.45548e+01
1.08992e-02,5.21692e+01
1.10248e-02,4.98862e+01
1.11519e-02,4.77015e+01
1.12805e-02,4.56107e+01
1.14106e-02,4.36100e+01
1.15421e-02,4.16954e+01
1.16752e-02,3.98633e+01
1.18098e-02,3.81101e+01
1.19459e-02,3.64324e+01
1.20837e-02,3.48270e+01
1.22230e-02,3.32908e+01
1.23639e-02,3.18208e+01
1.25064e-02,3.04142e+01
1.26506e-02,2.90682e+01
1.27965e-02,2.77803e+01
1.29440e-02,2.65479e+01
1.30933e-02,2.53687e+01
1.32442e-02,2.42403e+01
1.33969e-02,2.31607e+01
1.35514e-02,2.21276e+01
1.37076e-02,2.11391e+01
1.38656e-02,2.01933e+01
1.40255e-02,1.92884e+01
1.41872e-02,1.84225e+01
1.43507e-02,1.75940e+01
1.45162e-02,1.68013e+01
1.46836e-02,1.60429e+01
1.48528e-02,1.53172e+01
1.50241e-02,1.46228e+01
1.51973e-02,1.39585e+01
1.53725e-02,1.33229e+01
1.55497e-02,1.27148e+01
1.57290e-02,1.21329e+01
1.59104e-02,1.15762e+01
1.60938e-02,1.10436e+01
1.62793e-02,1.05340e+01
1.64670e-02,1.00465e+01
1.66569e-02,9.58004e+00
1.68489e-02,9.13376e+00
1.70432e-02,8.70679e+00
1.72397e-02,8.29830e+00
1.74384e-02,7.90748e+00
1.76395e-02,7.53357e+00
1.78428e-02,7.17585e+00
1.80485e-02,6.83361e+00
1.82566e-02,6.50619e+00
1.84671e-02,6.19294e+00
1.86800e-02,5.89326e+00
1.88954e-02,5.60655e+00
1.91132e-02,5.33226e+00
1.93336e-02,5.06984e+00
1.95565e-02,4.81880e+00
1.97819e-02,4.57862e+00
2.00100e-02,4.34885e+00
2.02407e-02,4.12904e+00
2.04741e-02,3.91874e+00
2.07101e-02,3.71756e+00
2.09489e-02,3.52510e+00
2.11904e-02,3.34097e+00
2.14347e-02,3.16483e+00
2.16818e-02,2.99632e+00
2.19318e-02,2.83511e+00
2.21847e-02,2.68090e+00
2.24404e-02,2.53336e+00
2.26991e-02,2.39223e+00
2.29608e-02,2.25721e+00
2.32256e-02,2.12804e+00
2.34933e-02,2.00448e+00
2.37642e-02,1.88627e+00
2.40382e-02,1.77319e+00
2.43153e-02,1.66502e+00
2.45956e-02,1.56154e+00
2.48792e-02,1.46254e+00
2.51660e-02,1.36784e+00
2.54562e-02,1.27724e+00
2.57497e-02,1.19058e+00
2.60465e-02,1.10768e+00
2.63468e-02,1.02837e+00
2.66506e-02,9.52501e-01
2.69578e-02,8.79925e-01
2.72686e-02,8.10499e-01
2.75830e-02,7.44086e-01
2.79010e-02,6.80554e-01
2.82227e-02,6.19779e-01
2.85481e-02,5.61642e-01
2.88772e-02,5.06028e-01
2.92101e-02,4.52828e-01
2.95469e-02,4.01937e-01
2.98876e-02,3.53254e-01
3.02321e-02,3.06685e-01
3.05807e-02,2.62138e-01
3.09333e-02,2.19524e-01
3.12899e-02,1.78760e-01
3.16506e-02,1.39766e-01
3.20155e-02,1.02465e-01
3.23846e-02,6.67830e-02
3.27580e-02,3.26505e-02
3.31357e-02,0.00000e+00
