m1=34066.580, m2=14.509, gsp=2.426, rhosp=3906.502
fGW[Hz],dPh[rad]
3.43670e-03,3.24908e+05
3.49990e-03,3.10938e+05
3.56425e-03,2.97530e+05
3.62979e-03,2.84664e+05
3.69654e-03,2.72319e+05
3.76451e-03,2.60475e+05
3.83374e-03,2.49112e+05
3.90423e-03,2.38213e+05
3.97603e-03,2.27759e+05
4.04914e-03,2.17734e+05
4.12360e-03,2.08120e+05
4.19943e-03,1.98903e+05
4.27665e-03,1.90066e+05
4.35529e-03,1.81594e+05
4.43537e-03,1.73475e+05
4.51693e-03,1.65693e+05
4.59999e-03,1.58237e+05
4.68458e-03,1.51092e+05
4.77072e-03,1.44248e+05
4.85845e-03,1.37691e+05
4.94779e-03,1.31412e+05
5.03877e-03,1.25399e+05
5.13143e-03,1.19641e+05
5.22579e-03,1.14129e+05
5.32188e-03,1.08852e+05
5.41974e-03,1.03802e+05
5.51940e-03,9.89693e+04
5.62090e-03,9.43453e+04
5.72426e-03,8.99217e+04
5.82952e-03,8.56904e+04
5.93671e-03,8.16438e+04
6.04588e-03,7.77743e+04
6.15705e-03,7.40749e+04
6.27027e-03,7.05386e+04
6.38557e-03,6.71588e+04
6.50299e-03,6.39292e+04
6.62258e-03,6.08435e+04
6.74435e-03,5.78960e+04
6.86837e-03,5.50808e+04
6.99467e-03,5.23926e+04
7.12329e-03,4.98260e+04
7.25428e-03,4.73761e+04
7.38768e-03,4.50379e+04
7.52352e-03,4.28068e+04
7.66187e-03,4.06783e+04
7.80276e-03,3.86481e+04
7.94624e-03,3.67119e+04
8.09236e-03,3.48658e+04
8.24117e-03,3.31060e+04
8.39271e-03,3.14288e+04
8.54704e-03,2.98306e+04
8.70421e-03,2.83079e+04
8.86426e-03,2.68576e+04
9.02726e-03,2.54765e+04
9.19326e-03,2.41615e+04
9.36231e-03,2.29098e+04
9.53447e-03,2.17186e+04
9.70979e-03,2.05851e+04
9.88834e-03,1.95068e+04
1.00702e-02,1.84813e+04
1.02553e-02,1.75062e+04
1.04439e-02,1.65791e+04
1.06360e-02,1.56980e+04
1.08316e-02,1.48607e+04
1.10307e-02,1.40653e+04
1.12336e-02,1.33097e+04
1.14401e-02,1.25923e+04
1.16505e-02,1.19111e+04
1.18647e-02,1.12645e+04
1.20829e-02,1.06510e+04
1.23051e-02,1.00688e+04
1.25314e-02,9.51665e+03
1.27618e-02,8.99299e+03
1.29965e-02,8.49649e+03
1.32355e-02,8.02585e+03
1.34788e-02,7.57982e+03
1.37267e-02,7.15722e+03
1.39791e-02,6.75689e+03
1.42362e-02,6.37776e+03
1.44980e-02,6.01877e+03
1.47645e-02,5.67893e+03
1.50360e-02,5.35730e+03
1.53125e-02,5.05296e+03
1.55941e-02,4.76504e+03
1.58809e-02,4.49272e+03
1.61729e-02,4.23521e+03
1.64703e-02,3.99176e+03
1.67731e-02,3.76165e+03
1.70816e-02,3.54418e+03
1.73957e-02,3.33872e+03
1.77156e-02,3.14464e+03
1.80413e-02,2.96134e+03
1.83731e-02,2.78827e+03
1.87109e-02,2.62488e+03
1.90550e-02,2.47066e+03
1.94054e-02,2.32513e+03
1.97622e-02,2.18783e+03
2.01256e-02,2.05831e+03
2.04957e-02,1.93617e+03
2.08726e-02,1.82099e+03
2.12564e-02,1.71240e+03
2.16473e-02,1.61006e+03
2.20453e-02,1.51360e+03
2.24507e-02,1.42272e+03
2.28636e-02,1.33710e+03
2.32840e-02,1.25646e+03
2.37121e-02,1.18051e+03
2.41482e-02,1.10901e+03
2.45922e-02,1.04169e+03
2.50444e-02,9.78322e+02
2.55050e-02,9.18689e+02
2.59740e-02,8.62577e+02
2.64516e-02,8.09786e+02
2.69380e-02,7.60128e+02
2.74333e-02,7.13424e+02
2.79378e-02,6.69505e+02
2.84515e-02,6.28210e+02
2.89747e-02,5.89389e+02
2.95075e-02,5.52899e+02
3.00501e-02,5.18604e+02
3.06027e-02,4.86377e+02
3.11654e-02,4.56098e+02
3.17385e-02,4.27651e+02
3.23221e-02,4.00931e+02
3.29165e-02,3.75835e+02
3.35218e-02,3.52267e+02
3.41382e-02,3.30137e+02
3.47659e-02,3.09361e+02
3.54052e-02,2.89857e+02
3.60563e-02,2.71549e+02
3.67193e-02,2.54367e+02
3.73945e-02,2.38242e+02
3.80821e-02,2.23111e+02
3.87824e-02,2.08915e+02
3.94955e-02,1.95598e+02
4.02218e-02,1.83105e+02
4.09614e-02,1.71387e+02
4.17147e-02,1.60397e+02
4.24817e-02,1.50092e+02
4.32629e-02,1.40428e+02
4.40584e-02,1.31367e+02
4.48686e-02,1.22872e+02
4.56937e-02,1.14909e+02
4.65339e-02,1.07445e+02
4.73896e-02,1.00448e+02
4.82610e-02,9.38912e+01
4.91485e-02,8.77462e+01
5.00522e-02,8.19879e+01
5.09726e-02,7.65924e+01
5.19099e-02,7.15372e+01
5.28645e-02,6.68011e+01
5.38366e-02,6.23643e+01
5.48265e-02,5.82081e+01
5.58347e-02,5.43152e+01
5.68614e-02,5.06690e+01
5.79070e-02,4.72541e+01
5.89719e-02,4.40560e+01
6.00563e-02,4.10611e+01
6.11606e-02,3.82567e+01
6.22853e-02,3.56309e+01
6.34306e-02,3.31723e+01
6.45970e-02,3.08705e+01
6.57848e-02,2.87155e+01
6.69945e-02,2.66982e+01
6.82264e-02,2.48097e+01
6.94810e-02,2.30420e+01
7.07587e-02,2.13874e+01
7.20598e-02,1.98388e+01
7.33849e-02,1.83893e+01
7.47343e-02,1.70328e+01
7.61086e-02,1.57633e+01
7.75081e-02,1.45753e+01
7.89333e-02,1.34636e+01
8.03848e-02,1.24233e+01
8.18630e-02,1.14499e+01
8.33683e-02,1.05391e+01
8.49013e-02,9.68691e+00
8.64625e-02,8.88961e+00
8.80524e-02,8.14368e+00
8.96716e-02,7.44582e+00
9.13205e-02,6.79296e+00
9.29998e-02,6.18222e+00
9.47099e-02,5.61090e+00
9.64515e-02,5.07646e+00
9.82251e-02,4.57655e+00
1.00031e-01,4.10894e+00
1.01871e-01,3.67155e+00
1.03744e-01,3.26245e+00
1.05652e-01,2.87981e+00
1.07594e-01,2.52194e+00
1.09573e-01,2.18723e+00
1.11588e-01,1.87420e+00
1.13640e-01,1.58144e+00
1.15729e-01,1.30766e+00
1.17857e-01,1.05162e+00
1.20025e-01,8.12179e-01
1.22232e-01,5.88269e-01
1.24479e-01,3.78885e-01
1.26768e-01,1.83088e-01
1.29099e-01,0.00000e+00
