m1=55931.022, m2=3.455, gsp=2.119, rhosp=1061.967
fGW[Hz],dPh[rad]
5.19983e-03,2.08977e+03
5.27128e-03,1.99174e+03
5.34372e-03,1.89815e+03
5.41715e-03,1.80879e+03
5.49159e-03,1.72349e+03
5.56706e-03,1.64208e+03
5.64356e-03,1.56437e+03
5.72111e-03,1.49022e+03
5.79973e-03,1.41947e+03
5.87942e-03,1.35196e+03
5.96022e-03,1.28756e+03
6.04212e-03,1.22613e+03
6.12515e-03,1.16754e+03
6.20932e-03,1.11166e+03
6.29465e-03,1.05838e+03
6.38114e-03,1.00757e+03
6.46883e-03,9.59128e+02
6.55772e-03,9.12947e+02
6.64784e-03,8.68926e+02
6.73919e-03,8.26968e+02
6.83180e-03,7.86979e+02
6.92568e-03,7.48871e+02
7.02085e-03,7.12559e+02
7.11733e-03,6.77961e+02
7.21513e-03,6.44999e+02
7.31428e-03,6.13598e+02
7.41479e-03,5.83688e+02
7.51668e-03,5.55199e+02
7.61997e-03,5.28068e+02
7.72468e-03,5.02230e+02
7.83083e-03,4.77626e+02
7.93844e-03,4.54200e+02
8.04753e-03,4.31897e+02
8.15812e-03,4.10664e+02
8.27022e-03,3.90453e+02
8.38387e-03,3.71214e+02
8.49908e-03,3.52903e+02
8.61587e-03,3.35477e+02
8.73427e-03,3.18894e+02
8.85429e-03,3.03113e+02
8.97596e-03,2.88098e+02
9.09931e-03,2.73813e+02
9.22435e-03,2.60222e+02
9.35110e-03,2.47293e+02
9.47960e-03,2.34995e+02
9.60987e-03,2.23297e+02
9.74193e-03,2.12171e+02
9.87580e-03,2.01590e+02
1.00115e-02,1.91527e+02
1.01491e-02,1.81958e+02
1.02885e-02,1.72859e+02
1.04299e-02,1.64208e+02
1.05733e-02,1.55983e+02
1.07185e-02,1.48163e+02
1.08658e-02,1.40730e+02
1.10152e-02,1.33663e+02
1.11665e-02,1.26946e+02
1.13200e-02,1.20562e+02
1.14755e-02,1.14494e+02
1.16332e-02,1.08727e+02
1.17931e-02,1.03247e+02
1.19551e-02,9.80388e+01
1.21194e-02,9.30900e+01
1.22860e-02,8.83877e+01
1.24548e-02,8.39198e+01
1.26259e-02,7.96748e+01
1.27994e-02,7.56419e+01
1.29753e-02,7.18105e+01
1.31536e-02,6.81709e+01
1.33344e-02,6.47134e+01
1.35176e-02,6.14292e+01
1.37034e-02,5.83098e+01
1.38917e-02,5.53469e+01
1.40826e-02,5.25328e+01
1.42761e-02,4.98603e+01
1.44723e-02,4.73221e+01
1.46711e-02,4.49118e+01
1.48727e-02,4.26228e+01
1.50771e-02,4.04493e+01
1.52843e-02,3.83855e+01
1.54943e-02,3.64258e+01
1.57073e-02,3.45651e+01
1.59231e-02,3.27985e+01
1.61419e-02,3.11213e+01
1.63637e-02,2.95289e+01
1.65886e-02,2.80172e+01
1.68165e-02,2.65822e+01
1.70476e-02,2.52198e+01
1.72819e-02,2.39266e+01
1.75194e-02,2.26991e+01
1.77601e-02,2.15339e+01
1.80042e-02,2.04279e+01
1.82516e-02,1.93782e+01
1.85024e-02,1.83818e+01
1.87566e-02,1.74362e+01
1.90144e-02,1.65387e+01
1.92757e-02,1.56870e+01
1.95406e-02,1.48787e+01
1.98091e-02,1.41116e+01
2.00813e-02,1.33836e+01
2.03572e-02,1.26928e+01
2.06370e-02,1.20373e+01
2.09206e-02,1.14153e+01
2.12080e-02,1.08250e+01
2.14995e-02,1.02650e+01
2.17949e-02,9.73357e+00
2.20944e-02,9.22936e+00
2.23980e-02,8.75096e+00
2.27058e-02,8.29706e+00
2.30178e-02,7.86642e+00
2.33341e-02,7.45784e+00
2.36548e-02,7.07022e+00
2.39798e-02,6.70247e+00
2.43094e-02,6.35360e+00
2.46434e-02,6.02262e+00
2.49821e-02,5.70864e+00
2.53254e-02,5.41079e+00
2.56734e-02,5.12824e+00
2.60262e-02,4.86020e+00
2.63838e-02,4.60595e+00
2.67464e-02,4.36476e+00
2.71139e-02,4.13599e+00
2.74865e-02,3.91898e+00
2.78642e-02,3.71314e+00
2.82471e-02,3.51790e+00
2.86353e-02,3.33271e+00
2.90288e-02,3.15705e+00
2.94277e-02,2.99045e+00
2.98321e-02,2.83243e+00
3.02420e-02,2.68256e+00
3.06576e-02,2.54041e+00
3.10789e-02,2.40559e+00
3.15059e-02,2.27773e+00
3.19389e-02,2.15646e+00
3.23778e-02,2.04145e+00
3.28227e-02,1.93238e+00
3.32737e-02,1.82893e+00
3.37310e-02,1.73083e+00
3.41945e-02,1.63779e+00
3.46644e-02,1.54956e+00
3.51407e-02,1.46589e+00
3.56236e-02,1.38654e+00
3.61131e-02,1.31129e+00
3.66094e-02,1.23994e+00
3.71125e-02,1.17227e+00
3.76225e-02,1.10810e+00
3.81395e-02,1.04725e+00
3.86636e-02,9.89542e-01
3.91949e-02,9.34823e-01
3.97335e-02,8.82936e-01
4.02795e-02,8.33734e-01
4.08330e-02,7.87078e-01
4.13941e-02,7.42838e-01
4.19629e-02,7.00888e-01
4.25395e-02,6.61111e-01
4.31241e-02,6.23393e-01
4.37167e-02,5.87629e-01
4.43175e-02,5.53717e-01
4.49264e-02,5.21563e-01
4.55438e-02,4.91074e-01
4.61697e-02,4.62166e-01
4.68041e-02,4.34755e-01
4.74473e-02,4.08766e-01
4.80993e-02,3.84123e-01
4.87602e-02,3.60759e-01
4.94303e-02,3.38605e-01
5.01095e-02,3.17601e-01
5.07981e-02,2.97685e-01
5.14962e-02,2.78803e-01
5.22038e-02,2.60900e-01
5.29212e-02,2.43926e-01
5.36484e-02,2.27833e-01
5.43856e-02,2.12575e-01
5.51330e-02,1.98108e-01
5.58906e-02,1.84392e-01
5.66586e-02,1.71388e-01
5.74372e-02,1.59059e-01
5.82265e-02,1.47370e-01
5.90266e-02,1.36288e-01
5.98378e-02,1.25781e-01
6.06600e-02,1.15820e-01
6.14936e-02,1.06376e-01
6.23386e-02,9.74222e-02
6.31953e-02,8.89336e-02
6.40637e-02,8.08859e-02
6.49440e-02,7.32561e-02
6.58364e-02,6.60227e-02
6.67411e-02,5.91651e-02
6.76583e-02,5.26637e-02
6.85880e-02,4.65001e-02
6.95305e-02,4.06567e-02
7.04860e-02,3.51170e-02
7.14546e-02,2.98652e-02
7.24365e-02,2.48862e-02
7.34319e-02,2.01661e-02
7.44410e-02,1.56912e-02
7.54639e-02,1.14490e-02
7.65009e-02,7.42719e-03
7.75522e-02,3.61450e-03
7.86179e-02,0.00000e+00
