m1=241462.730, m2=36.086, gsp=2.409, rhosp=23.543
fGW[Hz],dPh[rad]
1.49660e-03,3.95341e+04
1.51551e-03,3.79433e+04
1.53466e-03,3.64135e+04
1.55405e-03,3.49425e+04
1.57369e-03,3.35283e+04
1.59358e-03,3.21688e+04
1.61371e-03,3.08620e+04
1.63410e-03,2.96060e+04
1.65475e-03,2.83989e+04
1.67566e-03,2.72390e+04
1.69684e-03,2.61244e+04
1.71828e-03,2.50536e+04
1.73999e-03,2.40248e+04
1.76198e-03,2.30367e+04
1.78424e-03,2.20875e+04
1.80679e-03,2.11759e+04
1.82962e-03,2.03005e+04
1.85274e-03,1.94599e+04
1.87615e-03,1.86528e+04
1.89986e-03,1.78779e+04
1.92387e-03,1.71341e+04
1.94818e-03,1.64200e+04
1.97279e-03,1.57347e+04
1.99772e-03,1.50770e+04
2.02297e-03,1.44458e+04
2.04853e-03,1.38401e+04
2.07441e-03,1.32589e+04
2.10063e-03,1.27014e+04
2.12717e-03,1.21665e+04
2.15405e-03,1.16534e+04
2.18127e-03,1.11613e+04
2.20883e-03,1.06893e+04
2.23674e-03,1.02367e+04
2.26501e-03,9.80258e+03
2.29363e-03,9.38636e+03
2.32261e-03,8.98728e+03
2.35196e-03,8.60468e+03
2.38168e-03,8.23790e+03
2.41178e-03,7.88631e+03
2.44225e-03,7.54930e+03
2.47311e-03,7.22630e+03
2.50436e-03,6.91674e+03
2.53601e-03,6.62009e+03
2.56805e-03,6.33583e+03
2.60050e-03,6.06345e+03
2.63337e-03,5.80248e+03
2.66664e-03,5.55247e+03
2.70034e-03,5.31295e+03
2.73446e-03,5.08352e+03
2.76901e-03,4.86375e+03
2.80400e-03,4.65326e+03
2.83943e-03,4.45166e+03
2.87531e-03,4.25859e+03
2.91165e-03,4.07371e+03
2.94844e-03,3.89667e+03
2.98570e-03,3.72716e+03
3.02342e-03,3.56485e+03
3.06163e-03,3.40947e+03
3.10032e-03,3.26071e+03
3.13949e-03,3.11830e+03
3.17916e-03,2.98199e+03
3.21934e-03,2.85151e+03
3.26002e-03,2.72662e+03
3.30121e-03,2.60710e+03
3.34293e-03,2.49271e+03
3.38517e-03,2.38324e+03
3.42794e-03,2.27849e+03
3.47126e-03,2.17825e+03
3.51512e-03,2.08234e+03
3.55954e-03,1.99057e+03
3.60452e-03,1.90278e+03
3.65007e-03,1.81878e+03
3.69619e-03,1.73843e+03
3.74290e-03,1.66156e+03
3.79019e-03,1.58803e+03
3.83809e-03,1.51769e+03
3.88659e-03,1.45042e+03
3.93570e-03,1.38608e+03
3.98543e-03,1.32454e+03
4.03579e-03,1.26568e+03
4.08679e-03,1.20940e+03
4.13843e-03,1.15558e+03
4.19072e-03,1.10411e+03
4.24368e-03,1.05490e+03
4.29730e-03,1.00784e+03
4.35160e-03,9.62843e+02
4.40659e-03,9.19823e+02
4.46227e-03,8.78694e+02
4.51866e-03,8.39372e+02
4.57576e-03,8.01780e+02
4.63358e-03,7.65843e+02
4.69213e-03,7.31490e+02
4.75142e-03,6.98651e+02
4.81146e-03,6.67261e+02
4.87226e-03,6.37257e+02
4.93383e-03,6.08579e+02
4.99617e-03,5.81168e+02
5.05930e-03,5.54970e+02
5.12323e-03,5.29932e+02
5.18797e-03,5.06003e+02
5.25353e-03,4.83135e+02
5.31991e-03,4.61281e+02
5.38714e-03,4.40397e+02
5.45521e-03,4.20440e+02
5.52414e-03,4.01370e+02
5.59395e-03,3.83147e+02
5.66463e-03,3.65735e+02
5.73621e-03,3.49098e+02
5.80870e-03,3.33202e+02
5.88210e-03,3.18014e+02
5.95642e-03,3.03503e+02
6.03169e-03,2.89639e+02
6.10791e-03,2.76394e+02
6.18509e-03,2.63740e+02
6.26325e-03,2.51651e+02
6.34239e-03,2.40102e+02
6.42253e-03,2.29070e+02
6.50369e-03,2.18530e+02
6.58587e-03,2.08463e+02
6.66909e-03,1.98846e+02
6.75336e-03,1.89660e+02
6.83870e-03,1.80885e+02
6.92512e-03,1.72504e+02
7.01262e-03,1.64498e+02
7.10124e-03,1.56852e+02
7.19097e-03,1.49548e+02
7.28184e-03,1.42573e+02
7.37385e-03,1.35910e+02
7.46703e-03,1.29547e+02
7.56138e-03,1.23470e+02
7.65693e-03,1.17666e+02
7.75368e-03,1.12123e+02
7.85166e-03,1.06829e+02
7.95088e-03,1.01774e+02
8.05135e-03,9.69462e+01
8.15308e-03,9.23357e+01
8.25611e-03,8.79329e+01
8.36043e-03,8.37284e+01
8.46608e-03,7.97135e+01
8.57306e-03,7.58795e+01
8.68139e-03,7.22184e+01
8.79109e-03,6.87225e+01
8.90217e-03,6.53843e+01
9.01466e-03,6.21968e+01
9.12858e-03,5.91532e+01
9.24393e-03,5.62470e+01
9.36073e-03,5.34720e+01
9.47902e-03,5.08225e+01
9.59880e-03,4.82926e+01
9.72009e-03,4.58771e+01
9.84291e-03,4.35709e+01
9.96729e-03,4.13689e+01
1.00932e-02,3.92665e+01
1.02208e-02,3.72592e+01
1.03499e-02,3.53428e+01
1.04807e-02,3.35131e+01
1.06132e-02,3.17662e+01
1.07473e-02,3.00984e+01
1.08831e-02,2.85062e+01
1.10206e-02,2.69861e+01
1.11598e-02,2.55348e+01
1.13009e-02,2.41493e+01
1.14437e-02,2.28266e+01
1.15883e-02,2.15639e+01
1.17347e-02,2.03584e+01
1.18830e-02,1.92076e+01
1.20331e-02,1.81090e+01
1.21852e-02,1.70602e+01
1.23392e-02,1.60590e+01
1.24951e-02,1.51033e+01
1.26530e-02,1.41909e+01
1.28129e-02,1.33199e+01
1.29748e-02,1.24885e+01
1.31387e-02,1.16948e+01
1.33047e-02,1.09372e+01
1.34729e-02,1.02139e+01
1.36431e-02,9.52356e+00
1.38155e-02,8.86455e+00
1.39901e-02,8.23548e+00
1.41669e-02,7.63500e+00
1.43459e-02,7.06181e+00
1.45272e-02,6.51467e+00
1.47107e-02,5.99241e+00
1.48966e-02,5.49389e+00
1.50849e-02,5.01804e+00
1.52755e-02,4.56383e+00
1.54685e-02,4.13028e+00
1.56640e-02,3.71644e+00
1.58619e-02,3.32144e+00
1.60623e-02,2.94440e+00
1.62653e-02,2.58452e+00
1.64708e-02,2.24102e+00
1.66790e-02,1.91314e+00
1.68897e-02,1.60020e+00
1.71031e-02,1.30149e+00
1.73193e-02,1.01639e+00
1.75381e-02,7.44262e-01
1.77597e-02,4.84527e-01
1.79841e-02,2.36619e-01
1.82114e-02,0.00000e+00
