m1=48167.069, m2=95.369, gsp=2.165, rhosp=3273.367
fGW[Hz],dPh[rad]
1.55579e-03,8.64041e+02
1.58797e-03,8.24104e+02
1.62080e-03,7.85977e+02
1.65432e-03,7.49578e+02
1.68853e-03,7.14829e+02
1.72344e-03,6.81657e+02
1.75908e-03,6.49990e+02
1.79545e-03,6.19762e+02
1.83258e-03,5.90908e+02
1.87048e-03,5.63366e+02
1.90915e-03,5.37078e+02
1.94863e-03,5.11986e+02
1.98893e-03,4.88038e+02
2.03005e-03,4.65182e+02
2.07203e-03,4.43369e+02
2.11488e-03,4.22552e+02
2.15861e-03,4.02686e+02
2.20325e-03,3.83729e+02
2.24881e-03,3.65639e+02
2.29531e-03,3.48378e+02
2.34277e-03,3.31909e+02
2.39122e-03,3.16195e+02
2.44066e-03,3.01202e+02
2.49113e-03,2.86899e+02
2.54264e-03,2.73254e+02
2.59522e-03,2.60238e+02
2.64889e-03,2.47821e+02
2.70366e-03,2.35977e+02
2.75957e-03,2.24681e+02
2.81663e-03,2.13907e+02
2.87487e-03,2.03631e+02
2.93432e-03,1.93832e+02
2.99500e-03,1.84487e+02
3.05693e-03,1.75576e+02
3.12014e-03,1.67080e+02
3.18466e-03,1.58980e+02
3.25051e-03,1.51257e+02
3.31773e-03,1.43894e+02
3.38633e-03,1.36876e+02
3.45636e-03,1.30186e+02
3.52783e-03,1.23810e+02
3.60078e-03,1.17733e+02
3.67524e-03,1.11942e+02
3.75123e-03,1.06423e+02
3.82880e-03,1.01165e+02
3.90798e-03,9.61552e+01
3.98879e-03,9.13822e+01
4.07127e-03,8.68354e+01
4.15546e-03,8.25044e+01
4.24138e-03,7.83793e+01
4.32909e-03,7.44507e+01
4.41861e-03,7.07096e+01
4.50998e-03,6.71473e+01
4.60323e-03,6.37557e+01
4.69842e-03,6.05268e+01
4.79558e-03,5.74532e+01
4.89474e-03,5.45277e+01
4.99596e-03,5.17435e+01
5.09926e-03,4.90941e+01
5.20471e-03,4.65731e+01
5.31233e-03,4.41746e+01
5.42218e-03,4.18930e+01
5.53430e-03,3.97229e+01
5.64874e-03,3.76589e+01
5.76555e-03,3.56962e+01
5.88477e-03,3.38301e+01
6.00646e-03,3.20560e+01
6.13066e-03,3.03696e+01
6.25743e-03,2.87668e+01
6.38683e-03,2.72437e+01
6.51890e-03,2.57965e+01
6.65370e-03,2.44216e+01
6.79128e-03,2.31156e+01
6.93172e-03,2.18753e+01
7.07505e-03,2.06976e+01
7.22135e-03,1.95793e+01
7.37068e-03,1.85178e+01
7.52309e-03,1.75104e+01
7.67865e-03,1.65543e+01
7.83744e-03,1.56472e+01
7.99950e-03,1.47867e+01
8.16492e-03,1.39706e+01
8.33375e-03,1.31967e+01
8.50608e-03,1.24629e+01
8.68197e-03,1.17674e+01
8.86150e-03,1.11082e+01
9.04474e-03,1.04836e+01
9.23177e-03,9.89184e+00
9.42267e-03,9.33137e+00
9.61751e-03,8.80062e+00
9.81639e-03,8.29813e+00
1.00194e-02,7.82249e+00
1.02266e-02,7.37236e+00
1.04380e-02,6.94648e+00
1.06539e-02,6.54361e+00
1.08742e-02,6.16262e+00
1.10990e-02,5.80239e+00
1.13285e-02,5.46187e+00
1.15628e-02,5.14006e+00
1.18019e-02,4.83600e+00
1.20459e-02,4.54879e+00
1.22950e-02,4.27756e+00
1.25493e-02,4.02148e+00
1.28088e-02,3.77977e+00
1.30736e-02,3.55168e+00
1.33440e-02,3.33649e+00
1.36199e-02,3.13354e+00
1.39015e-02,2.94217e+00
1.41890e-02,2.76177e+00
1.44824e-02,2.59175e+00
1.47819e-02,2.43157e+00
1.50875e-02,2.28069e+00
1.53995e-02,2.13862e+00
1.57180e-02,2.00487e+00
1.60430e-02,1.87899e+00
1.63747e-02,1.76055e+00
1.67133e-02,1.64914e+00
1.70589e-02,1.54438e+00
1.74117e-02,1.44590e+00
1.77717e-02,1.35333e+00
1.81392e-02,1.26636e+00
1.85143e-02,1.18467e+00
1.88971e-02,1.10796e+00
1.92879e-02,1.03594e+00
1.96867e-02,9.68351e-01
2.00938e-02,9.04934e-01
2.05093e-02,8.45449e-01
2.09334e-02,7.89667e-01
2.13663e-02,7.37373e-01
2.18081e-02,6.88363e-01
2.22591e-02,6.42442e-01
2.27193e-02,5.99427e-01
2.31891e-02,5.59147e-01
2.36687e-02,5.21437e-01
2.41581e-02,4.86143e-01
2.46576e-02,4.53120e-01
2.51675e-02,4.22228e-01
2.56879e-02,3.93339e-01
2.62191e-02,3.66329e-01
2.67613e-02,3.41084e-01
2.73147e-02,3.17493e-01
2.78795e-02,2.95455e-01
2.84560e-02,2.74871e-01
2.90444e-02,2.55652e-01
2.96450e-02,2.37710e-01
3.02580e-02,2.20966e-01
3.08837e-02,2.05342e-01
3.15223e-02,1.90769e-01
3.21741e-02,1.77177e-01
3.28394e-02,1.64504e-01
3.35185e-02,1.52691e-01
3.42116e-02,1.41682e-01
3.49190e-02,1.31423e-01
3.56411e-02,1.21867e-01
3.63781e-02,1.12968e-01
3.71304e-02,1.04680e-01
3.78981e-02,9.69654e-02
3.86818e-02,8.97846e-02
3.94817e-02,8.31023e-02
4.02981e-02,7.68851e-02
4.11314e-02,7.11018e-02
4.19819e-02,6.57232e-02
4.28500e-02,6.07219e-02
4.37361e-02,5.60722e-02
4.46405e-02,5.17502e-02
4.55636e-02,4.77335e-02
4.65058e-02,4.40012e-02
4.74674e-02,4.05338e-02
4.84490e-02,3.73130e-02
4.94508e-02,3.43217e-02
5.04734e-02,3.15440e-02
5.15171e-02,2.89651e-02
5.25824e-02,2.65711e-02
5.36697e-02,2.43490e-02
5.47795e-02,2.22869e-02
5.59122e-02,2.03735e-02
5.70684e-02,1.85982e-02
5.82485e-02,1.69514e-02
5.94529e-02,1.54240e-02
6.06823e-02,1.40074e-02
6.19371e-02,1.26939e-02
6.32179e-02,1.14760e-02
6.45251e-02,1.03469e-02
6.58594e-02,9.30024e-03
6.72213e-02,8.33017e-03
6.86113e-02,7.43116e-03
7.00300e-02,6.59808e-03
7.14781e-02,5.82618e-03
7.29562e-02,5.11104e-03
7.44648e-02,4.44855e-03
7.60046e-02,3.83489e-03
7.75763e-02,3.26652e-03
7.91804e-02,2.74014e-03
8.08177e-02,2.25270e-03
8.24889e-02,1.80135e-03
8.41946e-02,1.38345e-03
8.59356e-02,9.96559e-04
8.77126e-02,6.38400e-04
8.95264e-02,3.06866e-04
9.13776e-02,0.00000e+00
