m1=59804.791, m2=9.489, gsp=2.401, rhosp=101.224
fGW[Hz],dPh[rad]
3.50088e-03,1.34643e+05
3.55486e-03,1.28695e+05
3.60967e-03,1.22992e+05
3.66532e-03,1.17526e+05
3.72183e-03,1.12286e+05
3.77921e-03,1.07264e+05
3.83748e-03,1.02453e+05
3.89664e-03,9.78434e+04
3.95672e-03,9.34281e+04
4.01772e-03,8.91994e+04
4.07966e-03,8.51500e+04
4.14256e-03,8.12730e+04
4.20643e-03,7.75617e+04
4.27128e-03,7.40094e+04
4.33713e-03,7.06099e+04
4.40400e-03,6.73572e+04
4.47190e-03,6.42454e+04
4.54084e-03,6.12689e+04
4.61085e-03,5.84223e+04
4.68194e-03,5.57002e+04
4.75412e-03,5.30977e+04
4.82742e-03,5.06099e+04
4.90185e-03,4.82322e+04
4.97742e-03,4.59599e+04
5.05416e-03,4.37889e+04
5.13208e-03,4.17148e+04
5.21121e-03,3.97337e+04
5.29155e-03,3.78417e+04
5.37313e-03,3.60351e+04
5.45597e-03,3.43103e+04
5.54009e-03,3.26639e+04
5.62550e-03,3.10924e+04
5.71223e-03,2.95929e+04
5.80030e-03,2.81620e+04
5.88973e-03,2.67971e+04
5.98053e-03,2.54951e+04
6.07274e-03,2.42534e+04
6.16636e-03,2.30693e+04
6.26143e-03,2.19404e+04
6.35797e-03,2.08643e+04
6.45599e-03,1.98386e+04
6.55553e-03,1.88611e+04
6.65660e-03,1.79296e+04
6.75922e-03,1.70423e+04
6.86343e-03,1.61970e+04
6.96925e-03,1.53918e+04
7.07670e-03,1.46251e+04
7.18580e-03,1.38951e+04
7.29659e-03,1.32000e+04
7.40909e-03,1.25384e+04
7.52332e-03,1.19086e+04
7.63931e-03,1.13093e+04
7.75708e-03,1.07391e+04
7.87668e-03,1.01965e+04
7.99812e-03,9.68041e+03
8.12143e-03,9.18950e+03
8.24664e-03,8.72262e+03
8.37378e-03,8.27865e+03
8.50289e-03,7.85653e+03
8.63398e-03,7.45522e+03
8.76709e-03,7.07374e+03
8.90226e-03,6.71117e+03
9.03951e-03,6.36660e+03
9.17887e-03,6.03918e+03
9.32039e-03,5.72809e+03
9.46409e-03,5.43255e+03
9.61000e-03,5.15181e+03
9.75816e-03,4.88517e+03
9.90861e-03,4.63194e+03
1.00614e-02,4.39147e+03
1.02165e-02,4.16315e+03
1.03740e-02,3.94639e+03
1.05339e-02,3.74061e+03
1.06964e-02,3.54529e+03
1.08613e-02,3.35991e+03
1.10287e-02,3.18399e+03
1.11988e-02,3.01705e+03
1.13714e-02,2.85865e+03
1.15467e-02,2.70837e+03
1.17247e-02,2.56581e+03
1.19055e-02,2.43059e+03
1.20891e-02,2.30233e+03
1.22754e-02,2.18069e+03
1.24647e-02,2.06534e+03
1.26569e-02,1.95596e+03
1.28520e-02,1.85225e+03
1.30502e-02,1.75392e+03
1.32514e-02,1.66071e+03
1.34557e-02,1.57236e+03
1.36631e-02,1.48861e+03
1.38738e-02,1.40924e+03
1.40877e-02,1.33401e+03
1.43049e-02,1.26273e+03
1.45254e-02,1.19518e+03
1.47494e-02,1.13119e+03
1.49768e-02,1.07055e+03
1.52077e-02,1.01311e+03
1.54421e-02,9.58692e+02
1.56802e-02,9.07148e+02
1.59219e-02,8.58326e+02
1.61674e-02,8.12086e+02
1.64167e-02,7.68294e+02
1.66698e-02,7.26823e+02
1.69268e-02,6.87552e+02
1.71878e-02,6.50367e+02
1.74528e-02,6.15160e+02
1.77218e-02,5.81825e+02
1.79951e-02,5.50267e+02
1.82725e-02,5.20391e+02
1.85542e-02,4.92110e+02
1.88403e-02,4.65340e+02
1.91307e-02,4.40001e+02
1.94257e-02,4.16019e+02
1.97252e-02,3.93320e+02
2.00293e-02,3.71839e+02
2.03381e-02,3.51510e+02
2.06517e-02,3.32273e+02
2.09700e-02,3.14069e+02
2.12934e-02,2.96845e+02
2.16216e-02,2.80547e+02
2.19550e-02,2.65127e+02
2.22935e-02,2.50539e+02
2.26372e-02,2.36737e+02
2.29862e-02,2.23680e+02
2.33406e-02,2.11328e+02
2.37004e-02,1.99644e+02
2.40658e-02,1.88592e+02
2.44369e-02,1.78137e+02
2.48136e-02,1.68249e+02
2.51962e-02,1.58897e+02
2.55847e-02,1.50051e+02
2.59791e-02,1.41685e+02
2.63796e-02,1.33774e+02
2.67863e-02,1.26292e+02
2.71993e-02,1.19216e+02
2.76187e-02,1.12525e+02
2.80445e-02,1.06198e+02
2.84769e-02,1.00215e+02
2.89159e-02,9.45578e+01
2.93617e-02,8.92088e+01
2.98144e-02,8.41512e+01
3.02741e-02,7.93694e+01
3.07408e-02,7.48483e+01
3.12147e-02,7.05739e+01
3.16960e-02,6.65328e+01
3.21847e-02,6.27124e+01
3.26809e-02,5.91007e+01
3.31847e-02,5.56864e+01
3.36964e-02,5.24587e+01
3.42159e-02,4.94076e+01
3.47434e-02,4.65233e+01
3.52790e-02,4.37970e+01
3.58230e-02,4.12199e+01
3.63753e-02,3.87839e+01
3.69361e-02,3.64814e+01
3.75055e-02,3.43051e+01
3.80838e-02,3.22481e+01
3.86709e-02,3.03039e+01
3.92671e-02,2.84664e+01
3.98725e-02,2.67296e+01
4.04873e-02,2.50882e+01
4.11115e-02,2.35369e+01
4.17453e-02,2.20708e+01
4.23889e-02,2.06852e+01
4.30425e-02,1.93758e+01
4.37061e-02,1.81383e+01
4.43799e-02,1.69689e+01
4.50641e-02,1.58637e+01
4.57589e-02,1.48194e+01
4.64644e-02,1.38324e+01
4.71807e-02,1.28998e+01
4.79082e-02,1.20185e+01
4.86468e-02,1.11858e+01
4.93968e-02,1.03988e+01
5.01584e-02,9.65526e+00
5.09317e-02,8.95262e+00
5.17169e-02,8.28870e+00
5.25143e-02,7.66136e+00
5.33239e-02,7.06859e+00
5.41460e-02,6.50850e+00
5.49808e-02,5.97928e+00
5.58285e-02,5.47925e+00
5.66892e-02,5.00679e+00
5.75632e-02,4.56039e+00
5.84507e-02,4.13861e+00
5.93518e-02,3.74011e+00
6.02669e-02,3.36360e+00
6.11961e-02,3.00787e+00
6.21396e-02,2.67178e+00
6.30976e-02,2.35424e+00
6.40704e-02,2.05423e+00
6.50582e-02,1.77079e+00
6.60612e-02,1.50300e+00
6.70797e-02,1.25001e+00
6.81139e-02,1.01099e+00
6.91641e-02,7.85173e-01
7.02304e-02,5.71837e-01
7.13132e-02,3.70291e-01
7.24126e-02,1.79883e-01
7.35291e-02,0.00000e+00
