m1=181026.676, m2=11.716, gsp=2.279, rhosp=45.928
fGW[Hz],dPh[rad]
2.45238e-03,5.87400e+03
2.48080e-03,5.63619e+03
2.50955e-03,5.40778e+03
2.53863e-03,5.18842e+03
2.56806e-03,4.97775e+03
2.59782e-03,4.77544e+03
2.62792e-03,4.58116e+03
2.65838e-03,4.39462e+03
2.68919e-03,4.21551e+03
2.72036e-03,4.04354e+03
2.75188e-03,3.87844e+03
2.78378e-03,3.71995e+03
2.81604e-03,3.56779e+03
2.84867e-03,3.42174e+03
2.88169e-03,3.28155e+03
2.91508e-03,3.14698e+03
2.94887e-03,3.01783e+03
2.98304e-03,2.89388e+03
3.01762e-03,2.77493e+03
3.05259e-03,2.66077e+03
3.08796e-03,2.55123e+03
3.12375e-03,2.44612e+03
3.15995e-03,2.34526e+03
3.19658e-03,2.24848e+03
3.23362e-03,2.15564e+03
3.27110e-03,2.06656e+03
3.30901e-03,1.98110e+03
3.34736e-03,1.89912e+03
3.38615e-03,1.82047e+03
3.42539e-03,1.74503e+03
3.46509e-03,1.67267e+03
3.50525e-03,1.60326e+03
3.54587e-03,1.53669e+03
3.58697e-03,1.47284e+03
3.62854e-03,1.41161e+03
3.67059e-03,1.35288e+03
3.71313e-03,1.29656e+03
3.75616e-03,1.24256e+03
3.79970e-03,1.19077e+03
3.84373e-03,1.14111e+03
3.88828e-03,1.09349e+03
3.93334e-03,1.04783e+03
3.97892e-03,1.00406e+03
4.02504e-03,9.62088e+02
4.07169e-03,9.21848e+02
4.11887e-03,8.83270e+02
4.16661e-03,8.46286e+02
4.21490e-03,8.10832e+02
4.26374e-03,7.76844e+02
4.31316e-03,7.44263e+02
4.36315e-03,7.13033e+02
4.41371e-03,6.83097e+02
4.46486e-03,6.54403e+02
4.51661e-03,6.26900e+02
4.56895e-03,6.00540e+02
4.62190e-03,5.75275e+02
4.67547e-03,5.51061e+02
4.72965e-03,5.27855e+02
4.78447e-03,5.05615e+02
4.83992e-03,4.84301e+02
4.89601e-03,4.63876e+02
4.95275e-03,4.44303e+02
5.01015e-03,4.25547e+02
5.06821e-03,4.07573e+02
5.12695e-03,3.90351e+02
5.18637e-03,3.73848e+02
5.24647e-03,3.58036e+02
5.30728e-03,3.42885e+02
5.36879e-03,3.28368e+02
5.43101e-03,3.14460e+02
5.49395e-03,3.01134e+02
5.55762e-03,2.88366e+02
5.62203e-03,2.76135e+02
5.68718e-03,2.64416e+02
5.75309e-03,2.53189e+02
5.81977e-03,2.42434e+02
5.88722e-03,2.32130e+02
5.95545e-03,2.22260e+02
6.02447e-03,2.12805e+02
6.09428e-03,2.03747e+02
6.16491e-03,1.95070e+02
6.23636e-03,1.86759e+02
6.30864e-03,1.78798e+02
6.38175e-03,1.71172e+02
6.45571e-03,1.63868e+02
6.53053e-03,1.56871e+02
6.60621e-03,1.50170e+02
6.68277e-03,1.43751e+02
6.76022e-03,1.37604e+02
6.83857e-03,1.31715e+02
6.91782e-03,1.26076e+02
6.99800e-03,1.20675e+02
7.07910e-03,1.15502e+02
7.16114e-03,1.10547e+02
7.24413e-03,1.05803e+02
7.32809e-03,1.01258e+02
7.41302e-03,9.69067e+01
7.49893e-03,9.27391e+01
7.58584e-03,8.87479e+01
7.67375e-03,8.49258e+01
7.76268e-03,8.12656e+01
7.85265e-03,7.77605e+01
7.94366e-03,7.44039e+01
8.03572e-03,7.11897e+01
8.12885e-03,6.81117e+01
8.22305e-03,6.51643e+01
8.31835e-03,6.23420e+01
8.41476e-03,5.96394e+01
8.51228e-03,5.70516e+01
8.61093e-03,5.45737e+01
8.71073e-03,5.22009e+01
8.81168e-03,4.99290e+01
8.91380e-03,4.77536e+01
9.01710e-03,4.56707e+01
9.12161e-03,4.36763e+01
9.22732e-03,4.17666e+01
9.33426e-03,3.99382e+01
9.44244e-03,3.81876e+01
9.55187e-03,3.65114e+01
9.66257e-03,3.49066e+01
9.77455e-03,3.33701e+01
9.88783e-03,3.18989e+01
1.00024e-02,3.04904e+01
1.01183e-02,2.91419e+01
1.02356e-02,2.78508e+01
1.03542e-02,2.66147e+01
1.04742e-02,2.54313e+01
1.05956e-02,2.42983e+01
1.07184e-02,2.32136e+01
1.08426e-02,2.21751e+01
1.09683e-02,2.11809e+01
1.10954e-02,2.02291e+01
1.12240e-02,1.93179e+01
1.13541e-02,1.84455e+01
1.14857e-02,1.76104e+01
1.16188e-02,1.68109e+01
1.17534e-02,1.60455e+01
1.18896e-02,1.53128e+01
1.20274e-02,1.46113e+01
1.21668e-02,1.39398e+01
1.23078e-02,1.32970e+01
1.24505e-02,1.26816e+01
1.25948e-02,1.20925e+01
1.27407e-02,1.15285e+01
1.28884e-02,1.09887e+01
1.30378e-02,1.04719e+01
1.31889e-02,9.97719e+00
1.33417e-02,9.50363e+00
1.34963e-02,9.05030e+00
1.36527e-02,8.61635e+00
1.38110e-02,8.20094e+00
1.39710e-02,7.80330e+00
1.41329e-02,7.42266e+00
1.42967e-02,7.05830e+00
1.44624e-02,6.70951e+00
1.46300e-02,6.37565e+00
1.47996e-02,6.05606e+00
1.49711e-02,5.75015e+00
1.51446e-02,5.45732e+00
1.53201e-02,5.17702e+00
1.54977e-02,4.90872e+00
1.56773e-02,4.65190e+00
1.58590e-02,4.40606e+00
1.60428e-02,4.17075e+00
1.62287e-02,3.94552e+00
1.64168e-02,3.72992e+00
1.66070e-02,3.52356e+00
1.67995e-02,3.32603e+00
1.69942e-02,3.13696e+00
1.71911e-02,2.95598e+00
1.73904e-02,2.78276e+00
1.75919e-02,2.61695e+00
1.77958e-02,2.45824e+00
1.80020e-02,2.30634e+00
1.82107e-02,2.16094e+00
1.84217e-02,2.02177e+00
1.86352e-02,1.88856e+00
1.88512e-02,1.76106e+00
1.90697e-02,1.63902e+00
1.92907e-02,1.52222e+00
1.95142e-02,1.41041e+00
1.97404e-02,1.30340e+00
1.99692e-02,1.20098e+00
2.02006e-02,1.10294e+00
2.04347e-02,1.00911e+00
2.06715e-02,9.19304e-01
2.09111e-02,8.33344e-01
2.11534e-02,7.51070e-01
2.13986e-02,6.72324e-01
2.16466e-02,5.96953e-01
2.18975e-02,5.24815e-01
2.21512e-02,4.55769e-01
2.24080e-02,3.89685e-01
2.26677e-02,3.26435e-01
2.29304e-02,2.65897e-01
2.31961e-02,2.07956e-01
2.34649e-02,1.52500e-01
2.37369e-02,9.94222e-02
2.40120e-02,4.86215e-02
2.42903e-02,0.00000e+00
