m1=50532.250, m2=18.930, gsp=2.236, rhosp=6343.206
fGW[Hz],dPh[rad]
2.81842e-03,1.43971e+04
2.86742e-03,1.37617e+04
2.91728e-03,1.31527e+04
2.96800e-03,1.25689e+04
3.01960e-03,1.20095e+04
3.07210e-03,1.14734e+04
3.12551e-03,1.09597e+04
3.17985e-03,1.04675e+04
3.23513e-03,9.99605e+03
3.29138e-03,9.54447e+03
3.34860e-03,9.11197e+03
3.40682e-03,8.69781e+03
3.46605e-03,8.30126e+03
3.52631e-03,7.92160e+03
3.58762e-03,7.55818e+03
3.65000e-03,7.21034e+03
3.71346e-03,6.87746e+03
3.77802e-03,6.55893e+03
3.84370e-03,6.25418e+03
3.91053e-03,5.96266e+03
3.97852e-03,5.68383e+03
4.04769e-03,5.41717e+03
4.11806e-03,5.16218e+03
4.18966e-03,4.91841e+03
4.26250e-03,4.68538e+03
4.33661e-03,4.46265e+03
4.41200e-03,4.24981e+03
4.48871e-03,4.04644e+03
4.56675e-03,3.85216e+03
4.64615e-03,3.66659e+03
4.72693e-03,3.48936e+03
4.80911e-03,3.32013e+03
4.89272e-03,3.15857e+03
4.97779e-03,3.00434e+03
5.06433e-03,2.85715e+03
5.15238e-03,2.71670e+03
5.24196e-03,2.58270e+03
5.33309e-03,2.45487e+03
5.42582e-03,2.33296e+03
5.52015e-03,2.21671e+03
5.61612e-03,2.10588e+03
5.71376e-03,2.00023e+03
5.81310e-03,1.89954e+03
5.91417e-03,1.80360e+03
6.01700e-03,1.71220e+03
6.12161e-03,1.62513e+03
6.22804e-03,1.54222e+03
6.33632e-03,1.46327e+03
6.44648e-03,1.38811e+03
6.55856e-03,1.31657e+03
6.67259e-03,1.24849e+03
6.78860e-03,1.18372e+03
6.90662e-03,1.12211e+03
7.02670e-03,1.06351e+03
7.14887e-03,1.00780e+03
7.27316e-03,9.54823e+02
7.39961e-03,9.04473e+02
7.52826e-03,8.56624e+02
7.65915e-03,8.11161e+02
7.79231e-03,7.67974e+02
7.92779e-03,7.26958e+02
8.06562e-03,6.88009e+02
8.20585e-03,6.51033e+02
8.34851e-03,6.15935e+02
8.49366e-03,5.82628e+02
8.64133e-03,5.51025e+02
8.79157e-03,5.21047e+02
8.94442e-03,4.92614e+02
9.09993e-03,4.65653e+02
9.25814e-03,4.40092e+02
9.41910e-03,4.15864e+02
9.58286e-03,3.92904e+02
9.74947e-03,3.71149e+02
9.91898e-03,3.50541e+02
1.00914e-02,3.31022e+02
1.02669e-02,3.12540e+02
1.04454e-02,2.95041e+02
1.06270e-02,2.78477e+02
1.08117e-02,2.62801e+02
1.09997e-02,2.47969e+02
1.11910e-02,2.33937e+02
1.13855e-02,2.20664e+02
1.15835e-02,2.08113e+02
1.17849e-02,1.96246e+02
1.19898e-02,1.85028e+02
1.21982e-02,1.74425e+02
1.24103e-02,1.64405e+02
1.26261e-02,1.54938e+02
1.28456e-02,1.45996e+02
1.30689e-02,1.37550e+02
1.32961e-02,1.29574e+02
1.35273e-02,1.22044e+02
1.37625e-02,1.14935e+02
1.40017e-02,1.08226e+02
1.42452e-02,1.01895e+02
1.44928e-02,9.59211e+01
1.47448e-02,9.02858e+01
1.50012e-02,8.49706e+01
1.52620e-02,7.99580e+01
1.55273e-02,7.52316e+01
1.57973e-02,7.07757e+01
1.60719e-02,6.65755e+01
1.63514e-02,6.26169e+01
1.66357e-02,5.88866e+01
1.69249e-02,5.53719e+01
1.72191e-02,5.20608e+01
1.75185e-02,4.89421e+01
1.78231e-02,4.60048e+01
1.81330e-02,4.32389e+01
1.84482e-02,4.06347e+01
1.87690e-02,3.81831e+01
1.90953e-02,3.58754e+01
1.94273e-02,3.37035e+01
1.97650e-02,3.16596e+01
2.01087e-02,2.97365e+01
2.04583e-02,2.79271e+01
2.08140e-02,2.62251e+01
2.11758e-02,2.46242e+01
2.15440e-02,2.31186e+01
2.19186e-02,2.17027e+01
2.22996e-02,2.03714e+01
2.26873e-02,1.91198e+01
2.30818e-02,1.79432e+01
2.34831e-02,1.68373e+01
2.38914e-02,1.57978e+01
2.43067e-02,1.48210e+01
2.47293e-02,1.39030e+01
2.51593e-02,1.30406e+01
2.55967e-02,1.22303e+01
2.60417e-02,1.14691e+01
2.64945e-02,1.07541e+01
2.69551e-02,1.00825e+01
2.74238e-02,9.45182e+00
2.79006e-02,8.85954e+00
2.83856e-02,8.30340e+00
2.88791e-02,7.78123e+00
2.93812e-02,7.29099e+00
2.98921e-02,6.83077e+00
3.04118e-02,6.39876e+00
3.09405e-02,5.99327e+00
3.14784e-02,5.61269e+00
3.20257e-02,5.25551e+00
3.25825e-02,4.92034e+00
3.31490e-02,4.60582e+00
3.37253e-02,4.31071e+00
3.43117e-02,4.03382e+00
3.49082e-02,3.77406e+00
3.55151e-02,3.53037e+00
3.61326e-02,3.30177e+00
3.67608e-02,3.08735e+00
3.73999e-02,2.88623e+00
3.80502e-02,2.69760e+00
3.87117e-02,2.52069e+00
3.93847e-02,2.35479e+00
4.00695e-02,2.19922e+00
4.07661e-02,2.05334e+00
4.14749e-02,1.91656e+00
4.21960e-02,1.78831e+00
4.29296e-02,1.66807e+00
4.36760e-02,1.55535e+00
4.44353e-02,1.44967e+00
4.52079e-02,1.35060e+00
4.59939e-02,1.25774e+00
4.67935e-02,1.17069e+00
4.76071e-02,1.08910e+00
4.84348e-02,1.01263e+00
4.92769e-02,9.40959e-01
5.01336e-02,8.73788e-01
5.10052e-02,8.10837e-01
5.18920e-02,7.51844e-01
5.27942e-02,6.96562e-01
5.37121e-02,6.44758e-01
5.46459e-02,5.96216e-01
5.55960e-02,5.50732e-01
5.65626e-02,5.08115e-01
5.75460e-02,4.68184e-01
5.85465e-02,4.30772e-01
5.95644e-02,3.95722e-01
6.05999e-02,3.62884e-01
6.16535e-02,3.32120e-01
6.27254e-02,3.03300e-01
6.38160e-02,2.76302e-01
6.49255e-02,2.51010e-01
6.60543e-02,2.27319e-01
6.72027e-02,2.05127e-01
6.83711e-02,1.84340e-01
6.95598e-02,1.64868e-01
7.07692e-02,1.46631e-01
7.19996e-02,1.29549e-01
7.32514e-02,1.13549e-01
7.45249e-02,9.85645e-02
7.58206e-02,8.45300e-02
7.71388e-02,7.13858e-02
7.84799e-02,5.90757e-02
7.98444e-02,4.75470e-02
8.12326e-02,3.67503e-02
8.26449e-02,2.66393e-02
8.40818e-02,1.71706e-02
8.55436e-02,8.30352e-03
8.70309e-02,0.00000e+00
