m1=52138.709, m2=6.685, gsp=2.391, rhosp=117.975
fGW[Hz],dPh[rad]
4.13152e-03,1.38007e+05
4.19461e-03,1.31804e+05
4.25868e-03,1.25862e+05
4.32372e-03,1.20171e+05
4.38975e-03,1.14722e+05
4.45679e-03,1.09504e+05
4.52485e-03,1.04510e+05
4.59396e-03,9.97298e+04
4.66412e-03,9.51553e+04
4.73535e-03,9.07783e+04
4.80767e-03,8.65909e+04
4.88109e-03,8.25855e+04
4.95564e-03,7.87548e+04
5.03132e-03,7.50918e+04
5.10816e-03,7.15896e+04
5.18618e-03,6.82417e+04
5.26538e-03,6.50419e+04
5.34579e-03,6.19840e+04
5.42744e-03,5.90621e+04
5.51032e-03,5.62708e+04
5.59448e-03,5.36045e+04
5.67992e-03,5.10580e+04
5.76666e-03,4.86263e+04
5.85473e-03,4.63046e+04
5.94415e-03,4.40883e+04
6.03493e-03,4.19728e+04
6.12710e-03,3.99540e+04
6.22067e-03,3.80276e+04
6.31567e-03,3.61897e+04
6.41213e-03,3.44366e+04
6.51006e-03,3.27645e+04
6.60948e-03,3.11699e+04
6.71042e-03,2.96494e+04
6.81290e-03,2.81999e+04
6.91695e-03,2.68182e+04
7.02259e-03,2.55013e+04
7.12984e-03,2.42463e+04
7.23873e-03,2.30506e+04
7.34928e-03,2.19114e+04
7.46152e-03,2.08262e+04
7.57547e-03,1.97927e+04
7.69117e-03,1.88085e+04
7.80863e-03,1.78714e+04
7.92788e-03,1.69792e+04
8.04896e-03,1.61299e+04
8.17189e-03,1.53215e+04
8.29669e-03,1.45522e+04
8.42340e-03,1.38201e+04
8.55204e-03,1.31236e+04
8.68265e-03,1.24610e+04
8.81525e-03,1.18308e+04
8.94988e-03,1.12314e+04
9.08657e-03,1.06613e+04
9.22534e-03,1.01193e+04
9.36623e-03,9.60397e+03
9.50927e-03,9.11408e+03
9.65450e-03,8.64842e+03
9.80195e-03,8.20586e+03
9.95165e-03,7.78528e+03
1.01036e-02,7.38564e+03
1.02579e-02,7.00594e+03
1.04146e-02,6.64522e+03
1.05736e-02,6.30257e+03
1.07351e-02,5.97712e+03
1.08991e-02,5.66803e+03
1.10655e-02,5.37452e+03
1.12345e-02,5.09583e+03
1.14061e-02,4.83123e+03
1.15803e-02,4.58003e+03
1.17572e-02,4.34159e+03
1.19367e-02,4.11527e+03
1.21190e-02,3.90047e+03
1.23041e-02,3.69663e+03
1.24920e-02,3.50321e+03
1.26828e-02,3.31969e+03
1.28765e-02,3.14557e+03
1.30731e-02,2.98040e+03
1.32728e-02,2.82372e+03
1.34755e-02,2.67511e+03
1.36813e-02,2.53416e+03
1.38902e-02,2.40050e+03
1.41024e-02,2.27375e+03
1.43178e-02,2.15356e+03
1.45364e-02,2.03961e+03
1.47584e-02,1.93157e+03
1.49838e-02,1.82916e+03
1.52127e-02,1.73208e+03
1.54450e-02,1.64006e+03
1.56809e-02,1.55284e+03
1.59203e-02,1.47018e+03
1.61635e-02,1.39185e+03
1.64103e-02,1.31762e+03
1.66610e-02,1.24729e+03
1.69154e-02,1.18065e+03
1.71737e-02,1.11751e+03
1.74360e-02,1.05769e+03
1.77023e-02,1.00103e+03
1.79727e-02,9.47354e+02
1.82472e-02,8.96511e+02
1.85258e-02,8.48354e+02
1.88088e-02,8.02745e+02
1.90960e-02,7.59550e+02
1.93876e-02,7.18644e+02
1.96837e-02,6.79908e+02
1.99844e-02,6.43227e+02
2.02896e-02,6.08496e+02
2.05994e-02,5.75611e+02
2.09140e-02,5.44477e+02
2.12334e-02,5.15001e+02
2.15577e-02,4.87096e+02
2.18869e-02,4.60680e+02
2.22212e-02,4.35674e+02
2.25606e-02,4.12004e+02
2.29051e-02,3.89599e+02
2.32549e-02,3.68393e+02
2.36101e-02,3.48323e+02
2.39707e-02,3.29328e+02
2.43368e-02,3.11351e+02
2.47084e-02,2.94339e+02
2.50858e-02,2.78240e+02
2.54689e-02,2.63005e+02
2.58579e-02,2.48590e+02
2.62528e-02,2.34949e+02
2.66537e-02,2.22043e+02
2.70608e-02,2.09831e+02
2.74741e-02,1.98278e+02
2.78936e-02,1.87347e+02
2.83196e-02,1.77006e+02
2.87521e-02,1.67222e+02
2.91913e-02,1.57967e+02
2.96371e-02,1.49211e+02
3.00897e-02,1.40929e+02
3.05492e-02,1.33094e+02
3.10158e-02,1.25684e+02
3.14895e-02,1.18674e+02
3.19704e-02,1.12043e+02
3.24586e-02,1.05772e+02
3.29544e-02,9.98404e+01
3.34576e-02,9.42303e+01
3.39686e-02,8.89244e+01
3.44874e-02,8.39064e+01
3.50141e-02,7.91606e+01
3.55488e-02,7.46725e+01
3.60917e-02,7.04280e+01
3.66429e-02,6.64142e+01
3.72026e-02,6.26184e+01
3.77707e-02,5.90291e+01
3.83476e-02,5.56348e+01
3.89332e-02,5.24253e+01
3.95278e-02,4.93903e+01
4.01315e-02,4.65206e+01
4.07444e-02,4.38070e+01
4.13667e-02,4.12413e+01
4.19984e-02,3.88154e+01
4.26398e-02,3.65216e+01
4.32910e-02,3.43529e+01
4.39522e-02,3.23024e+01
4.46234e-02,3.03637e+01
4.53049e-02,2.85308e+01
4.59968e-02,2.67978e+01
4.66993e-02,2.51595e+01
4.74125e-02,2.36106e+01
4.81366e-02,2.21463e+01
4.88718e-02,2.07619e+01
4.96181e-02,1.94532e+01
5.03759e-02,1.82159e+01
5.11453e-02,1.70463e+01
5.19264e-02,1.59406e+01
5.27194e-02,1.48953e+01
5.35245e-02,1.39072e+01
5.43420e-02,1.29732e+01
5.51719e-02,1.20902e+01
5.60145e-02,1.12556e+01
5.68700e-02,1.04666e+01
5.77385e-02,9.72077e+00
5.86203e-02,9.01579e+00
5.95156e-02,8.34940e+00
6.04245e-02,7.71950e+00
6.13473e-02,7.12410e+00
6.22842e-02,6.56131e+00
6.32354e-02,6.02935e+00
6.42012e-02,5.52653e+00
6.51817e-02,5.05127e+00
6.61772e-02,4.60205e+00
6.71878e-02,4.17746e+00
6.82139e-02,3.77614e+00
6.92557e-02,3.39682e+00
7.03134e-02,3.03830e+00
7.13872e-02,2.69944e+00
7.24775e-02,2.37916e+00
7.35844e-02,2.07645e+00
7.47082e-02,1.79035e+00
7.58491e-02,1.51994e+00
7.70075e-02,1.26437e+00
7.81836e-02,1.02283e+00
7.93776e-02,7.94540e-01
8.05899e-02,5.78781e-01
8.18207e-02,3.74864e-01
8.30703e-02,1.82142e-01
8.43389e-02,0.00000e+00
