m1=7043.730, m2=37.399, gsp=2.098, rhosp=21.041
fGW[Hz],dPh[rad]
3.57540e-03,3.83543e+01
3.66941e-03,3.61508e+01
3.76590e-03,3.40735e+01
3.86492e-03,3.21152e+01
3.96655e-03,3.02691e+01
4.07085e-03,2.85288e+01
4.17790e-03,2.68881e+01
4.28776e-03,2.53415e+01
4.40050e-03,2.38836e+01
4.51621e-03,2.25092e+01
4.63497e-03,2.12135e+01
4.75685e-03,1.99922e+01
4.88193e-03,1.88409e+01
5.01030e-03,1.77556e+01
5.14205e-03,1.67325e+01
5.27726e-03,1.57681e+01
5.41602e-03,1.48590e+01
5.55844e-03,1.40021e+01
5.70460e-03,1.31943e+01
5.85460e-03,1.24329e+01
6.00855e-03,1.17152e+01
6.16655e-03,1.10387e+01
6.32870e-03,1.04011e+01
6.49511e-03,9.80000e+00
6.66590e-03,9.23346e+00
6.84118e-03,8.69946e+00
7.02107e-03,8.19614e+00
7.20569e-03,7.72174e+00
7.39517e-03,7.27461e+00
7.58962e-03,6.85318e+00
7.78919e-03,6.45598e+00
7.99401e-03,6.08162e+00
8.20422e-03,5.72879e+00
8.41995e-03,5.39627e+00
8.64135e-03,5.08288e+00
8.86858e-03,4.78753e+00
9.10178e-03,4.50918e+00
9.34111e-03,4.24687e+00
9.58673e-03,3.99967e+00
9.83882e-03,3.76671e+00
1.00975e-02,3.54718e+00
1.03630e-02,3.34031e+00
1.06355e-02,3.14537e+00
1.09152e-02,2.96168e+00
1.12022e-02,2.78860e+00
1.14968e-02,2.62550e+00
1.17991e-02,2.47183e+00
1.21094e-02,2.32704e+00
1.24278e-02,2.19062e+00
1.27546e-02,2.06208e+00
1.30900e-02,1.94099e+00
1.34342e-02,1.82690e+00
1.37874e-02,1.71942e+00
1.41500e-02,1.61817e+00
1.45220e-02,1.52279e+00
1.49039e-02,1.43294e+00
1.52958e-02,1.34830e+00
1.56980e-02,1.26857e+00
1.61108e-02,1.19348e+00
1.65344e-02,1.12276e+00
1.69692e-02,1.05614e+00
1.74154e-02,9.93408e-01
1.78733e-02,9.34326e-01
1.83433e-02,8.78687e-01
1.88257e-02,8.26293e-01
1.93207e-02,7.76957e-01
1.98287e-02,7.30503e-01
2.03501e-02,6.86764e-01
2.08852e-02,6.45584e-01
2.14344e-02,6.06816e-01
2.19980e-02,5.70319e-01
2.25765e-02,5.35963e-01
2.31701e-02,5.03624e-01
2.37794e-02,4.73185e-01
2.44047e-02,4.44537e-01
2.50464e-02,4.17576e-01
2.57050e-02,3.92204e-01
2.63809e-02,3.68330e-01
2.70746e-02,3.45866e-01
2.77865e-02,3.24731e-01
2.85172e-02,3.04848e-01
2.92670e-02,2.86144e-01
3.00366e-02,2.68550e-01
3.08264e-02,2.52002e-01
3.16370e-02,2.36440e-01
3.24689e-02,2.21805e-01
3.33227e-02,2.08045e-01
3.41989e-02,1.95107e-01
3.50982e-02,1.82945e-01
3.60211e-02,1.71512e-01
3.69683e-02,1.60766e-01
3.79404e-02,1.50667e-01
3.89380e-02,1.41177e-01
3.99619e-02,1.32261e-01
4.10127e-02,1.23884e-01
4.20911e-02,1.16016e-01
4.31979e-02,1.08626e-01
4.43338e-02,1.01686e-01
4.54996e-02,9.51693e-02
4.66960e-02,8.90515e-02
4.79239e-02,8.33089e-02
4.91841e-02,7.79192e-02
5.04774e-02,7.28616e-02
5.18047e-02,6.81164e-02
5.31669e-02,6.36650e-02
5.45649e-02,5.94900e-02
5.59997e-02,5.55750e-02
5.74722e-02,5.19043e-02
5.89835e-02,4.84635e-02
6.05345e-02,4.52387e-02
6.21262e-02,4.22170e-02
6.37598e-02,3.93863e-02
6.54364e-02,3.67349e-02
6.71571e-02,3.42522e-02
6.89230e-02,3.19278e-02
7.07353e-02,2.97523e-02
7.25953e-02,2.77165e-02
7.45042e-02,2.58120e-02
7.64633e-02,2.40307e-02
7.84739e-02,2.23651e-02
8.05374e-02,2.08082e-02
8.26552e-02,1.93531e-02
8.48286e-02,1.79937e-02
8.70592e-02,1.67240e-02
8.93484e-02,1.55384e-02
9.16978e-02,1.44317e-02
9.41090e-02,1.33990e-02
9.65837e-02,1.24356e-02
9.91233e-02,1.15372e-02
1.01730e-01,1.06997e-02
1.04405e-01,9.91911e-03
1.07150e-01,9.19192e-03
1.09968e-01,8.51469e-03
1.12859e-01,7.88422e-03
1.15827e-01,7.29747e-03
1.18873e-01,6.75164e-03
1.21998e-01,6.24405e-03
1.25206e-01,5.77220e-03
1.28499e-01,5.33376e-03
1.31878e-01,4.92650e-03
1.35345e-01,4.54838e-03
1.38904e-01,4.19744e-03
1.42557e-01,3.87187e-03
1.46305e-01,3.56996e-03
1.50152e-01,3.29010e-03
1.54101e-01,3.03080e-03
1.58153e-01,2.79065e-03
1.62311e-01,2.56833e-03
1.66579e-01,2.36260e-03
1.70960e-01,2.17231e-03
1.75455e-01,1.99639e-03
1.80069e-01,1.83381e-03
1.84804e-01,1.68364e-03
1.89663e-01,1.54498e-03
1.94650e-01,1.41702e-03
1.99769e-01,1.29898e-03
2.05022e-01,1.19014e-03
2.10413e-01,1.08982e-03
2.15946e-01,9.97412e-04
2.21624e-01,9.12319e-04
2.27452e-01,8.33999e-04
2.33432e-01,7.61946e-04
2.39571e-01,6.95687e-04
2.45870e-01,6.34783e-04
2.52335e-01,5.78827e-04
2.58970e-01,5.27438e-04
2.65780e-01,4.80264e-04
2.72769e-01,4.36978e-04
2.79941e-01,3.97276e-04
2.87303e-01,3.60877e-04
2.94857e-01,3.27520e-04
3.02610e-01,2.96963e-04
3.10568e-01,2.68982e-04
3.18734e-01,2.43371e-04
3.27115e-01,2.19938e-04
3.35717e-01,1.98506e-04
3.44545e-01,1.78912e-04
3.53604e-01,1.61004e-04
3.62902e-01,1.44644e-04
3.72445e-01,1.29703e-04
3.82239e-01,1.16063e-04
3.92290e-01,1.03615e-04
4.02605e-01,9.22587e-05
4.13191e-01,8.19017e-05
4.24056e-01,7.24591e-05
4.35207e-01,6.38530e-05
4.46651e-01,5.60117e-05
4.58396e-01,4.88693e-05
4.70449e-01,4.23656e-05
4.82820e-01,3.64450e-05
4.95516e-01,3.10569e-05
5.08545e-01,2.61546e-05
5.21917e-01,2.16956e-05
5.35641e-01,1.76408e-05
5.49726e-01,1.39544e-05
5.64181e-01,1.06039e-05
5.79017e-01,7.55939e-06
5.94242e-01,4.79349e-06
6.09868e-01,2.28128e-06
6.25904e-01,0.00000e+00
