m1=2735.887, m2=13.051, gsp=2.395, rhosp=226.673
fGW[Hz],dPh[rad]
6.72095e-03,2.57993e+04
6.90858e-03,2.43637e+04
7.10145e-03,2.30077e+04
7.29970e-03,2.17270e+04
7.50349e-03,2.05174e+04
7.71296e-03,1.93748e+04
7.92829e-03,1.82957e+04
8.14962e-03,1.72765e+04
8.37714e-03,1.63139e+04
8.61100e-03,1.54047e+04
8.85140e-03,1.45460e+04
9.09850e-03,1.37350e+04
9.35251e-03,1.29690e+04
9.61360e-03,1.22455e+04
9.88199e-03,1.15622e+04
1.01579e-02,1.09169e+04
1.04414e-02,1.03074e+04
1.07329e-02,9.73179e+03
1.10326e-02,9.18815e+03
1.13406e-02,8.67472e+03
1.16572e-02,8.18982e+03
1.19826e-02,7.73187e+03
1.23171e-02,7.29938e+03
1.26610e-02,6.89094e+03
1.30144e-02,6.50521e+03
1.33778e-02,6.14092e+03
1.37512e-02,5.79690e+03
1.41351e-02,5.47202e+03
1.45297e-02,5.16522e+03
1.49354e-02,4.87548e+03
1.53523e-02,4.60188e+03
1.57809e-02,4.34350e+03
1.62215e-02,4.09952e+03
1.66743e-02,3.86912e+03
1.71398e-02,3.65155e+03
1.76183e-02,3.44611e+03
1.81102e-02,3.25211e+03
1.86158e-02,3.06893e+03
1.91355e-02,2.89596e+03
1.96697e-02,2.73264e+03
2.02188e-02,2.57843e+03
2.07833e-02,2.43283e+03
2.13635e-02,2.29535e+03
2.19599e-02,2.16555e+03
2.25729e-02,2.04299e+03
2.32031e-02,1.92729e+03
2.38509e-02,1.81805e+03
2.45167e-02,1.71492e+03
2.52011e-02,1.61756e+03
2.59047e-02,1.52564e+03
2.66279e-02,1.43887e+03
2.73713e-02,1.35696e+03
2.81354e-02,1.27964e+03
2.89208e-02,1.20665e+03
2.97282e-02,1.13775e+03
3.05582e-02,1.07272e+03
3.14112e-02,1.01134e+03
3.22882e-02,9.53407e+02
3.31896e-02,8.98728e+02
3.41161e-02,8.47124e+02
3.50685e-02,7.98422e+02
3.60476e-02,7.52462e+02
3.70539e-02,7.09090e+02
3.80883e-02,6.68163e+02
3.91517e-02,6.29545e+02
4.02447e-02,5.93106e+02
4.13682e-02,5.58725e+02
4.25231e-02,5.26287e+02
4.37102e-02,4.95685e+02
4.49304e-02,4.66815e+02
4.61848e-02,4.39582e+02
4.74741e-02,4.13893e+02
4.87995e-02,3.89662e+02
5.01618e-02,3.66809e+02
5.15622e-02,3.45255e+02
5.30017e-02,3.24929e+02
5.44813e-02,3.05762e+02
5.60023e-02,2.87688e+02
5.75657e-02,2.70648e+02
5.91728e-02,2.54582e+02
6.08247e-02,2.39436e+02
6.25228e-02,2.25159e+02
6.42682e-02,2.11702e+02
6.60624e-02,1.99019e+02
6.79067e-02,1.87066e+02
6.98024e-02,1.75803e+02
7.17511e-02,1.65191e+02
7.37542e-02,1.55193e+02
7.58132e-02,1.45774e+02
7.79297e-02,1.36902e+02
8.01053e-02,1.28546e+02
8.23416e-02,1.20678e+02
8.46403e-02,1.13268e+02
8.70033e-02,1.06293e+02
8.94321e-02,9.97258e+01
9.19288e-02,9.35448e+01
9.44952e-02,8.77279e+01
9.71333e-02,8.22542e+01
9.98449e-02,7.71044e+01
1.02632e-01,7.22600e+01
1.05498e-01,6.77037e+01
1.08443e-01,6.34189e+01
1.11470e-01,5.93903e+01
1.14582e-01,5.56031e+01
1.17781e-01,5.20436e+01
1.21069e-01,4.86987e+01
1.24449e-01,4.55561e+01
1.27923e-01,4.26041e+01
1.31494e-01,3.98317e+01
1.35165e-01,3.72287e+01
1.38939e-01,3.47851e+01
1.42818e-01,3.24918e+01
1.46805e-01,3.03401e+01
1.50903e-01,2.83216e+01
1.55116e-01,2.64286e+01
1.59446e-01,2.46538e+01
1.63897e-01,2.29903e+01
1.68473e-01,2.14314e+01
1.73176e-01,1.99711e+01
1.78011e-01,1.86035e+01
1.82980e-01,1.73231e+01
1.88089e-01,1.61247e+01
1.93340e-01,1.50034e+01
1.98737e-01,1.39546e+01
2.04285e-01,1.29740e+01
2.09988e-01,1.20574e+01
2.15851e-01,1.12010e+01
2.21877e-01,1.04010e+01
2.28071e-01,9.65413e+00
2.34438e-01,8.95702e+00
2.40983e-01,8.30664e+00
2.47710e-01,7.70010e+00
2.54626e-01,7.13466e+00
2.61734e-01,6.60776e+00
2.69041e-01,6.11698e+00
2.76552e-01,5.66005e+00
2.84272e-01,5.23480e+00
2.92208e-01,4.83922e+00
3.00366e-01,4.47140e+00
3.08751e-01,4.12956e+00
3.17371e-01,3.81201e+00
3.26231e-01,3.51715e+00
3.35338e-01,3.24350e+00
3.44700e-01,2.98965e+00
3.54323e-01,2.75429e+00
3.64215e-01,2.53617e+00
3.74383e-01,2.33413e+00
3.84834e-01,2.14709e+00
3.95578e-01,1.97401e+00
4.06621e-01,1.81393e+00
4.17973e-01,1.66595e+00
4.29642e-01,1.52923e+00
4.41636e-01,1.40297e+00
4.53965e-01,1.28644e+00
4.66639e-01,1.17894e+00
4.79666e-01,1.07981e+00
4.93057e-01,9.88464e-01
5.06821e-01,9.04321e-01
5.20970e-01,8.26856e-01
5.35514e-01,7.55575e-01
5.50464e-01,6.90017e-01
5.65832e-01,6.29753e-01
5.81628e-01,5.74382e-01
5.97866e-01,5.23534e-01
6.14556e-01,4.76860e-01
6.31713e-01,4.34038e-01
6.49349e-01,3.94771e-01
6.67477e-01,3.58778e-01
6.86111e-01,3.25804e-01
7.05265e-01,2.95608e-01
7.24954e-01,2.67968e-01
7.45193e-01,2.42680e-01
7.65996e-01,2.19554e-01
7.87381e-01,1.98413e-01
8.09362e-01,1.79096e-01
8.31957e-01,1.61453e-01
8.55183e-01,1.45344e-01
8.79057e-01,1.30642e-01
9.03598e-01,1.17230e-01
9.28824e-01,1.04999e-01
9.54754e-01,9.38492e-02
9.81408e-01,8.36884e-02
1.00881e+00,7.44324e-02
1.03697e+00,6.60033e-02
1.06592e+00,5.83300e-02
1.09568e+00,5.13468e-02
1.12626e+00,4.49938e-02
1.15771e+00,3.92158e-02
1.19003e+00,3.39623e-02
1.22325e+00,2.91871e-02
1.25740e+00,2.48479e-02
1.29250e+00,2.09060e-02
1.32858e+00,1.73258e-02
1.36567e+00,1.40750e-02
1.40380e+00,1.11241e-02
1.44299e+00,8.44606e-03
1.48327e+00,6.01613e-03
1.52468e+00,3.81187e-03
1.56725e+00,1.81273e-03
1.61100e+00,0.00000e+00
