m1=1079.529, m2=44.856, gsp=2.233, rhosp=2526.347
fGW[Hz],dPh[rad]
5.36143e-03,2.78708e+02
5.54371e-03,2.59133e+02
5.73219e-03,2.40932e+02
5.92708e-03,2.24010e+02
6.12859e-03,2.08276e+02
6.33696e-03,1.93647e+02
6.55240e-03,1.80045e+02
6.77518e-03,1.67398e+02
7.00553e-03,1.55640e+02
7.24371e-03,1.44708e+02
7.48998e-03,1.34543e+02
7.74463e-03,1.25092e+02
8.00794e-03,1.16305e+02
8.28020e-03,1.08135e+02
8.56172e-03,1.00539e+02
8.85281e-03,9.34759e+01
9.15379e-03,8.69093e+01
9.46501e-03,8.08038e+01
9.78681e-03,7.51271e+01
1.01195e-02,6.98491e+01
1.04636e-02,6.49418e+01
1.08193e-02,6.03792e+01
1.11872e-02,5.61370e+01
1.15675e-02,5.21928e+01
1.19608e-02,4.85256e+01
1.23675e-02,4.51160e+01
1.27880e-02,4.19459e+01
1.32227e-02,3.89984e+01
1.36723e-02,3.62579e+01
1.41371e-02,3.37100e+01
1.46178e-02,3.13410e+01
1.51148e-02,2.91384e+01
1.56287e-02,2.70905e+01
1.61600e-02,2.51865e+01
1.67094e-02,2.34162e+01
1.72775e-02,2.17703e+01
1.78649e-02,2.02400e+01
1.84723e-02,1.88172e+01
1.91004e-02,1.74944e+01
1.97498e-02,1.62645e+01
2.04212e-02,1.51209e+01
2.11155e-02,1.40578e+01
2.18334e-02,1.30693e+01
2.25757e-02,1.21502e+01
2.33433e-02,1.12958e+01
2.41369e-02,1.05013e+01
2.49575e-02,9.76271e+00
2.58061e-02,9.07599e+00
2.66835e-02,8.43752e+00
2.75907e-02,7.84391e+00
2.85287e-02,7.29202e+00
2.94986e-02,6.77891e+00
3.05016e-02,6.30186e+00
3.15386e-02,5.85833e+00
3.26109e-02,5.44598e+00
3.37196e-02,5.06261e+00
3.48660e-02,4.70618e+00
3.60514e-02,4.37480e+00
3.72771e-02,4.06672e+00
3.85445e-02,3.78030e+00
3.98550e-02,3.51401e+00
4.12100e-02,3.26644e+00
4.26111e-02,3.03627e+00
4.40598e-02,2.82229e+00
4.55578e-02,2.62336e+00
4.71067e-02,2.43841e+00
4.87083e-02,2.26648e+00
5.03643e-02,2.10663e+00
5.20766e-02,1.95803e+00
5.38471e-02,1.81988e+00
5.56779e-02,1.69144e+00
5.75709e-02,1.57205e+00
5.95282e-02,1.46105e+00
6.15521e-02,1.35787e+00
6.36448e-02,1.26194e+00
6.58086e-02,1.17277e+00
6.80460e-02,1.08988e+00
7.03595e-02,1.01282e+00
7.27517e-02,9.41184e-01
7.52251e-02,8.74595e-01
7.77827e-02,8.12695e-01
8.04272e-02,7.55155e-01
8.31616e-02,7.01668e-01
8.59890e-02,6.51950e-01
8.89126e-02,6.05736e-01
9.19355e-02,5.62779e-01
9.50612e-02,5.22851e-01
9.82931e-02,4.85737e-01
1.01635e-01,4.51242e-01
1.05090e-01,4.19179e-01
1.08663e-01,3.89379e-01
1.12358e-01,3.61681e-01
1.16178e-01,3.35939e-01
1.20128e-01,3.12014e-01
1.24212e-01,2.89779e-01
1.28435e-01,2.69115e-01
1.32802e-01,2.49911e-01
1.37317e-01,2.32065e-01
1.41985e-01,2.15481e-01
1.46813e-01,2.00069e-01
1.51804e-01,1.85749e-01
1.56965e-01,1.72442e-01
1.62302e-01,1.60077e-01
1.67820e-01,1.48588e-01
1.73526e-01,1.37914e-01
1.79425e-01,1.27997e-01
1.85526e-01,1.18783e-01
1.91833e-01,1.10223e-01
1.98355e-01,1.02271e-01
2.05099e-01,9.48842e-02
2.12072e-01,8.80224e-02
2.19282e-01,8.16489e-02
2.26738e-01,7.57290e-02
2.34447e-01,7.02307e-02
2.42418e-01,6.51245e-02
2.50659e-01,6.03824e-02
2.59182e-01,5.59789e-02
2.67993e-01,5.18900e-02
2.77105e-01,4.80934e-02
2.86526e-01,4.45686e-02
2.96268e-01,4.12962e-02
3.06340e-01,3.82585e-02
3.16756e-01,3.54388e-02
3.27525e-01,3.28217e-02
3.38660e-01,3.03928e-02
3.50174e-01,2.81388e-02
3.62080e-01,2.60473e-02
3.74390e-01,2.41068e-02
3.87119e-01,2.23065e-02
4.00281e-01,2.06365e-02
4.13890e-01,1.90876e-02
4.27961e-01,1.76511e-02
4.42512e-01,1.63190e-02
4.57556e-01,1.50840e-02
4.73113e-01,1.39390e-02
4.89198e-01,1.28777e-02
5.05830e-01,1.18941e-02
5.23028e-01,1.09826e-02
5.40810e-01,1.01381e-02
5.59197e-01,9.35585e-03
5.78209e-01,8.63131e-03
5.97867e-01,7.96037e-03
6.18194e-01,7.33918e-03
6.39212e-01,6.76417e-03
6.60944e-01,6.23202e-03
6.83416e-01,5.73963e-03
7.06651e-01,5.28414e-03
7.30676e-01,4.86288e-03
7.55518e-01,4.47337e-03
7.81205e-01,4.11332e-03
8.07765e-01,3.78058e-03
8.35228e-01,3.47317e-03
8.63625e-01,3.18924e-03
8.92987e-01,2.92708e-03
9.23348e-01,2.68509e-03
9.54740e-01,2.46179e-03
9.87200e-01,2.25581e-03
1.02076e+00,2.06587e-03
1.05547e+00,1.89079e-03
1.09135e+00,1.72946e-03
1.12846e+00,1.58086e-03
1.16682e+00,1.44405e-03
1.20649e+00,1.31813e-03
1.24751e+00,1.20230e-03
1.28993e+00,1.09580e-03
1.33378e+00,9.97908e-04
1.37913e+00,9.07983e-04
1.42602e+00,8.25414e-04
1.47450e+00,7.49639e-04
1.52463e+00,6.80134e-04
1.57647e+00,6.16416e-04
1.63007e+00,5.58034e-04
1.68549e+00,5.04573e-04
1.74279e+00,4.55647e-04
1.80205e+00,4.10896e-04
1.86331e+00,3.69991e-04
1.92666e+00,3.32623e-04
1.99217e+00,2.98510e-04
2.05990e+00,2.67387e-04
2.12993e+00,2.39012e-04
2.20235e+00,2.13159e-04
2.27723e+00,1.89621e-04
2.35465e+00,1.68204e-04
2.43470e+00,1.48733e-04
2.51748e+00,1.31042e-04
2.60307e+00,1.14981e-04
2.69157e+00,1.00409e-04
2.78308e+00,8.71994e-05
2.87771e+00,7.52328e-05
2.97554e+00,6.44005e-05
3.07671e+00,5.46023e-05
3.18131e+00,4.57461e-05
3.28947e+00,3.77474e-05
3.40131e+00,3.05285e-05
3.51695e+00,2.40183e-05
3.63652e+00,1.81516e-05
3.76016e+00,1.28687e-05
3.88800e+00,8.11503e-06
4.02019e+00,3.84064e-06
4.15687e+00,0.00000e+00
