m1=400327.620, m2=11.040, gsp=2.276, rhosp=7644.412
fGW[Hz],dPh[rad]
2.05637e-03,7.57047e+03
2.07375e-03,7.33380e+03
2.09129e-03,7.10448e+03
2.10897e-03,6.88227e+03
2.12680e-03,6.66697e+03
2.14478e-03,6.45835e+03
2.16292e-03,6.25621e+03
2.18120e-03,6.06036e+03
2.19964e-03,5.87059e+03
2.21824e-03,5.68672e+03
2.23700e-03,5.50857e+03
2.25591e-03,5.33596e+03
2.27499e-03,5.16872e+03
2.29422e-03,5.00669e+03
2.31362e-03,4.84970e+03
2.33318e-03,4.69759e+03
2.35291e-03,4.55022e+03
2.37280e-03,4.40744e+03
2.39286e-03,4.26911e+03
2.41310e-03,4.13509e+03
2.43350e-03,4.00524e+03
2.45407e-03,3.87945e+03
2.47482e-03,3.75757e+03
2.49575e-03,3.63949e+03
2.51685e-03,3.52510e+03
2.53813e-03,3.41427e+03
2.55959e-03,3.30691e+03
2.58123e-03,3.20289e+03
2.60305e-03,3.10212e+03
2.62506e-03,3.00449e+03
2.64726e-03,2.90991e+03
2.66964e-03,2.81829e+03
2.69221e-03,2.72953e+03
2.71498e-03,2.64354e+03
2.73793e-03,2.56023e+03
2.76108e-03,2.47953e+03
2.78443e-03,2.40135e+03
2.80797e-03,2.32562e+03
2.83171e-03,2.25225e+03
2.85565e-03,2.18118e+03
2.87980e-03,2.11233e+03
2.90414e-03,2.04563e+03
2.92870e-03,1.98102e+03
2.95346e-03,1.91843e+03
2.97843e-03,1.85780e+03
3.00362e-03,1.79906e+03
3.02901e-03,1.74217e+03
3.05462e-03,1.68705e+03
3.08045e-03,1.63366e+03
3.10649e-03,1.58195e+03
3.13276e-03,1.53185e+03
3.15925e-03,1.48332e+03
3.18596e-03,1.43631e+03
3.21290e-03,1.39078e+03
3.24006e-03,1.34667e+03
3.26746e-03,1.30394e+03
3.29508e-03,1.26255e+03
3.32294e-03,1.22246e+03
3.35104e-03,1.18363e+03
3.37937e-03,1.14601e+03
3.40794e-03,1.10957e+03
3.43676e-03,1.07428e+03
3.46582e-03,1.04009e+03
3.49512e-03,1.00698e+03
3.52467e-03,9.74902e+02
3.55447e-03,9.43832e+02
3.58453e-03,9.13737e+02
3.61483e-03,8.84587e+02
3.64540e-03,8.56351e+02
3.67622e-03,8.29001e+02
3.70730e-03,8.02510e+02
3.73865e-03,7.76851e+02
3.77026e-03,7.51997e+02
3.80213e-03,7.27923e+02
3.83428e-03,7.04606e+02
3.86670e-03,6.82020e+02
3.89939e-03,6.60144e+02
3.93236e-03,6.38956e+02
3.96561e-03,6.18432e+02
3.99914e-03,5.98554e+02
4.03295e-03,5.79300e+02
4.06705e-03,5.60651e+02
4.10144e-03,5.42589e+02
4.13612e-03,5.25093e+02
4.17109e-03,5.08148e+02
4.20635e-03,4.91735e+02
4.24192e-03,4.75839e+02
4.27778e-03,4.60442e+02
4.31395e-03,4.45529e+02
4.35043e-03,4.31085e+02
4.38721e-03,4.17095e+02
4.42431e-03,4.03545e+02
4.46171e-03,3.90421e+02
4.49944e-03,3.77711e+02
4.53748e-03,3.65399e+02
4.57584e-03,3.53476e+02
4.61453e-03,3.41927e+02
4.65355e-03,3.30741e+02
4.69289e-03,3.19908e+02
4.73257e-03,3.09415e+02
4.77259e-03,2.99253e+02
4.81294e-03,2.89410e+02
4.85363e-03,2.79878e+02
4.89467e-03,2.70645e+02
4.93606e-03,2.61703e+02
4.97779e-03,2.53042e+02
5.01988e-03,2.44654e+02
5.06232e-03,2.36530e+02
5.10512e-03,2.28662e+02
5.14829e-03,2.21041e+02
5.19182e-03,2.13661e+02
5.23571e-03,2.06512e+02
5.27998e-03,1.99589e+02
5.32462e-03,1.92884e+02
5.36964e-03,1.86391e+02
5.41504e-03,1.80101e+02
5.46083e-03,1.74010e+02
5.50700e-03,1.68111e+02
5.55356e-03,1.62397e+02
5.60052e-03,1.56864e+02
5.64787e-03,1.51505e+02
5.69562e-03,1.46314e+02
5.74378e-03,1.41288e+02
5.79234e-03,1.36419e+02
5.84132e-03,1.31704e+02
5.89071e-03,1.27138e+02
5.94051e-03,1.22715e+02
5.99074e-03,1.18432e+02
6.04139e-03,1.14284e+02
6.09247e-03,1.10267e+02
6.14398e-03,1.06376e+02
6.19593e-03,1.02608e+02
6.24832e-03,9.89586e+01
6.30115e-03,9.54243e+01
6.35442e-03,9.20014e+01
6.40815e-03,8.86865e+01
6.46233e-03,8.54760e+01
6.51697e-03,8.23668e+01
6.57207e-03,7.93556e+01
6.62764e-03,7.64394e+01
6.68368e-03,7.36151e+01
6.74019e-03,7.08799e+01
6.79717e-03,6.82309e+01
6.85465e-03,6.56655e+01
6.91260e-03,6.31810e+01
6.97105e-03,6.07748e+01
7.02999e-03,5.84445e+01
7.08943e-03,5.61878e+01
7.14937e-03,5.40022e+01
7.20982e-03,5.18855e+01
7.27078e-03,4.98357e+01
7.33225e-03,4.78504e+01
7.39424e-03,4.59279e+01
7.45676e-03,4.40659e+01
7.51981e-03,4.22627e+01
7.58339e-03,4.05164e+01
7.64751e-03,3.88252e+01
7.71217e-03,3.71874e+01
7.77737e-03,3.56012e+01
7.84313e-03,3.40651e+01
7.90945e-03,3.25774e+01
7.97632e-03,3.11367e+01
8.04376e-03,2.97415e+01
8.11177e-03,2.83903e+01
8.18036e-03,2.70817e+01
8.24952e-03,2.58144e+01
8.31927e-03,2.45871e+01
8.38961e-03,2.33986e+01
8.46055e-03,2.22475e+01
8.53208e-03,2.11328e+01
8.60422e-03,2.00533e+01
8.67697e-03,1.90079e+01
8.75033e-03,1.79954e+01
8.82432e-03,1.70149e+01
8.89893e-03,1.60654e+01
8.97417e-03,1.51458e+01
9.05004e-03,1.42553e+01
9.12656e-03,1.33928e+01
9.20373e-03,1.25576e+01
9.28155e-03,1.17488e+01
9.36002e-03,1.09655e+01
9.43916e-03,1.02069e+01
9.51897e-03,9.47230e+00
9.59945e-03,8.76088e+00
9.68062e-03,8.07191e+00
9.76247e-03,7.40470e+00
9.84501e-03,6.75855e+00
9.92825e-03,6.13281e+00
1.00122e-02,5.52682e+00
1.00968e-02,4.93997e+00
1.01822e-02,4.37165e+00
1.02683e-02,3.82128e+00
1.03551e-02,3.28829e+00
1.04427e-02,2.77212e+00
1.05310e-02,2.27226e+00
1.06200e-02,1.78818e+00
1.07098e-02,1.31939e+00
1.08004e-02,8.65410e-01
1.08917e-02,4.25762e-01
1.09838e-02,0.00000e+00
