m1=3436.865, m2=7.854, gsp=2.029, rhosp=45.135
fGW[Hz],dPh[rad]
7.67770e-03,3.80839e+01
7.87768e-03,3.58649e+01
8.08287e-03,3.37746e+01
8.29340e-03,3.18055e+01
8.50941e-03,2.99506e+01
8.73106e-03,2.82033e+01
8.95847e-03,2.65573e+01
9.19181e-03,2.50069e+01
9.43123e-03,2.35464e+01
9.67688e-03,2.21707e+01
9.92893e-03,2.08749e+01
1.01875e-02,1.96543e+01
1.04529e-02,1.85046e+01
1.07252e-02,1.74217e+01
1.10045e-02,1.64017e+01
1.12912e-02,1.54410e+01
1.15853e-02,1.45361e+01
1.18870e-02,1.36839e+01
1.21966e-02,1.28811e+01
1.25143e-02,1.21251e+01
1.28403e-02,1.14131e+01
1.31747e-02,1.07425e+01
1.35179e-02,1.01110e+01
1.38700e-02,9.51618e+00
1.42312e-02,8.95604e+00
1.46019e-02,8.42855e+00
1.49822e-02,7.93179e+00
1.53725e-02,7.46400e+00
1.57729e-02,7.02350e+00
1.61837e-02,6.60869e+00
1.66053e-02,6.21810e+00
1.70378e-02,5.85031e+00
1.74815e-02,5.50400e+00
1.79369e-02,5.17793e+00
1.84041e-02,4.87092e+00
1.88834e-02,4.58187e+00
1.93753e-02,4.30973e+00
1.98800e-02,4.05352e+00
2.03978e-02,3.81231e+00
2.09291e-02,3.58524e+00
2.14742e-02,3.37149e+00
2.20335e-02,3.17027e+00
2.26074e-02,2.98086e+00
2.31963e-02,2.80257e+00
2.38005e-02,2.63476e+00
2.44204e-02,2.47682e+00
2.50565e-02,2.32817e+00
2.57091e-02,2.18827e+00
2.63788e-02,2.05662e+00
2.70658e-02,1.93272e+00
2.77708e-02,1.81614e+00
2.84942e-02,1.70644e+00
2.92363e-02,1.60322e+00
2.99978e-02,1.50611e+00
3.07792e-02,1.41474e+00
3.15809e-02,1.32879e+00
3.24035e-02,1.24793e+00
3.32475e-02,1.17187e+00
3.41135e-02,1.10033e+00
3.50020e-02,1.03305e+00
3.59137e-02,9.69766e-01
3.68491e-02,9.10257e-01
3.78089e-02,8.54298e-01
3.87937e-02,8.01681e-01
3.98042e-02,7.52210e-01
4.08409e-02,7.05701e-01
4.19047e-02,6.61980e-01
4.29962e-02,6.20883e-01
4.41161e-02,5.82255e-01
4.52652e-02,5.45953e-01
4.64442e-02,5.11838e-01
4.76539e-02,4.79783e-01
4.88952e-02,4.49665e-01
5.01687e-02,4.21370e-01
5.14754e-02,3.94792e-01
5.28162e-02,3.69828e-01
5.41919e-02,3.46383e-01
5.56034e-02,3.24367e-01
5.70517e-02,3.03695e-01
5.85377e-02,2.84288e-01
6.00624e-02,2.66071e-01
6.16269e-02,2.48972e-01
6.32321e-02,2.32927e-01
6.48791e-02,2.17870e-01
6.65689e-02,2.03745e-01
6.83028e-02,1.90494e-01
7.00819e-02,1.78067e-01
7.19073e-02,1.66413e-01
7.37803e-02,1.55486e-01
7.57020e-02,1.45243e-01
7.76738e-02,1.35642e-01
7.96969e-02,1.26645e-01
8.17728e-02,1.18215e-01
8.39027e-02,1.10318e-01
8.60881e-02,1.02922e-01
8.83304e-02,9.59966e-02
9.06311e-02,8.95128e-02
9.29918e-02,8.34440e-02
9.54139e-02,7.77647e-02
9.78991e-02,7.24512e-02
1.00449e-01,6.74811e-02
1.03065e-01,6.28332e-02
1.05750e-01,5.84878e-02
1.08504e-01,5.44262e-02
1.11331e-01,5.06308e-02
1.14230e-01,4.70850e-02
1.17206e-01,4.37734e-02
1.20259e-01,4.06814e-02
1.23391e-01,3.77952e-02
1.26605e-01,3.51018e-02
1.29903e-01,3.25892e-02
1.33286e-01,3.02459e-02
1.36758e-01,2.80612e-02
1.40320e-01,2.60250e-02
1.43975e-01,2.41278e-02
1.47725e-01,2.23608e-02
1.51573e-01,2.07154e-02
1.55520e-01,1.91840e-02
1.59571e-01,1.77590e-02
1.63728e-01,1.64336e-02
1.67992e-01,1.52013e-02
1.72368e-01,1.40558e-02
1.76857e-01,1.29916e-02
1.81464e-01,1.20033e-02
1.86191e-01,1.10857e-02
1.91040e-01,1.02341e-02
1.96016e-01,9.44414e-03
2.01122e-01,8.71162e-03
2.06360e-01,8.03263e-03
2.11735e-01,7.40354e-03
2.17250e-01,6.82090e-03
2.22909e-01,6.28152e-03
2.28715e-01,5.78240e-03
2.34672e-01,5.32072e-03
2.40785e-01,4.89387e-03
2.47056e-01,4.49938e-03
2.53492e-01,4.13496e-03
2.60094e-01,3.79847e-03
2.66869e-01,3.48790e-03
2.73820e-01,3.20138e-03
2.80952e-01,2.93716e-03
2.88270e-01,2.69362e-03
2.95778e-01,2.46923e-03
3.03482e-01,2.26258e-03
3.11387e-01,2.07236e-03
3.19498e-01,1.89733e-03
3.27820e-01,1.73635e-03
3.36358e-01,1.58835e-03
3.45119e-01,1.45236e-03
3.54108e-01,1.32744e-03
3.63332e-01,1.21275e-03
3.72795e-01,1.10749e-03
3.82506e-01,1.01093e-03
3.92469e-01,9.22386e-04
4.02691e-01,8.41226e-04
4.13180e-01,7.66865e-04
4.23942e-01,6.98761e-04
4.34984e-01,6.36412e-04
4.46314e-01,5.79354e-04
4.57939e-01,5.27159e-04
4.69867e-01,4.79430e-04
4.82106e-01,4.35801e-04
4.94663e-01,3.95935e-04
5.07547e-01,3.59521e-04
5.20767e-01,3.26271e-04
5.34331e-01,2.95922e-04
5.48249e-01,2.68229e-04
5.62529e-01,2.42969e-04
5.77181e-01,2.19936e-04
5.92215e-01,1.98939e-04
6.07640e-01,1.79806e-04
6.23467e-01,1.62375e-04
6.39707e-01,1.46501e-04
6.56369e-01,1.32048e-04
6.73465e-01,1.18893e-04
6.91007e-01,1.06923e-04
7.09005e-01,9.60334e-05
7.27472e-01,8.61302e-05
7.46421e-01,7.71259e-05
7.65863e-01,6.89412e-05
7.85811e-01,6.15032e-05
8.06279e-01,5.47453e-05
8.27280e-01,4.86068e-05
8.48827e-01,4.30321e-05
8.70937e-01,3.79707e-05
8.93622e-01,3.33761e-05
9.16898e-01,2.92061e-05
9.40780e-01,2.54224e-05
9.65284e-01,2.19896e-05
9.90427e-01,1.88760e-05
1.01622e+00,1.60522e-05
1.04269e+00,1.34918e-05
1.06985e+00,1.11706e-05
1.09772e+00,9.06658e-06
1.12631e+00,7.15971e-06
1.15565e+00,5.43178e-06
1.18575e+00,3.86623e-06
1.21663e+00,2.44800e-06
1.24832e+00,1.16341e-06
1.28084e+00,0.00000e+00
