m1=1260.568, m2=18.810, gsp=2.364, rhosp=1184.512
fGW[Hz],dPh[rad]
7.12155e-03,7.50657e+03
7.34697e-03,7.03283e+03
7.57953e-03,6.58897e+03
7.81945e-03,6.17311e+03
8.06696e-03,5.78348e+03
8.32231e-03,5.41843e+03
8.58574e-03,5.07641e+03
8.85751e-03,4.75596e+03
9.13788e-03,4.45573e+03
9.42712e-03,4.17444e+03
9.72553e-03,3.91089e+03
1.00334e-02,3.66397e+03
1.03510e-02,3.43263e+03
1.06786e-02,3.21588e+03
1.10166e-02,3.01280e+03
1.13653e-02,2.82254e+03
1.17251e-02,2.64429e+03
1.20962e-02,2.47728e+03
1.24791e-02,2.32080e+03
1.28741e-02,2.17420e+03
1.32816e-02,2.03685e+03
1.37020e-02,1.90817e+03
1.41358e-02,1.78761e+03
1.45832e-02,1.67465e+03
1.50448e-02,1.56882e+03
1.55210e-02,1.46967e+03
1.60123e-02,1.37678e+03
1.65192e-02,1.28975e+03
1.70421e-02,1.20822e+03
1.75815e-02,1.13183e+03
1.81380e-02,1.06026e+03
1.87122e-02,9.93205e+02
1.93045e-02,9.30386e+02
1.99155e-02,8.71532e+02
2.05459e-02,8.16394e+02
2.11963e-02,7.64737e+02
2.18672e-02,7.16341e+02
2.25594e-02,6.71001e+02
2.32735e-02,6.28524e+02
2.40101e-02,5.88729e+02
2.47701e-02,5.51447e+02
2.55542e-02,5.16519e+02
2.63631e-02,4.83798e+02
2.71976e-02,4.53143e+02
2.80585e-02,4.24425e+02
2.89466e-02,3.97520e+02
2.98629e-02,3.72316e+02
3.08081e-02,3.48704e+02
3.17833e-02,3.26584e+02
3.27894e-02,3.05862e+02
3.38273e-02,2.86449e+02
3.48980e-02,2.68264e+02
3.60027e-02,2.51228e+02
3.71423e-02,2.35269e+02
3.83180e-02,2.20319e+02
3.95309e-02,2.06315e+02
4.07822e-02,1.93196e+02
4.20731e-02,1.80907e+02
4.34048e-02,1.69395e+02
4.47787e-02,1.58612e+02
4.61961e-02,1.48511e+02
4.76584e-02,1.39050e+02
4.91670e-02,1.30187e+02
5.07233e-02,1.21885e+02
5.23288e-02,1.14110e+02
5.39852e-02,1.06826e+02
5.56940e-02,1.00004e+02
5.74569e-02,9.36147e+01
5.92757e-02,8.76299e+01
6.11519e-02,8.20246e+01
6.30876e-02,7.67746e+01
6.50846e-02,7.18577e+01
6.71447e-02,6.72526e+01
6.92701e-02,6.29398e+01
7.14627e-02,5.89008e+01
7.37248e-02,5.51182e+01
7.60584e-02,5.15759e+01
7.84659e-02,4.82586e+01
8.09496e-02,4.51522e+01
8.35120e-02,4.22432e+01
8.61554e-02,3.95194e+01
8.88825e-02,3.69688e+01
9.16960e-02,3.45806e+01
9.45985e-02,3.23445e+01
9.75928e-02,3.02508e+01
1.00682e-01,2.82907e+01
1.03869e-01,2.64555e+01
1.07157e-01,2.47374e+01
1.10549e-01,2.31290e+01
1.14048e-01,2.16234e+01
1.17658e-01,2.02140e+01
1.21382e-01,1.88948e+01
1.25224e-01,1.76599e+01
1.29188e-01,1.65042e+01
1.33277e-01,1.54225e+01
1.37496e-01,1.44102e+01
1.41848e-01,1.34629e+01
1.46338e-01,1.25764e+01
1.50970e-01,1.17469e+01
1.55749e-01,1.09708e+01
1.60679e-01,1.02446e+01
1.65765e-01,9.56531e+00
1.71012e-01,8.92982e+00
1.76425e-01,8.33538e+00
1.82010e-01,7.77939e+00
1.87771e-01,7.25938e+00
1.93715e-01,6.77308e+00
1.99847e-01,6.31834e+00
2.06172e-01,5.89315e+00
2.12698e-01,5.49562e+00
2.19431e-01,5.12399e+00
2.26377e-01,4.77662e+00
2.33542e-01,4.45194e+00
2.40935e-01,4.14851e+00
2.48561e-01,3.86498e+00
2.56429e-01,3.60006e+00
2.64546e-01,3.35258e+00
2.72920e-01,3.12140e+00
2.81559e-01,2.90549e+00
2.90471e-01,2.70387e+00
2.99665e-01,2.51562e+00
3.09151e-01,2.33987e+00
3.18937e-01,2.17583e+00
3.29032e-01,2.02274e+00
3.39447e-01,1.87990e+00
3.50192e-01,1.74664e+00
3.61276e-01,1.62234e+00
3.72712e-01,1.50643e+00
3.84510e-01,1.39836e+00
3.96681e-01,1.29761e+00
4.09237e-01,1.20373e+00
4.22191e-01,1.11625e+00
4.35555e-01,1.03476e+00
4.49342e-01,9.58870e-01
4.63565e-01,8.88213e-01
4.78238e-01,8.22446e-01
4.93376e-01,7.61247e-01
5.08993e-01,7.04315e-01
5.25105e-01,6.51368e-01
5.41726e-01,6.02143e-01
5.58874e-01,5.56393e-01
5.76564e-01,5.13886e-01
5.94814e-01,4.74407e-01
6.13642e-01,4.37751e-01
6.33066e-01,4.03731e-01
6.53105e-01,3.72168e-01
6.73778e-01,3.42897e-01
6.95105e-01,3.15762e-01
7.17108e-01,2.90617e-01
7.39807e-01,2.67326e-01
7.63224e-01,2.45763e-01
7.87383e-01,2.25808e-01
8.12306e-01,2.07349e-01
8.38019e-01,1.90284e-01
8.64545e-01,1.74513e-01
8.91911e-01,1.59947e-01
9.20143e-01,1.46500e-01
9.49268e-01,1.34093e-01
9.79316e-01,1.22652e-01
1.01031e+00,1.12106e-01
1.04229e+00,1.02392e-01
1.07529e+00,9.34495e-02
1.10932e+00,8.52210e-02
1.14444e+00,7.76545e-02
1.18066e+00,7.07008e-02
1.21804e+00,6.43142e-02
1.25659e+00,5.84520e-02
1.29637e+00,5.30746e-02
1.33740e+00,4.81449e-02
1.37973e+00,4.36286e-02
1.42341e+00,3.94935e-02
1.46846e+00,3.57101e-02
1.51494e+00,3.22505e-02
1.56290e+00,2.90893e-02
1.61237e+00,2.62024e-02
1.66341e+00,2.35679e-02
1.71606e+00,2.11652e-02
1.77038e+00,1.89754e-02
1.82642e+00,1.69809e-02
1.88423e+00,1.51655e-02
1.94387e+00,1.35142e-02
2.00540e+00,1.20131e-02
2.06888e+00,1.06494e-02
2.13437e+00,9.41129e-03
2.20193e+00,8.28796e-03
2.27163e+00,7.26938e-03
2.34353e+00,6.34635e-03
2.41771e+00,5.51041e-03
2.49424e+00,4.75379e-03
2.57319e+00,4.06936e-03
2.65464e+00,3.45061e-03
2.73867e+00,2.89153e-03
2.82536e+00,2.38666e-03
2.91479e+00,1.93098e-03
3.00706e+00,1.51992e-03
3.10224e+00,1.14931e-03
3.20044e+00,8.15333e-04
3.30174e+00,5.14516e-04
3.40625e+00,2.43697e-04
3.51407e+00,0.00000e+00
