m1=118517.151, m2=64.565, gsp=2.376, rhosp=426.657
fGW[Hz],dPh[rad]
1.43762e-03,3.84508e+04
1.46130e-03,3.68857e+04
1.48537e-03,3.53800e+04
1.50983e-03,3.39316e+04
1.53470e-03,3.25384e+04
1.55998e-03,3.11986e+04
1.58567e-03,2.99101e+04
1.61179e-03,2.86712e+04
1.63833e-03,2.74800e+04
1.66532e-03,2.63349e+04
1.69275e-03,2.52342e+04
1.72063e-03,2.41762e+04
1.74897e-03,2.31595e+04
1.77777e-03,2.21826e+04
1.80705e-03,2.12439e+04
1.83682e-03,2.03422e+04
1.86707e-03,1.94760e+04
1.89782e-03,1.86441e+04
1.92908e-03,1.78452e+04
1.96085e-03,1.70781e+04
1.99315e-03,1.63416e+04
2.02598e-03,1.56346e+04
2.05934e-03,1.49560e+04
2.09326e-03,1.43048e+04
2.12774e-03,1.36798e+04
2.16278e-03,1.30803e+04
2.19841e-03,1.25051e+04
2.23461e-03,1.19534e+04
2.27142e-03,1.14244e+04
2.30883e-03,1.09170e+04
2.34686e-03,1.04306e+04
2.38551e-03,9.96436e+03
2.42480e-03,9.51746e+03
2.46474e-03,9.08918e+03
2.50533e-03,8.67881e+03
2.54660e-03,8.28567e+03
2.58854e-03,7.90908e+03
2.63118e-03,7.54841e+03
2.67451e-03,7.20305e+03
2.71856e-03,6.87238e+03
2.76334e-03,6.55585e+03
2.80885e-03,6.25289e+03
2.85512e-03,5.96297e+03
2.90214e-03,5.68557e+03
2.94994e-03,5.42021e+03
2.99853e-03,5.16639e+03
3.04791e-03,4.92366e+03
3.09811e-03,4.69157e+03
3.14914e-03,4.46969e+03
3.20101e-03,4.25762e+03
3.25373e-03,4.05495e+03
3.30732e-03,3.86129e+03
3.36179e-03,3.67629e+03
3.41716e-03,3.49958e+03
3.47345e-03,3.33083e+03
3.53066e-03,3.16970e+03
3.58881e-03,3.01587e+03
3.64792e-03,2.86905e+03
3.70800e-03,2.72894e+03
3.76907e-03,2.59524e+03
3.83115e-03,2.46771e+03
3.89425e-03,2.34606e+03
3.95839e-03,2.23006e+03
4.02359e-03,2.11945e+03
4.08986e-03,2.01401e+03
4.15722e-03,1.91351e+03
4.22569e-03,1.81775e+03
4.29529e-03,1.72650e+03
4.36603e-03,1.63958e+03
4.43794e-03,1.55680e+03
4.51104e-03,1.47796e+03
4.58534e-03,1.40291e+03
4.66086e-03,1.33146e+03
4.73762e-03,1.26346e+03
4.81565e-03,1.19875e+03
4.89497e-03,1.13719e+03
4.97559e-03,1.07863e+03
5.05754e-03,1.02293e+03
5.14084e-03,9.69967e+02
5.22551e-03,9.19612e+02
5.31158e-03,8.71746e+02
5.39906e-03,8.26253e+02
5.48799e-03,7.83023e+02
5.57838e-03,7.41950e+02
5.67026e-03,7.02934e+02
5.76365e-03,6.65877e+02
5.85858e-03,6.30687e+02
5.95507e-03,5.97276e+02
6.05315e-03,5.65559e+02
6.15285e-03,5.35454e+02
6.25419e-03,5.06885e+02
6.35720e-03,4.79777e+02
6.46191e-03,4.54060e+02
6.56834e-03,4.29667e+02
6.67652e-03,4.06532e+02
6.78648e-03,3.84594e+02
6.89826e-03,3.63795e+02
7.01188e-03,3.44077e+02
7.12737e-03,3.25389e+02
7.24476e-03,3.07678e+02
7.36408e-03,2.90897e+02
7.48537e-03,2.74997e+02
7.60866e-03,2.59936e+02
7.73397e-03,2.45672e+02
7.86136e-03,2.32163e+02
7.99084e-03,2.19371e+02
8.12245e-03,2.07261e+02
8.25623e-03,1.95797e+02
8.39221e-03,1.84946e+02
8.53044e-03,1.74677e+02
8.67093e-03,1.64959e+02
8.81375e-03,1.55766e+02
8.95891e-03,1.47068e+02
9.10647e-03,1.38841e+02
9.25646e-03,1.31059e+02
9.40892e-03,1.23701e+02
9.56389e-03,1.16742e+02
9.72141e-03,1.10163e+02
9.88152e-03,1.03944e+02
1.00443e-02,9.80652e+01
1.02097e-02,9.25087e+01
1.03779e-02,8.72575e+01
1.05488e-02,8.22954e+01
1.07225e-02,7.76068e+01
1.08991e-02,7.31773e+01
1.10787e-02,6.89928e+01
1.12611e-02,6.50402e+01
1.14466e-02,6.13071e+01
1.16351e-02,5.77815e+01
1.18268e-02,5.44523e+01
1.20216e-02,5.13088e+01
1.22196e-02,4.83408e+01
1.24208e-02,4.55389e+01
1.26254e-02,4.28940e+01
1.28333e-02,4.03974e+01
1.30447e-02,3.80411e+01
1.32596e-02,3.58173e+01
1.34780e-02,3.37188e+01
1.36999e-02,3.17387e+01
1.39256e-02,2.98704e+01
1.41549e-02,2.81077e+01
1.43881e-02,2.64448e+01
1.46251e-02,2.48762e+01
1.48659e-02,2.33966e+01
1.51108e-02,2.20010e+01
1.53597e-02,2.06848e+01
1.56126e-02,1.94435e+01
1.58698e-02,1.82730e+01
1.61312e-02,1.71693e+01
1.63969e-02,1.61286e+01
1.66669e-02,1.51474e+01
1.69414e-02,1.42223e+01
1.72205e-02,1.33502e+01
1.75041e-02,1.25281e+01
1.77924e-02,1.17532e+01
1.80854e-02,1.10228e+01
1.83833e-02,1.03344e+01
1.86861e-02,9.68553e+00
1.89939e-02,9.07406e+00
1.93067e-02,8.49782e+00
1.96247e-02,7.95481e+00
1.99479e-02,7.44314e+00
2.02765e-02,6.96101e+00
2.06104e-02,6.50675e+00
2.09499e-02,6.07877e+00
2.12949e-02,5.67555e+00
2.16457e-02,5.29568e+00
2.20022e-02,4.93783e+00
2.23646e-02,4.60072e+00
2.27329e-02,4.28318e+00
2.31074e-02,3.98408e+00
2.34879e-02,3.70235e+00
2.38748e-02,3.43699e+00
2.42680e-02,3.18707e+00
2.46677e-02,2.95170e+00
2.50740e-02,2.73003e+00
2.54870e-02,2.52127e+00
2.59068e-02,2.32468e+00
2.63335e-02,2.13955e+00
2.67672e-02,1.96522e+00
2.72081e-02,1.80107e+00
2.76562e-02,1.64650e+00
2.81117e-02,1.50097e+00
2.85747e-02,1.36394e+00
2.90453e-02,1.23492e+00
2.95237e-02,1.11345e+00
3.00100e-02,9.99093e-01
3.05043e-02,8.91427e-01
3.10067e-02,7.90067e-01
3.15174e-02,6.94645e-01
3.20365e-02,6.04817e-01
3.25641e-02,5.20255e-01
3.31005e-02,4.40652e-01
3.36457e-02,3.65720e-01
3.41998e-02,2.95186e-01
3.47631e-02,2.28793e-01
3.53357e-02,1.66300e-01
3.59177e-02,1.07477e-01
3.65093e-02,5.21114e-02
3.71106e-02,0.00000e+00
