m1=696077.170, m2=8.349, gsp=2.242, rhosp=4191.408
fGW[Hz],dPh[rad]
1.98855e-03,1.71606e+03
2.00013e-03,1.67788e+03
2.01178e-03,1.64054e+03
2.02350e-03,1.60402e+03
2.03529e-03,1.56830e+03
2.04714e-03,1.53337e+03
2.05907e-03,1.49920e+03
2.07106e-03,1.46579e+03
2.08313e-03,1.43311e+03
2.09526e-03,1.40114e+03
2.10747e-03,1.36988e+03
2.11974e-03,1.33930e+03
2.13209e-03,1.30940e+03
2.14451e-03,1.28015e+03
2.15700e-03,1.25154e+03
2.16957e-03,1.22357e+03
2.18220e-03,1.19620e+03
2.19491e-03,1.16944e+03
2.20770e-03,1.14327e+03
2.22056e-03,1.11767e+03
2.23350e-03,1.09263e+03
2.24651e-03,1.06815e+03
2.25959e-03,1.04420e+03
2.27275e-03,1.02078e+03
2.28599e-03,9.97869e+02
2.29931e-03,9.75465e+02
2.31270e-03,9.53553e+02
2.32617e-03,9.32123e+02
2.33972e-03,9.11163e+02
2.35335e-03,8.90664e+02
2.36706e-03,8.70616e+02
2.38085e-03,8.51008e+02
2.39472e-03,8.31831e+02
2.40867e-03,8.13076e+02
2.42270e-03,7.94733e+02
2.43681e-03,7.76793e+02
2.45101e-03,7.59247e+02
2.46528e-03,7.42087e+02
2.47964e-03,7.25304e+02
2.49409e-03,7.08890e+02
2.50862e-03,6.92837e+02
2.52323e-03,6.77137e+02
2.53793e-03,6.61782e+02
2.55271e-03,6.46765e+02
2.56758e-03,6.32078e+02
2.58254e-03,6.17713e+02
2.59758e-03,6.03665e+02
2.61271e-03,5.89925e+02
2.62793e-03,5.76488e+02
2.64324e-03,5.63346e+02
2.65864e-03,5.50493e+02
2.67412e-03,5.37922e+02
2.68970e-03,5.25628e+02
2.70537e-03,5.13605e+02
2.72113e-03,5.01845e+02
2.73698e-03,4.90345e+02
2.75292e-03,4.79097e+02
2.76896e-03,4.68097e+02
2.78509e-03,4.57339e+02
2.80131e-03,4.46817e+02
2.81763e-03,4.36526e+02
2.83404e-03,4.26463e+02
2.85055e-03,4.16620e+02
2.86715e-03,4.06994e+02
2.88385e-03,3.97579e+02
2.90065e-03,3.88372e+02
2.91755e-03,3.79367e+02
2.93455e-03,3.70561e+02
2.95164e-03,3.61948e+02
2.96883e-03,3.53524e+02
2.98613e-03,3.45286e+02
3.00352e-03,3.37230e+02
3.02102e-03,3.29350e+02
3.03861e-03,3.21644e+02
3.05631e-03,3.14107e+02
3.07412e-03,3.06736e+02
3.09202e-03,2.99527e+02
3.11004e-03,2.92477e+02
3.12815e-03,2.85582e+02
3.14637e-03,2.78839e+02
3.16470e-03,2.72244e+02
3.18314e-03,2.65795e+02
3.20168e-03,2.59487e+02
3.22033e-03,2.53318e+02
3.23909e-03,2.47285e+02
3.25796e-03,2.41384e+02
3.27693e-03,2.35614e+02
3.29602e-03,2.29970e+02
3.31522e-03,2.24451e+02
3.33453e-03,2.19053e+02
3.35396e-03,2.13773e+02
3.37349e-03,2.08611e+02
3.39314e-03,2.03561e+02
3.41291e-03,1.98623e+02
3.43279e-03,1.93794e+02
3.45279e-03,1.89070e+02
3.47290e-03,1.84451e+02
3.49313e-03,1.79934e+02
3.51348e-03,1.75516e+02
3.53394e-03,1.71195e+02
3.55453e-03,1.66969e+02
3.57523e-03,1.62836e+02
3.59606e-03,1.58795e+02
3.61701e-03,1.54842e+02
3.63808e-03,1.50976e+02
3.65927e-03,1.47195e+02
3.68058e-03,1.43498e+02
3.70202e-03,1.39882e+02
3.72359e-03,1.36346e+02
3.74528e-03,1.32887e+02
3.76710e-03,1.29505e+02
3.78904e-03,1.26197e+02
3.81111e-03,1.22962e+02
3.83331e-03,1.19798e+02
3.85564e-03,1.16703e+02
3.87810e-03,1.13677e+02
3.90069e-03,1.10718e+02
3.92341e-03,1.07824e+02
3.94627e-03,1.04993e+02
3.96925e-03,1.02225e+02
3.99237e-03,9.95175e+01
4.01563e-03,9.68698e+01
4.03902e-03,9.42804e+01
4.06255e-03,9.17481e+01
4.08621e-03,8.92715e+01
4.11002e-03,8.68494e+01
4.13396e-03,8.44807e+01
4.15804e-03,8.21641e+01
4.18226e-03,7.98986e+01
4.20662e-03,7.76830e+01
4.23113e-03,7.55161e+01
4.25577e-03,7.33970e+01
4.28056e-03,7.13245e+01
4.30550e-03,6.92977e+01
4.33058e-03,6.73155e+01
4.35580e-03,6.53769e+01
4.38118e-03,6.34811e+01
4.40670e-03,6.16270e+01
4.43237e-03,5.98138e+01
4.45818e-03,5.80404e+01
4.48415e-03,5.63062e+01
4.51027e-03,5.46101e+01
4.53655e-03,5.29514e+01
4.56297e-03,5.13293e+01
4.58955e-03,4.97428e+01
4.61629e-03,4.81913e+01
4.64318e-03,4.66740e+01
4.67022e-03,4.51901e+01
4.69743e-03,4.37389e+01
4.72479e-03,4.23196e+01
4.75231e-03,4.09316e+01
4.78000e-03,3.95742e+01
4.80784e-03,3.82467e+01
4.83585e-03,3.69484e+01
4.86402e-03,3.56787e+01
4.89235e-03,3.44370e+01
4.92085e-03,3.32227e+01
4.94951e-03,3.20351e+01
4.97834e-03,3.08736e+01
5.00734e-03,2.97378e+01
5.03651e-03,2.86270e+01
5.06585e-03,2.75406e+01
5.09536e-03,2.64782e+01
5.12504e-03,2.54391e+01
5.15489e-03,2.44230e+01
5.18492e-03,2.34293e+01
5.21512e-03,2.24574e+01
5.24550e-03,2.15070e+01
5.27606e-03,2.05774e+01
5.30679e-03,1.96684e+01
5.33770e-03,1.87794e+01
5.36880e-03,1.79100e+01
5.40007e-03,1.70597e+01
5.43153e-03,1.62282e+01
5.46316e-03,1.54150e+01
5.49499e-03,1.46197e+01
5.52700e-03,1.38419e+01
5.55919e-03,1.30813e+01
5.59157e-03,1.23374e+01
5.62415e-03,1.16100e+01
5.65691e-03,1.08985e+01
5.68986e-03,1.02027e+01
5.72300e-03,9.52228e+00
5.75634e-03,8.85682e+00
5.78987e-03,8.20603e+00
5.82360e-03,7.56957e+00
5.85752e-03,6.94714e+00
5.89164e-03,6.33843e+00
5.92596e-03,5.74312e+00
5.96048e-03,5.16094e+00
5.99520e-03,4.59158e+00
6.03012e-03,4.03477e+00
6.06525e-03,3.49022e+00
6.10058e-03,2.95768e+00
6.13612e-03,2.43687e+00
6.17186e-03,1.92754e+00
6.20781e-03,1.42943e+00
6.24397e-03,9.42299e-01
6.28034e-03,4.65900e-01
6.31693e-03,0.00000e+00
