m1=530431.613, m2=29.096, gsp=2.401, rhosp=35.949
fGW[Hz],dPh[rad]
1.33265e-03,1.67562e+04
1.34495e-03,1.62056e+04
1.35736e-03,1.56729e+04
1.36988e-03,1.51575e+04
1.38252e-03,1.46588e+04
1.39528e-03,1.41763e+04
1.40816e-03,1.37095e+04
1.42115e-03,1.32579e+04
1.43426e-03,1.28211e+04
1.44750e-03,1.23984e+04
1.46086e-03,1.19895e+04
1.47434e-03,1.15940e+04
1.48794e-03,1.12113e+04
1.50167e-03,1.08411e+04
1.51553e-03,1.04831e+04
1.52951e-03,1.01367e+04
1.54362e-03,9.80162e+03
1.55787e-03,9.47751e+03
1.57224e-03,9.16400e+03
1.58675e-03,8.86075e+03
1.60139e-03,8.56742e+03
1.61617e-03,8.28370e+03
1.63108e-03,8.00928e+03
1.64613e-03,7.74385e+03
1.66132e-03,7.48713e+03
1.67665e-03,7.23882e+03
1.69213e-03,6.99867e+03
1.70774e-03,6.76640e+03
1.72350e-03,6.54175e+03
1.73940e-03,6.32449e+03
1.75545e-03,6.11436e+03
1.77165e-03,5.91115e+03
1.78800e-03,5.71461e+03
1.80450e-03,5.52455e+03
1.82115e-03,5.34074e+03
1.83795e-03,5.16298e+03
1.85491e-03,4.99107e+03
1.87203e-03,4.82483e+03
1.88930e-03,4.66407e+03
1.90674e-03,4.50860e+03
1.92433e-03,4.35827e+03
1.94209e-03,4.21289e+03
1.96001e-03,4.07231e+03
1.97809e-03,3.93637e+03
1.99635e-03,3.80492e+03
2.01477e-03,3.67781e+03
2.03336e-03,3.55490e+03
2.05212e-03,3.43605e+03
2.07106e-03,3.32114e+03
2.09017e-03,3.21002e+03
2.10946e-03,3.10257e+03
2.12892e-03,2.99868e+03
2.14857e-03,2.89823e+03
2.16839e-03,2.80111e+03
2.18840e-03,2.70720e+03
2.20859e-03,2.61640e+03
2.22897e-03,2.52861e+03
2.24954e-03,2.44373e+03
2.27030e-03,2.36166e+03
2.29125e-03,2.28231e+03
2.31239e-03,2.20560e+03
2.33373e-03,2.13143e+03
2.35526e-03,2.05972e+03
2.37700e-03,1.99039e+03
2.39893e-03,1.92336e+03
2.42107e-03,1.85855e+03
2.44341e-03,1.79590e+03
2.46595e-03,1.73533e+03
2.48871e-03,1.67677e+03
2.51167e-03,1.62016e+03
2.53485e-03,1.56543e+03
2.55824e-03,1.51252e+03
2.58184e-03,1.46137e+03
2.60567e-03,1.41192e+03
2.62971e-03,1.36411e+03
2.65398e-03,1.31789e+03
2.67847e-03,1.27322e+03
2.70318e-03,1.23003e+03
2.72813e-03,1.18827e+03
2.75330e-03,1.14791e+03
2.77871e-03,1.10889e+03
2.80435e-03,1.07117e+03
2.83022e-03,1.03471e+03
2.85634e-03,9.99464e+02
2.88270e-03,9.65391e+02
2.90930e-03,9.32454e+02
2.93614e-03,9.00615e+02
2.96324e-03,8.69837e+02
2.99058e-03,8.40086e+02
3.01818e-03,8.11326e+02
3.04603e-03,7.83527e+02
3.07413e-03,7.56654e+02
3.10250e-03,7.30679e+02
3.13113e-03,7.05570e+02
3.16002e-03,6.81299e+02
3.18918e-03,6.57839e+02
3.21861e-03,6.35161e+02
3.24831e-03,6.13241e+02
3.27828e-03,5.92054e+02
3.30853e-03,5.71573e+02
3.33906e-03,5.51777e+02
3.36987e-03,5.32642e+02
3.40097e-03,5.14147e+02
3.43235e-03,4.96270e+02
3.46402e-03,4.78990e+02
3.49599e-03,4.62288e+02
3.52825e-03,4.46144e+02
3.56080e-03,4.30540e+02
3.59366e-03,4.15458e+02
3.62682e-03,4.00880e+02
3.66029e-03,3.86790e+02
3.69406e-03,3.73171e+02
3.72815e-03,3.60008e+02
3.76255e-03,3.47285e+02
3.79727e-03,3.34988e+02
3.83231e-03,3.23102e+02
3.86767e-03,3.11614e+02
3.90336e-03,3.00511e+02
3.93938e-03,2.89780e+02
3.97573e-03,2.79407e+02
4.01242e-03,2.69382e+02
4.04944e-03,2.59693e+02
4.08681e-03,2.50328e+02
4.12452e-03,2.41277e+02
4.16258e-03,2.32529e+02
4.20099e-03,2.24074e+02
4.23975e-03,2.15903e+02
4.27887e-03,2.08005e+02
4.31836e-03,2.00372e+02
4.35820e-03,1.92994e+02
4.39842e-03,1.85864e+02
4.43901e-03,1.78973e+02
4.47997e-03,1.72313e+02
4.52131e-03,1.65876e+02
4.56303e-03,1.59655e+02
4.60513e-03,1.53642e+02
4.64763e-03,1.47831e+02
4.69051e-03,1.42215e+02
4.73379e-03,1.36787e+02
4.77747e-03,1.31542e+02
4.82156e-03,1.26472e+02
4.86605e-03,1.21572e+02
4.91095e-03,1.16837e+02
4.95627e-03,1.12260e+02
5.00200e-03,1.07837e+02
5.04816e-03,1.03563e+02
5.09474e-03,9.94317e+01
5.14175e-03,9.54392e+01
5.18920e-03,9.15807e+01
5.23708e-03,8.78517e+01
5.28540e-03,8.42479e+01
5.33418e-03,8.07651e+01
5.38340e-03,7.73991e+01
5.43307e-03,7.41462e+01
5.48321e-03,7.10024e+01
5.53380e-03,6.79642e+01
5.58487e-03,6.50280e+01
5.63640e-03,6.21904e+01
5.68841e-03,5.94481e+01
5.74090e-03,5.67979e+01
5.79387e-03,5.42367e+01
5.84734e-03,5.17615e+01
5.90129e-03,4.93694e+01
5.95575e-03,4.70577e+01
6.01070e-03,4.48237e+01
6.06617e-03,4.26646e+01
6.12214e-03,4.05782e+01
6.17864e-03,3.85618e+01
6.23565e-03,3.66131e+01
6.29319e-03,3.47300e+01
6.35126e-03,3.29101e+01
6.40987e-03,3.11513e+01
6.46901e-03,2.94517e+01
6.52871e-03,2.78092e+01
6.58895e-03,2.62219e+01
6.64975e-03,2.46879e+01
6.71111e-03,2.32055e+01
6.77304e-03,2.17729e+01
6.83553e-03,2.03884e+01
6.89861e-03,1.90505e+01
6.96227e-03,1.77576e+01
7.02651e-03,1.65081e+01
7.09135e-03,1.53007e+01
7.15678e-03,1.41338e+01
7.22282e-03,1.30062e+01
7.28947e-03,1.19165e+01
7.35673e-03,1.08634e+01
7.42462e-03,9.84571e+00
7.49313e-03,8.86225e+00
7.56227e-03,7.91187e+00
7.63205e-03,6.99345e+00
7.70248e-03,6.10591e+00
7.77355e-03,5.24822e+00
7.84528e-03,4.41937e+00
7.91768e-03,3.61841e+00
7.99074e-03,2.84438e+00
8.06447e-03,2.09638e+00
8.13889e-03,1.37355e+00
8.21399e-03,6.75025e-01
8.28978e-03,0.00000e+00
