m1=92181.991, m2=17.453, gsp=2.324, rhosp=70.205
fGW[Hz],dPh[rad]
2.50008e-03,2.22382e+04
2.53740e-03,2.12718e+04
2.57528e-03,2.03446e+04
2.61372e-03,1.94553e+04
2.65274e-03,1.86023e+04
2.69234e-03,1.77844e+04
2.73253e-03,1.70002e+04
2.77332e-03,1.62484e+04
2.81472e-03,1.55277e+04
2.85674e-03,1.48371e+04
2.89938e-03,1.41753e+04
2.94267e-03,1.35412e+04
2.98659e-03,1.29338e+04
3.03118e-03,1.23520e+04
3.07643e-03,1.17948e+04
3.12235e-03,1.12612e+04
3.16896e-03,1.07504e+04
3.21627e-03,1.02615e+04
3.26428e-03,9.79345e+03
3.31301e-03,9.34557e+03
3.36246e-03,8.91703e+03
3.41266e-03,8.50705e+03
3.46360e-03,8.11488e+03
3.51531e-03,7.73980e+03
3.56778e-03,7.38112e+03
3.62104e-03,7.03818e+03
3.67510e-03,6.71033e+03
3.72996e-03,6.39696e+03
3.78564e-03,6.09747e+03
3.84215e-03,5.81128e+03
3.89951e-03,5.53784e+03
3.95772e-03,5.27664e+03
4.01680e-03,5.02714e+03
4.07676e-03,4.78887e+03
4.13762e-03,4.56135e+03
4.19938e-03,4.34413e+03
4.26207e-03,4.13676e+03
4.32569e-03,3.93884e+03
4.39027e-03,3.74996e+03
4.45581e-03,3.56972e+03
4.52232e-03,3.39777e+03
4.58983e-03,3.23373e+03
4.65835e-03,3.07727e+03
4.72789e-03,2.92806e+03
4.79846e-03,2.78578e+03
4.87009e-03,2.65012e+03
4.94279e-03,2.52081e+03
5.01658e-03,2.39755e+03
5.09147e-03,2.28007e+03
5.16747e-03,2.16813e+03
5.24461e-03,2.06148e+03
5.32290e-03,1.95987e+03
5.40236e-03,1.86308e+03
5.48301e-03,1.77089e+03
5.56486e-03,1.68311e+03
5.64793e-03,1.59952e+03
5.73224e-03,1.51993e+03
5.81781e-03,1.44417e+03
5.90466e-03,1.37206e+03
5.99280e-03,1.30342e+03
6.08226e-03,1.23811e+03
6.17306e-03,1.17597e+03
6.26521e-03,1.11684e+03
6.35873e-03,1.06059e+03
6.45366e-03,1.00709e+03
6.55000e-03,9.56211e+02
6.64777e-03,9.07821e+02
6.74701e-03,8.61809e+02
6.84773e-03,8.18061e+02
6.94995e-03,7.76472e+02
7.05370e-03,7.36937e+02
7.15900e-03,6.99361e+02
7.26586e-03,6.63648e+02
7.37433e-03,6.29711e+02
7.48441e-03,5.97464e+02
7.59614e-03,5.66826e+02
7.70953e-03,5.37720e+02
7.82462e-03,5.10071e+02
7.94142e-03,4.83808e+02
8.05997e-03,4.58866e+02
8.18029e-03,4.35179e+02
8.30241e-03,4.12686e+02
8.42634e-03,3.91329e+02
8.55213e-03,3.71052e+02
8.67980e-03,3.51802e+02
8.80937e-03,3.33529e+02
8.94087e-03,3.16185e+02
9.07434e-03,2.99723e+02
9.20980e-03,2.84101e+02
9.34728e-03,2.69275e+02
9.48682e-03,2.55208e+02
9.62844e-03,2.41860e+02
9.77217e-03,2.29197e+02
9.91805e-03,2.17184e+02
1.00661e-02,2.05788e+02
1.02164e-02,1.94978e+02
1.03689e-02,1.84725e+02
1.05237e-02,1.75001e+02
1.06808e-02,1.65780e+02
1.08402e-02,1.57035e+02
1.10020e-02,1.48743e+02
1.11663e-02,1.40880e+02
1.13329e-02,1.33426e+02
1.15021e-02,1.26359e+02
1.16738e-02,1.19659e+02
1.18481e-02,1.13308e+02
1.20250e-02,1.07288e+02
1.22045e-02,1.01582e+02
1.23867e-02,9.61742e+01
1.25716e-02,9.10488e+01
1.27592e-02,8.61916e+01
1.29497e-02,8.15886e+01
1.31430e-02,7.72270e+01
1.33392e-02,7.30941e+01
1.35383e-02,6.91782e+01
1.37404e-02,6.54681e+01
1.39455e-02,6.19531e+01
1.41537e-02,5.86231e+01
1.43650e-02,5.54686e+01
1.45794e-02,5.24803e+01
1.47971e-02,4.96498e+01
1.50180e-02,4.69686e+01
1.52422e-02,4.44292e+01
1.54697e-02,4.20240e+01
1.57006e-02,3.97461e+01
1.59350e-02,3.75888e+01
1.61729e-02,3.55458e+01
1.64143e-02,3.36112e+01
1.66593e-02,3.17792e+01
1.69080e-02,3.00444e+01
1.71604e-02,2.84018e+01
1.74166e-02,2.68465e+01
1.76766e-02,2.53740e+01
1.79405e-02,2.39798e+01
1.82083e-02,2.26598e+01
1.84801e-02,2.14102e+01
1.87559e-02,2.02272e+01
1.90359e-02,1.91072e+01
1.93201e-02,1.80471e+01
1.96085e-02,1.70435e+01
1.99012e-02,1.60936e+01
2.01983e-02,1.51944e+01
2.04998e-02,1.43433e+01
2.08058e-02,1.35377e+01
2.11164e-02,1.27752e+01
2.14317e-02,1.20536e+01
2.17516e-02,1.13706e+01
2.20763e-02,1.07242e+01
2.24058e-02,1.01124e+01
2.27403e-02,9.53346e+00
2.30798e-02,8.98557e+00
2.34243e-02,8.46709e+00
2.37740e-02,7.97645e+00
2.41289e-02,7.51216e+00
2.44891e-02,7.07282e+00
2.48546e-02,6.65709e+00
2.52257e-02,6.26371e+00
2.56022e-02,5.89149e+00
2.59844e-02,5.53929e+00
2.63723e-02,5.20605e+00
2.67660e-02,4.89075e+00
2.71656e-02,4.59243e+00
2.75711e-02,4.31018e+00
2.79827e-02,4.04314e+00
2.84004e-02,3.79049e+00
2.88243e-02,3.55146e+00
2.92546e-02,3.32532e+00
2.96913e-02,3.11138e+00
3.01346e-02,2.90898e+00
3.05844e-02,2.71751e+00
3.10410e-02,2.53637e+00
3.15043e-02,2.36502e+00
3.19746e-02,2.20292e+00
3.24520e-02,2.04957e+00
3.29364e-02,1.90451e+00
3.34281e-02,1.76729e+00
3.39271e-02,1.63749e+00
3.44335e-02,1.51471e+00
3.49476e-02,1.39856e+00
3.54692e-02,1.28870e+00
3.59987e-02,1.18478e+00
3.65361e-02,1.08649e+00
3.70815e-02,9.93513e-01
3.76351e-02,9.05570e-01
3.81969e-02,8.22388e-01
3.87671e-02,7.43711e-01
3.93458e-02,6.69294e-01
3.99331e-02,5.98908e-01
4.05293e-02,5.32336e-01
4.11343e-02,4.69370e-01
4.17483e-02,4.09817e-01
4.23715e-02,3.53492e-01
4.30040e-02,3.00220e-01
4.36460e-02,2.49836e-01
4.42975e-02,2.02183e-01
4.49588e-02,1.57116e-01
4.56300e-02,1.14492e-01
4.63111e-02,7.41805e-02
4.70024e-02,3.60560e-02
4.77041e-02,0.00000e+00
