m1=48435.516, m2=16.969, gsp=2.013, rhosp=53.842
fGW[Hz],dPh[rad]
2.96769e-03,7.70920e+01
3.01915e-03,7.35242e+01
3.07150e-03,7.01125e+01
3.12475e-03,6.68505e+01
3.17893e-03,6.37318e+01
3.23405e-03,6.07505e+01
3.29012e-03,5.79009e+01
3.34717e-03,5.51774e+01
3.40521e-03,5.25748e+01
3.46425e-03,5.00880e+01
3.52431e-03,4.77121e+01
3.58542e-03,4.54424e+01
3.64759e-03,4.32744e+01
3.71083e-03,4.12039e+01
3.77517e-03,3.92267e+01
3.84063e-03,3.73388e+01
3.90722e-03,3.55365e+01
3.97497e-03,3.38160e+01
4.04389e-03,3.21740e+01
4.11401e-03,3.06069e+01
4.18534e-03,2.91116e+01
4.25791e-03,2.76851e+01
4.33173e-03,2.63243e+01
4.40684e-03,2.50264e+01
4.48325e-03,2.37887e+01
4.56098e-03,2.26085e+01
4.64007e-03,2.14833e+01
4.72052e-03,2.04108e+01
4.80237e-03,1.93887e+01
4.88564e-03,1.84146e+01
4.97035e-03,1.74866e+01
5.05653e-03,1.66025e+01
5.14420e-03,1.57605e+01
5.23339e-03,1.49586e+01
5.32413e-03,1.41951e+01
5.41645e-03,1.34682e+01
5.51036e-03,1.27763e+01
5.60591e-03,1.21179e+01
5.70311e-03,1.14914e+01
5.80199e-03,1.08953e+01
5.90259e-03,1.03284e+01
6.00493e-03,9.78922e+00
6.10905e-03,9.27655e+00
6.21498e-03,8.78917e+00
6.32274e-03,8.32591e+00
6.43236e-03,7.88566e+00
6.54389e-03,7.46736e+00
6.65736e-03,7.06998e+00
6.77279e-03,6.69254e+00
6.89022e-03,6.33411e+00
7.00969e-03,5.99381e+00
7.13123e-03,5.67076e+00
7.25487e-03,5.36417e+00
7.38066e-03,5.07323e+00
7.50863e-03,4.79722e+00
7.63883e-03,4.53541e+00
7.77127e-03,4.28712e+00
7.90602e-03,4.05169e+00
8.04310e-03,3.82851e+00
8.18256e-03,3.61698e+00
8.32443e-03,3.41653e+00
8.46877e-03,3.22662e+00
8.61560e-03,3.04672e+00
8.76499e-03,2.87635e+00
8.91696e-03,2.71503e+00
9.07157e-03,2.56231e+00
9.22886e-03,2.41776e+00
9.38888e-03,2.28097e+00
9.55167e-03,2.15155e+00
9.71729e-03,2.02912e+00
9.88577e-03,1.91334e+00
1.00572e-02,1.80386e+00
1.02316e-02,1.70035e+00
1.04090e-02,1.60252e+00
1.05894e-02,1.51006e+00
1.07730e-02,1.42271e+00
1.09598e-02,1.34019e+00
1.11499e-02,1.26225e+00
1.13432e-02,1.18866e+00
1.15399e-02,1.11917e+00
1.17400e-02,1.05358e+00
1.19435e-02,9.91683e-01
1.21506e-02,9.33275e-01
1.23613e-02,8.78172e-01
1.25756e-02,8.26196e-01
1.27937e-02,7.77180e-01
1.30155e-02,7.30963e-01
1.32412e-02,6.87393e-01
1.34707e-02,6.46326e-01
1.37043e-02,6.07625e-01
1.39419e-02,5.71159e-01
1.41837e-02,5.36806e-01
1.44296e-02,5.04449e-01
1.46798e-02,4.73977e-01
1.49343e-02,4.45284e-01
1.51932e-02,4.18273e-01
1.54567e-02,3.92847e-01
1.57247e-02,3.68919e-01
1.59973e-02,3.46403e-01
1.62747e-02,3.25220e-01
1.65569e-02,3.05293e-01
1.68440e-02,2.86551e-01
1.71360e-02,2.68927e-01
1.74331e-02,2.52355e-01
1.77354e-02,2.36777e-01
1.80429e-02,2.22133e-01
1.83557e-02,2.08370e-01
1.86740e-02,1.95438e-01
1.89978e-02,1.83287e-01
1.93272e-02,1.71871e-01
1.96623e-02,1.61149e-01
2.00032e-02,1.51078e-01
2.03501e-02,1.41621e-01
2.07029e-02,1.32742e-01
2.10619e-02,1.24406e-01
2.14271e-02,1.16580e-01
2.17986e-02,1.09235e-01
2.21765e-02,1.02342e-01
2.25610e-02,9.58741e-02
2.29522e-02,8.98053e-02
2.33502e-02,8.41117e-02
2.37551e-02,7.87709e-02
2.41669e-02,7.37615e-02
2.45860e-02,6.90635e-02
2.50123e-02,6.46579e-02
2.54459e-02,6.05270e-02
2.58871e-02,5.66540e-02
2.63360e-02,5.30233e-02
2.67926e-02,4.96199e-02
2.72572e-02,4.64300e-02
2.77298e-02,4.34404e-02
2.82106e-02,4.06389e-02
2.86997e-02,3.80138e-02
2.91973e-02,3.55542e-02
2.97036e-02,3.32499e-02
3.02186e-02,3.10913e-02
3.07426e-02,2.90693e-02
3.12756e-02,2.71755e-02
3.18179e-02,2.54018e-02
3.23696e-02,2.37407e-02
3.29308e-02,2.21853e-02
3.35018e-02,2.07289e-02
3.40827e-02,1.93653e-02
3.46736e-02,1.80887e-02
3.52748e-02,1.68936e-02
3.58864e-02,1.57749e-02
3.65087e-02,1.47278e-02
3.71417e-02,1.37477e-02
3.77857e-02,1.28304e-02
3.84408e-02,1.19720e-02
3.91074e-02,1.11687e-02
3.97854e-02,1.04170e-02
4.04753e-02,9.71369e-03
4.11770e-02,9.05564e-03
4.18910e-02,8.43998e-03
4.26173e-02,7.86401e-03
4.33563e-02,7.32520e-03
4.41080e-02,6.82118e-03
4.48728e-02,6.34973e-03
4.56508e-02,5.90875e-03
4.64424e-02,5.49631e-03
4.72476e-02,5.11058e-03
4.80668e-02,4.74983e-03
4.89003e-02,4.41247e-03
4.97481e-02,4.09699e-03
5.06107e-02,3.80199e-03
5.14882e-02,3.52614e-03
5.23810e-02,3.26822e-03
5.32892e-02,3.02707e-03
5.42132e-02,2.80160e-03
5.51532e-02,2.59081e-03
5.61094e-02,2.39374e-03
5.70823e-02,2.20952e-03
5.80721e-02,2.03730e-03
5.90790e-02,1.87631e-03
6.01033e-02,1.72582e-03
6.11454e-02,1.58516e-03
6.22056e-02,1.45368e-03
6.32842e-02,1.33079e-03
6.43815e-02,1.21593e-03
6.54977e-02,1.10858e-03
6.66334e-02,1.00825e-03
6.77887e-02,9.14484e-04
6.89641e-02,8.26857e-04
7.01599e-02,7.44966e-04
7.13764e-02,6.68440e-04
7.26139e-02,5.96927e-04
7.38730e-02,5.30102e-04
7.51538e-02,4.67658e-04
7.64569e-02,4.09309e-04
7.77826e-02,3.54788e-04
7.91312e-02,3.03845e-04
8.05033e-02,2.56246e-04
8.18991e-02,2.11772e-04
8.33191e-02,1.70219e-04
8.47638e-02,1.31397e-04
8.62335e-02,9.51249e-05
8.77287e-02,6.12373e-05
8.92498e-02,2.95777e-05
9.07973e-02,0.00000e+00
