m1=1921.134, m2=70.095, gsp=2.037, rhosp=10.012
fGW[Hz],dPh[rad]
3.92404e-03,1.53419e+00
4.05202e-03,1.42459e+00
4.18417e-03,1.32281e+00
4.32064e-03,1.22831e+00
4.46155e-03,1.14055e+00
4.60706e-03,1.05907e+00
4.75731e-03,9.83400e-01
4.91246e-03,9.13139e-01
5.07268e-03,8.47897e-01
5.23812e-03,7.87315e-01
5.40895e-03,7.31061e-01
5.58536e-03,6.78826e-01
5.76752e-03,6.30321e-01
5.95562e-03,5.85282e-01
6.14986e-03,5.43460e-01
6.35043e-03,5.04626e-01
6.55754e-03,4.68566e-01
6.77141e-03,4.35082e-01
6.99225e-03,4.03989e-01
7.22029e-03,3.75119e-01
7.45577e-03,3.48310e-01
7.69894e-03,3.23417e-01
7.95003e-03,3.00302e-01
8.20931e-03,2.78839e-01
8.47705e-03,2.58909e-01
8.75351e-03,2.40402e-01
9.03900e-03,2.23218e-01
9.33380e-03,2.07262e-01
9.63821e-03,1.92446e-01
9.95255e-03,1.78688e-01
1.02771e-02,1.65913e-01
1.06123e-02,1.54051e-01
1.09584e-02,1.43037e-01
1.13158e-02,1.32809e-01
1.16849e-02,1.23313e-01
1.20660e-02,1.14495e-01
1.24595e-02,1.06307e-01
1.28658e-02,9.87039e-02
1.32854e-02,9.16444e-02
1.37187e-02,8.50893e-02
1.41661e-02,7.90027e-02
1.46282e-02,7.33511e-02
1.51052e-02,6.81034e-02
1.55979e-02,6.32308e-02
1.61066e-02,5.87064e-02
1.66319e-02,5.45054e-02
1.71743e-02,5.06046e-02
1.77344e-02,4.69827e-02
1.83128e-02,4.36197e-02
1.89101e-02,4.04971e-02
1.95268e-02,3.75977e-02
2.01636e-02,3.49056e-02
2.08213e-02,3.24060e-02
2.15003e-02,3.00851e-02
2.22015e-02,2.79301e-02
2.29256e-02,2.59293e-02
2.36733e-02,2.40715e-02
2.44454e-02,2.23466e-02
2.52426e-02,2.07450e-02
2.60659e-02,1.92580e-02
2.69160e-02,1.78773e-02
2.77938e-02,1.65954e-02
2.87003e-02,1.54053e-02
2.96363e-02,1.43002e-02
3.06029e-02,1.32743e-02
3.16010e-02,1.23217e-02
3.26316e-02,1.14373e-02
3.36958e-02,1.06162e-02
3.47948e-02,9.85388e-03
3.59296e-02,9.14613e-03
3.71014e-02,8.48904e-03
3.83114e-02,7.87899e-03
3.95609e-02,7.31264e-03
4.08511e-02,6.78684e-03
4.21834e-02,6.29870e-03
4.35592e-02,5.84552e-03
4.49798e-02,5.42482e-03
4.64468e-02,5.03426e-03
4.79616e-02,4.67169e-03
4.95258e-02,4.33511e-03
5.11410e-02,4.02266e-03
5.28089e-02,3.73261e-03
5.45312e-02,3.46336e-03
5.63097e-02,3.21343e-03
5.81462e-02,2.98142e-03
6.00425e-02,2.76607e-03
6.20008e-02,2.56617e-03
6.40229e-02,2.38062e-03
6.61109e-02,2.20840e-03
6.82670e-02,2.04855e-03
7.04935e-02,1.90018e-03
7.27925e-02,1.76247e-03
7.51666e-02,1.63467e-03
7.76180e-02,1.51605e-03
8.01495e-02,1.40597e-03
8.27634e-02,1.30381e-03
8.54627e-02,1.20900e-03
8.82499e-02,1.12102e-03
9.11281e-02,1.03937e-03
9.41002e-02,9.63611e-04
9.71691e-02,8.93312e-04
1.00338e-01,8.28084e-04
1.03611e-01,7.67562e-04
1.06990e-01,7.11410e-04
1.10479e-01,6.59313e-04
1.14082e-01,6.10981e-04
1.17803e-01,5.66143e-04
1.21645e-01,5.24549e-04
1.25612e-01,4.85967e-04
1.29709e-01,4.50178e-04
1.33939e-01,4.16984e-04
1.38307e-01,3.86197e-04
1.42818e-01,3.57645e-04
1.47476e-01,3.31166e-04
1.52286e-01,3.06612e-04
1.57252e-01,2.83844e-04
1.62381e-01,2.62734e-04
1.67677e-01,2.43162e-04
1.73146e-01,2.25018e-04
1.78792e-01,2.08198e-04
1.84624e-01,1.92607e-04
1.90645e-01,1.78157e-04
1.96863e-01,1.64765e-04
2.03283e-01,1.52355e-04
2.09913e-01,1.40856e-04
2.16759e-01,1.30202e-04
2.23828e-01,1.20331e-04
2.31128e-01,1.11188e-04
2.38666e-01,1.02720e-04
2.46450e-01,9.48773e-05
2.54488e-01,8.76149e-05
2.62787e-01,8.08908e-05
2.71358e-01,7.46659e-05
2.80208e-01,6.89038e-05
2.89347e-01,6.35710e-05
2.98783e-01,5.86361e-05
3.08528e-01,5.40702e-05
3.18590e-01,4.98463e-05
3.28981e-01,4.59396e-05
3.39710e-01,4.23268e-05
3.50789e-01,3.89863e-05
3.62230e-01,3.58983e-05
3.74043e-01,3.30443e-05
3.86242e-01,3.04070e-05
3.98839e-01,2.79705e-05
4.11847e-01,2.57200e-05
4.25279e-01,2.36417e-05
4.39149e-01,2.17231e-05
4.53471e-01,1.99522e-05
4.68261e-01,1.83181e-05
4.83532e-01,1.68106e-05
4.99302e-01,1.54203e-05
5.15586e-01,1.41384e-05
5.32402e-01,1.29569e-05
5.49765e-01,1.18683e-05
5.67695e-01,1.08655e-05
5.86210e-01,9.94209e-06
6.05329e-01,9.09210e-06
6.25071e-01,8.30995e-06
6.45457e-01,7.59050e-06
6.66507e-01,6.92897e-06
6.88245e-01,6.32094e-06
7.10691e-01,5.76231e-06
7.33869e-01,5.24929e-06
7.57804e-01,4.77835e-06
7.82519e-01,4.34623e-06
8.08040e-01,3.94991e-06
8.34393e-01,3.58661e-06
8.61606e-01,3.25373e-06
8.89706e-01,2.94887e-06
9.18723e-01,2.66982e-06
9.48686e-01,2.41454e-06
9.79626e-01,2.18111e-06
1.01158e+00,1.96779e-06
1.04457e+00,1.77295e-06
1.07863e+00,1.59510e-06
1.11381e+00,1.43285e-06
1.15014e+00,1.28491e-06
1.18765e+00,1.15012e-06
1.22638e+00,1.02737e-06
1.26638e+00,9.15661e-07
1.30768e+00,8.14064e-07
1.35033e+00,7.21723e-07
1.39437e+00,6.37850e-07
1.43984e+00,5.61719e-07
1.48680e+00,4.92660e-07
1.53529e+00,4.30060e-07
1.58537e+00,3.73352e-07
1.63707e+00,3.22017e-07
1.69046e+00,2.75577e-07
1.74559e+00,2.33594e-07
1.80252e+00,1.95668e-07
1.86131e+00,1.61428e-07
1.92202e+00,1.30539e-07
1.98470e+00,1.02691e-07
2.04943e+00,7.76016e-08
2.11627e+00,5.50135e-08
2.18529e+00,3.46907e-08
2.25656e+00,1.64181e-08
2.33016e+00,0.00000e+00
