m1=74213.451, m2=8.787, gsp=2.408, rhosp=137.286
fGW[Hz],dPh[rad]
3.41398e-03,1.49869e+05
3.46330e-03,1.43268e+05
3.51332e-03,1.36942e+05
3.56407e-03,1.30879e+05
3.61555e-03,1.25071e+05
3.66778e-03,1.19506e+05
3.72076e-03,1.14176e+05
3.77450e-03,1.09070e+05
3.82902e-03,1.04182e+05
3.88433e-03,9.95006e+04
3.94044e-03,9.50192e+04
3.99736e-03,9.07295e+04
4.05510e-03,8.66238e+04
4.11367e-03,8.26948e+04
4.17309e-03,7.89353e+04
4.23337e-03,7.53386e+04
4.29452e-03,7.18980e+04
4.35656e-03,6.86072e+04
4.41948e-03,6.54601e+04
4.48332e-03,6.24508e+04
4.54808e-03,5.95736e+04
4.61378e-03,5.68232e+04
4.68042e-03,5.41941e+04
4.74803e-03,5.16815e+04
4.81661e-03,4.92805e+04
4.88619e-03,4.69863e+04
4.95677e-03,4.47945e+04
5.02836e-03,4.27008e+04
5.10100e-03,4.07011e+04
5.17468e-03,3.87913e+04
5.24943e-03,3.69677e+04
5.32525e-03,3.52265e+04
5.40217e-03,3.35642e+04
5.48021e-03,3.19775e+04
5.55937e-03,3.04630e+04
5.63967e-03,2.90177e+04
5.72113e-03,2.76386e+04
5.80377e-03,2.63227e+04
5.88760e-03,2.50673e+04
5.97265e-03,2.38697e+04
6.05892e-03,2.27275e+04
6.14644e-03,2.16382e+04
6.23522e-03,2.05994e+04
6.32529e-03,1.96089e+04
6.41666e-03,1.86645e+04
6.50934e-03,1.77642e+04
6.60337e-03,1.69061e+04
6.69875e-03,1.60882e+04
6.79551e-03,1.53087e+04
6.89367e-03,1.45659e+04
6.99325e-03,1.38581e+04
7.09426e-03,1.31838e+04
7.19674e-03,1.25414e+04
7.30069e-03,1.19294e+04
7.40615e-03,1.13466e+04
7.51313e-03,1.07915e+04
7.62165e-03,1.02628e+04
7.73174e-03,9.75945e+03
7.84342e-03,9.28015e+03
7.95672e-03,8.82383e+03
8.07165e-03,8.38941e+03
8.18824e-03,7.97589e+03
8.30652e-03,7.58229e+03
8.42651e-03,7.20767e+03
8.54822e-03,6.85116e+03
8.67170e-03,6.51190e+03
8.79696e-03,6.18908e+03
8.92403e-03,5.88193e+03
9.05293e-03,5.58971e+03
9.18370e-03,5.31171e+03
9.31635e-03,5.04727e+03
9.45093e-03,4.79573e+03
9.58744e-03,4.55649e+03
9.72593e-03,4.32896e+03
9.86642e-03,4.11257e+03
1.00089e-02,3.90680e+03
1.01535e-02,3.71115e+03
1.03002e-02,3.52511e+03
1.04490e-02,3.34824e+03
1.05999e-02,3.18009e+03
1.07530e-02,3.02024e+03
1.09083e-02,2.86829e+03
1.10659e-02,2.72386e+03
1.12257e-02,2.58658e+03
1.13879e-02,2.45610e+03
1.15524e-02,2.33211e+03
1.17192e-02,2.21427e+03
1.18885e-02,2.10229e+03
1.20603e-02,1.99589e+03
1.22345e-02,1.89479e+03
1.24112e-02,1.79874e+03
1.25905e-02,1.70747e+03
1.27723e-02,1.62077e+03
1.29568e-02,1.53841e+03
1.31440e-02,1.46017e+03
1.33338e-02,1.38585e+03
1.35264e-02,1.31526e+03
1.37218e-02,1.24820e+03
1.39200e-02,1.18452e+03
1.41211e-02,1.12404e+03
1.43251e-02,1.06660e+03
1.45320e-02,1.01205e+03
1.47419e-02,9.60253e+02
1.49548e-02,9.11065e+02
1.51709e-02,8.64359e+02
1.53900e-02,8.20011e+02
1.56123e-02,7.77904e+02
1.58378e-02,7.37926e+02
1.60666e-02,6.99970e+02
1.62987e-02,6.63935e+02
1.65341e-02,6.29726e+02
1.67729e-02,5.97251e+02
1.70152e-02,5.66423e+02
1.72610e-02,5.37159e+02
1.75103e-02,5.09381e+02
1.77632e-02,4.83014e+02
1.80198e-02,4.57988e+02
1.82801e-02,4.34234e+02
1.85442e-02,4.11689e+02
1.88120e-02,3.90292e+02
1.90837e-02,3.69985e+02
1.93594e-02,3.50713e+02
1.96390e-02,3.32423e+02
1.99227e-02,3.15067e+02
2.02105e-02,2.98596e+02
2.05024e-02,2.82966e+02
2.07986e-02,2.68135e+02
2.10990e-02,2.54061e+02
2.14038e-02,2.40707e+02
2.17130e-02,2.28036e+02
2.20266e-02,2.16013e+02
2.23448e-02,2.04606e+02
2.26675e-02,1.93783e+02
2.29949e-02,1.83514e+02
2.33271e-02,1.73772e+02
2.36640e-02,1.64529e+02
2.40059e-02,1.55760e+02
2.43526e-02,1.47440e+02
2.47044e-02,1.39548e+02
2.50612e-02,1.32061e+02
2.54232e-02,1.24958e+02
2.57905e-02,1.18220e+02
2.61630e-02,1.11829e+02
2.65409e-02,1.05765e+02
2.69243e-02,1.00014e+02
2.73132e-02,9.45582e+01
2.77077e-02,8.93832e+01
2.81080e-02,8.44745e+01
2.85140e-02,7.98184e+01
2.89258e-02,7.54020e+01
2.93437e-02,7.12131e+01
2.97675e-02,6.72399e+01
3.01975e-02,6.34714e+01
3.06337e-02,5.98972e+01
3.10762e-02,5.65072e+01
3.15251e-02,5.32919e+01
3.19804e-02,5.02425e+01
3.24424e-02,4.73504e+01
3.29110e-02,4.46074e+01
3.33864e-02,4.20061e+01
3.38686e-02,3.95389e+01
3.43579e-02,3.71992e+01
3.48542e-02,3.49802e+01
3.53576e-02,3.28759e+01
3.58683e-02,3.08802e+01
3.63864e-02,2.89877e+01
3.69120e-02,2.71929e+01
3.74452e-02,2.54909e+01
3.79861e-02,2.38769e+01
3.85348e-02,2.23463e+01
3.90914e-02,2.08948e+01
3.96561e-02,1.95184e+01
4.02289e-02,1.82132e+01
4.08100e-02,1.69756e+01
4.13995e-02,1.58019e+01
4.19975e-02,1.46890e+01
4.26041e-02,1.36337e+01
4.32195e-02,1.26330e+01
4.38438e-02,1.16841e+01
4.44771e-02,1.07843e+01
4.51196e-02,9.93114e+00
4.57713e-02,9.12215e+00
4.64325e-02,8.35505e+00
4.71032e-02,7.62769e+00
4.77835e-02,6.93802e+00
4.84738e-02,6.28407e+00
4.91739e-02,5.66401e+00
4.98842e-02,5.07608e+00
5.06048e-02,4.51863e+00
5.13358e-02,3.99007e+00
5.20773e-02,3.48891e+00
5.28295e-02,3.01373e+00
5.35926e-02,2.56318e+00
5.43668e-02,2.13600e+00
5.51521e-02,1.73098e+00
5.59487e-02,1.34695e+00
5.67569e-02,9.82852e-01
5.75767e-02,6.37635e-01
5.84084e-02,3.10327e-01
5.92521e-02,0.00000e+00
