m1=19190.337, m2=7.820, gsp=2.155, rhosp=185.173
fGW[Hz],dPh[rad]
5.00157e-03,1.93492e+03
5.09863e-03,1.84388e+03
5.19757e-03,1.75693e+03
5.29843e-03,1.67388e+03
5.40125e-03,1.59457e+03
5.50607e-03,1.51883e+03
5.61292e-03,1.44652e+03
5.72184e-03,1.37748e+03
5.83287e-03,1.31156e+03
5.94606e-03,1.24865e+03
6.06145e-03,1.18859e+03
6.17908e-03,1.13128e+03
6.29899e-03,1.07658e+03
6.42122e-03,1.02439e+03
6.54583e-03,9.74591e+02
6.67286e-03,9.27084e+02
6.80235e-03,8.81766e+02
6.93435e-03,8.38541e+02
7.06892e-03,7.97318e+02
7.20610e-03,7.58007e+02
7.34593e-03,7.20526e+02
7.48849e-03,6.84792e+02
7.63381e-03,6.50728e+02
7.78194e-03,6.18261e+02
7.93296e-03,5.87319e+02
8.08690e-03,5.57834e+02
8.24383e-03,5.29742e+02
8.40381e-03,5.02981e+02
8.56689e-03,4.77491e+02
8.73314e-03,4.53214e+02
8.90261e-03,4.30097e+02
9.07537e-03,4.08087e+02
9.25149e-03,3.87134e+02
9.43102e-03,3.67191e+02
9.61403e-03,3.48212e+02
9.80060e-03,3.30153e+02
9.99079e-03,3.12972e+02
1.01847e-02,2.96629e+02
1.03823e-02,2.81086e+02
1.05838e-02,2.66306e+02
1.07892e-02,2.52254e+02
1.09985e-02,2.38897e+02
1.12120e-02,2.26202e+02
1.14295e-02,2.14139e+02
1.16513e-02,2.02678e+02
1.18774e-02,1.91792e+02
1.21079e-02,1.81453e+02
1.23429e-02,1.71636e+02
1.25824e-02,1.62317e+02
1.28266e-02,1.53471e+02
1.30755e-02,1.45077e+02
1.33292e-02,1.37112e+02
1.35879e-02,1.29557e+02
1.38516e-02,1.22392e+02
1.41204e-02,1.15599e+02
1.43944e-02,1.09158e+02
1.46737e-02,1.03054e+02
1.49585e-02,9.72701e+01
1.52488e-02,9.17905e+01
1.55447e-02,8.66003e+01
1.58463e-02,8.16856e+01
1.61538e-02,7.70325e+01
1.64673e-02,7.26284e+01
1.67869e-02,6.84607e+01
1.71126e-02,6.45177e+01
1.74447e-02,6.07881e+01
1.77832e-02,5.72613e+01
1.81283e-02,5.39270e+01
1.84801e-02,5.07754e+01
1.88387e-02,4.77973e+01
1.92043e-02,4.49837e+01
1.95770e-02,4.23263e+01
1.99569e-02,3.98169e+01
2.03442e-02,3.74479e+01
2.07390e-02,3.52120e+01
2.11414e-02,3.31022e+01
2.15517e-02,3.11119e+01
2.19699e-02,2.92348e+01
2.23962e-02,2.74649e+01
2.28309e-02,2.57965e+01
2.32739e-02,2.42242e+01
2.37255e-02,2.27427e+01
2.41860e-02,2.13472e+01
2.46553e-02,2.00331e+01
2.51338e-02,1.87958e+01
2.56215e-02,1.76311e+01
2.61187e-02,1.65352e+01
2.66255e-02,1.55041e+01
2.71422e-02,1.45343e+01
2.76689e-02,1.36224e+01
2.82059e-02,1.27651e+01
2.87532e-02,1.19593e+01
2.93112e-02,1.12021e+01
2.98800e-02,1.04907e+01
3.04598e-02,9.82263e+00
3.10509e-02,9.19529e+00
3.16535e-02,8.60634e+00
3.22678e-02,8.05358e+00
3.28939e-02,7.53490e+00
3.35323e-02,7.04831e+00
3.41830e-02,6.59192e+00
3.48463e-02,6.16396e+00
3.55225e-02,5.76275e+00
3.62119e-02,5.38669e+00
3.69146e-02,5.03428e+00
3.76309e-02,4.70411e+00
3.83612e-02,4.39484e+00
3.91056e-02,4.10521e+00
3.98645e-02,3.83403e+00
4.06381e-02,3.58017e+00
4.14267e-02,3.34257e+00
4.22306e-02,3.12024e+00
4.30501e-02,2.91223e+00
4.38855e-02,2.71767e+00
4.47372e-02,2.53571e+00
4.56053e-02,2.36557e+00
4.64903e-02,2.20652e+00
4.73925e-02,2.05785e+00
4.83122e-02,1.91892e+00
4.92497e-02,1.78910e+00
5.02054e-02,1.66783e+00
5.11797e-02,1.55455e+00
5.21729e-02,1.44877e+00
5.31853e-02,1.34999e+00
5.42174e-02,1.25778e+00
5.52695e-02,1.17170e+00
5.63421e-02,1.09136e+00
5.74354e-02,1.01639e+00
5.85500e-02,9.46444e-01
5.96862e-02,8.81191e-01
6.08445e-02,8.20327e-01
6.20252e-02,7.63563e-01
6.32288e-02,7.10630e-01
6.44558e-02,6.61277e-01
6.57066e-02,6.15267e-01
6.69817e-02,5.72380e-01
6.82815e-02,5.32408e-01
6.96066e-02,4.95158e-01
7.09573e-02,4.60449e-01
7.23343e-02,4.28110e-01
7.37380e-02,3.97984e-01
7.51689e-02,3.69922e-01
7.66276e-02,3.43786e-01
7.81146e-02,3.19446e-01
7.96305e-02,2.96781e-01
8.11758e-02,2.75677e-01
8.27511e-02,2.56030e-01
8.43569e-02,2.37740e-01
8.59939e-02,2.20715e-01
8.76627e-02,2.04870e-01
8.93638e-02,1.90123e-01
9.10980e-02,1.76400e-01
9.28658e-02,1.63630e-01
9.46679e-02,1.51749e-01
9.65050e-02,1.40696e-01
9.83778e-02,1.30413e-01
1.00287e-01,1.20848e-01
1.02233e-01,1.11951e-01
1.04217e-01,1.03677e-01
1.06239e-01,9.59814e-02
1.08301e-01,8.88250e-02
1.10403e-01,8.21705e-02
1.12545e-01,7.59829e-02
1.14729e-01,7.02300e-02
1.16955e-01,6.48815e-02
1.19225e-01,5.99092e-02
1.21539e-01,5.52870e-02
1.23897e-01,5.09904e-02
1.26301e-01,4.69967e-02
1.28752e-01,4.32849e-02
1.31251e-01,3.98351e-02
1.33798e-01,3.66290e-02
1.36394e-01,3.36496e-02
1.39041e-01,3.08809e-02
1.41739e-01,2.83082e-02
1.44490e-01,2.59177e-02
1.47294e-01,2.36966e-02
1.50152e-01,2.16330e-02
1.53066e-01,1.97157e-02
1.56036e-01,1.79346e-02
1.59064e-01,1.62799e-02
1.62151e-01,1.47428e-02
1.65298e-01,1.33149e-02
1.68505e-01,1.19886e-02
1.71775e-01,1.07567e-02
1.75109e-01,9.61239e-03
1.78507e-01,8.54960e-03
1.81971e-01,7.56251e-03
1.85502e-01,6.64577e-03
1.89102e-01,5.79438e-03
1.92772e-01,5.00371e-03
1.96513e-01,4.26945e-03
2.00326e-01,3.58759e-03
2.04213e-01,2.95441e-03
2.08176e-01,2.36645e-03
2.12216e-01,1.82049e-03
2.16334e-01,1.31355e-03
2.20532e-01,8.42840e-04
2.24812e-01,4.05791e-04
2.29175e-01,0.00000e+00
