m1=122336.143, m2=11.235, gsp=2.200, rhosp=1024.206
fGW[Hz],dPh[rad]
2.74768e-03,4.59056e+03
2.78341e-03,4.38999e+03
2.81960e-03,4.19785e+03
2.85627e-03,4.01379e+03
2.89342e-03,3.83751e+03
2.93104e-03,3.66867e+03
2.96916e-03,3.50700e+03
3.00777e-03,3.35219e+03
3.04689e-03,3.20398e+03
3.08651e-03,3.06209e+03
3.12665e-03,2.92626e+03
3.16731e-03,2.79626e+03
3.20850e-03,2.67183e+03
3.25022e-03,2.55276e+03
3.29249e-03,2.43882e+03
3.33531e-03,2.32981e+03
3.37868e-03,2.22551e+03
3.42262e-03,2.12573e+03
3.46713e-03,2.03029e+03
3.51222e-03,1.93901e+03
3.55789e-03,1.85171e+03
3.60416e-03,1.76822e+03
3.65103e-03,1.68838e+03
3.69851e-03,1.61205e+03
3.74661e-03,1.53907e+03
3.79533e-03,1.46930e+03
3.84469e-03,1.40261e+03
3.89468e-03,1.33887e+03
3.94533e-03,1.27794e+03
3.99664e-03,1.21972e+03
4.04861e-03,1.16408e+03
4.10126e-03,1.11091e+03
4.15460e-03,1.06011e+03
4.20863e-03,1.01158e+03
4.26336e-03,9.65217e+02
4.31880e-03,9.20927e+02
4.37496e-03,8.78622e+02
4.43186e-03,8.38216e+02
4.48949e-03,7.99626e+02
4.54787e-03,7.62773e+02
4.60702e-03,7.27581e+02
4.66693e-03,6.93977e+02
4.72762e-03,6.61893e+02
4.78910e-03,6.31261e+02
4.85138e-03,6.02017e+02
4.91447e-03,5.74101e+02
4.97838e-03,5.47454e+02
5.04312e-03,5.22019e+02
5.10870e-03,4.97743e+02
5.17514e-03,4.74574e+02
5.24244e-03,4.52464e+02
5.31061e-03,4.31365e+02
5.37968e-03,4.11232e+02
5.44964e-03,3.92021e+02
5.52050e-03,3.73693e+02
5.59230e-03,3.56206e+02
5.66502e-03,3.39524e+02
5.73869e-03,3.23610e+02
5.81332e-03,3.08430e+02
5.88892e-03,2.93950e+02
5.96550e-03,2.80139e+02
6.04308e-03,2.66966e+02
6.12167e-03,2.54404e+02
6.20128e-03,2.42423e+02
6.28192e-03,2.30998e+02
6.36361e-03,2.20104e+02
6.44637e-03,2.09715e+02
6.53020e-03,1.99810e+02
6.61512e-03,1.90366e+02
6.70115e-03,1.81362e+02
6.78829e-03,1.72778e+02
6.87657e-03,1.64594e+02
6.96600e-03,1.56793e+02
7.05659e-03,1.49356e+02
7.14835e-03,1.42268e+02
7.24131e-03,1.35511e+02
7.33548e-03,1.29071e+02
7.43088e-03,1.22933e+02
7.52751e-03,1.17083e+02
7.62540e-03,1.11508e+02
7.72457e-03,1.06195e+02
7.82502e-03,1.01132e+02
7.92678e-03,9.63075e+01
8.02986e-03,9.17100e+01
8.13429e-03,8.73292e+01
8.24007e-03,8.31551e+01
8.34723e-03,7.91780e+01
8.45578e-03,7.53887e+01
8.56574e-03,7.17785e+01
8.67713e-03,6.83390e+01
8.78998e-03,6.50622e+01
8.90429e-03,6.19406e+01
9.02008e-03,5.89669e+01
9.13738e-03,5.61341e+01
9.25621e-03,5.34357e+01
9.37658e-03,5.08653e+01
9.49852e-03,4.84169e+01
9.62204e-03,4.60849e+01
9.74717e-03,4.38637e+01
9.87393e-03,4.17481e+01
1.00023e-02,3.97332e+01
1.01324e-02,3.78142e+01
1.02642e-02,3.59865e+01
1.03977e-02,3.42460e+01
1.05329e-02,3.25884e+01
1.06698e-02,3.10098e+01
1.08086e-02,2.95066e+01
1.09492e-02,2.80751e+01
1.10915e-02,2.67120e+01
1.12358e-02,2.54139e+01
1.13819e-02,2.41780e+01
1.15299e-02,2.30011e+01
1.16799e-02,2.18805e+01
1.18317e-02,2.08135e+01
1.19856e-02,1.97976e+01
1.21415e-02,1.88303e+01
1.22994e-02,1.79093e+01
1.24593e-02,1.70325e+01
1.26213e-02,1.61977e+01
1.27855e-02,1.54030e+01
1.29517e-02,1.46464e+01
1.31202e-02,1.39260e+01
1.32908e-02,1.32403e+01
1.34636e-02,1.25874e+01
1.36387e-02,1.19660e+01
1.38161e-02,1.13743e+01
1.39958e-02,1.08111e+01
1.41778e-02,1.02750e+01
1.43621e-02,9.76469e+00
1.45489e-02,9.27890e+00
1.47381e-02,8.81648e+00
1.49298e-02,8.37631e+00
1.51239e-02,7.95733e+00
1.53206e-02,7.55853e+00
1.55198e-02,7.17893e+00
1.57217e-02,6.81762e+00
1.59261e-02,6.47371e+00
1.61332e-02,6.14638e+00
1.63430e-02,5.83483e+00
1.65556e-02,5.53831e+00
1.67709e-02,5.25608e+00
1.69890e-02,4.98747e+00
1.72099e-02,4.73182e+00
1.74337e-02,4.48850e+00
1.76604e-02,4.25693e+00
1.78901e-02,4.03655e+00
1.81227e-02,3.82680e+00
1.83584e-02,3.62718e+00
1.85972e-02,3.43721e+00
1.88390e-02,3.25641e+00
1.90840e-02,3.08436e+00
1.93322e-02,2.92062e+00
1.95836e-02,2.76479e+00
1.98382e-02,2.61650e+00
2.00962e-02,2.47538e+00
2.03576e-02,2.34108e+00
2.06223e-02,2.21328e+00
2.08905e-02,2.09167e+00
2.11622e-02,1.97594e+00
2.14374e-02,1.86581e+00
2.17161e-02,1.76101e+00
2.19986e-02,1.66128e+00
2.22846e-02,1.56638e+00
2.25744e-02,1.47608e+00
2.28680e-02,1.39015e+00
2.31654e-02,1.30839e+00
2.34666e-02,1.23058e+00
2.37718e-02,1.15654e+00
2.40810e-02,1.08609e+00
2.43941e-02,1.01906e+00
2.47113e-02,9.55275e-01
2.50327e-02,8.94581e-01
2.53582e-02,8.36829e-01
2.56880e-02,7.81878e-01
2.60221e-02,7.29591e-01
2.63605e-02,6.79840e-01
2.67033e-02,6.32501e-01
2.70505e-02,5.87459e-01
2.74023e-02,5.44602e-01
2.77587e-02,5.03823e-01
2.81197e-02,4.65024e-01
2.84853e-02,4.28107e-01
2.88558e-02,3.92981e-01
2.92310e-02,3.59560e-01
2.96112e-02,3.27762e-01
2.99962e-02,2.97506e-01
3.03863e-02,2.68720e-01
3.07815e-02,2.41331e-01
3.11818e-02,2.15272e-01
3.15873e-02,1.90478e-01
3.19981e-02,1.66889e-01
3.24142e-02,1.44444e-01
3.28357e-02,1.23090e-01
3.32627e-02,1.02773e-01
3.36953e-02,8.34434e-02
3.41335e-02,6.50524e-02
3.45773e-02,4.75549e-02
3.50270e-02,3.09075e-02
3.54825e-02,1.50689e-02
3.59439e-02,0.00000e+00
