m1=2065.208, m2=3.881, gsp=2.303, rhosp=27.202
fGW[Hz],dPh[rad]
1.13579e-02,9.29317e+03
1.16607e-02,8.78139e+03
1.19715e-02,8.29762e+03
1.22905e-02,7.84033e+03
1.26181e-02,7.40807e+03
1.29544e-02,6.99948e+03
1.32997e-02,6.61327e+03
1.36542e-02,6.24822e+03
1.40181e-02,5.90316e+03
1.43917e-02,5.57701e+03
1.47753e-02,5.26873e+03
1.51691e-02,4.97736e+03
1.55734e-02,4.70195e+03
1.59885e-02,4.44166e+03
1.64146e-02,4.19564e+03
1.68521e-02,3.96311e+03
1.73013e-02,3.74335e+03
1.77624e-02,3.53565e+03
1.82358e-02,3.33936e+03
1.87218e-02,3.15384e+03
1.92208e-02,2.97852e+03
1.97331e-02,2.81284e+03
2.02591e-02,2.65626e+03
2.07990e-02,2.50829e+03
2.13534e-02,2.36846e+03
2.19225e-02,2.23632e+03
2.25068e-02,2.11146e+03
2.31067e-02,1.99348e+03
2.37226e-02,1.88199e+03
2.43548e-02,1.77665e+03
2.50040e-02,1.67711e+03
2.56704e-02,1.58307e+03
2.63546e-02,1.49421e+03
2.70570e-02,1.41026e+03
2.77782e-02,1.33095e+03
2.85185e-02,1.25602e+03
2.92786e-02,1.18523e+03
3.00590e-02,1.11836e+03
3.08601e-02,1.05519e+03
3.16827e-02,9.95520e+02
3.25271e-02,9.39155e+02
3.33940e-02,8.85916e+02
3.42841e-02,8.35631e+02
3.51979e-02,7.88137e+02
3.61360e-02,7.43282e+02
3.70991e-02,7.00922e+02
3.80879e-02,6.60918e+02
3.91031e-02,6.23142e+02
4.01453e-02,5.87471e+02
4.12153e-02,5.53790e+02
4.23138e-02,5.21989e+02
4.34415e-02,4.91965e+02
4.45994e-02,4.63620e+02
4.57881e-02,4.36861e+02
4.70085e-02,4.11602e+02
4.82614e-02,3.87760e+02
4.95477e-02,3.65257e+02
5.08683e-02,3.44018e+02
5.22241e-02,3.23975e+02
5.36160e-02,3.05061e+02
5.50450e-02,2.87214e+02
5.65121e-02,2.70375e+02
5.80184e-02,2.54489e+02
5.95647e-02,2.39502e+02
6.11523e-02,2.25365e+02
6.27822e-02,2.12031e+02
6.44555e-02,1.99456e+02
6.61734e-02,1.87597e+02
6.79371e-02,1.76414e+02
6.97479e-02,1.65871e+02
7.16068e-02,1.55931e+02
7.35154e-02,1.46562e+02
7.54748e-02,1.37731e+02
7.74864e-02,1.29408e+02
7.95516e-02,1.21565e+02
8.16719e-02,1.14175e+02
8.38487e-02,1.07214e+02
8.60835e-02,1.00656e+02
8.83779e-02,9.44804e+01
9.07334e-02,8.86644e+01
9.31517e-02,8.31884e+01
9.56345e-02,7.80331e+01
9.81834e-02,7.31805e+01
1.00800e-01,6.86137e+01
1.03487e-01,6.43165e+01
1.06245e-01,6.02736e+01
1.09077e-01,5.64708e+01
1.11984e-01,5.28944e+01
1.14969e-01,4.95315e+01
1.18033e-01,4.63700e+01
1.21179e-01,4.33985e+01
1.24409e-01,4.06061e+01
1.27725e-01,3.79827e+01
1.31129e-01,3.55184e+01
1.34624e-01,3.32041e+01
1.38212e-01,3.10314e+01
1.41896e-01,2.89919e+01
1.45678e-01,2.70780e+01
1.49560e-01,2.52824e+01
1.53547e-01,2.35982e+01
1.57639e-01,2.20189e+01
1.61841e-01,2.05385e+01
1.66154e-01,1.91511e+01
1.70583e-01,1.78512e+01
1.75129e-01,1.66337e+01
1.79797e-01,1.54938e+01
1.84589e-01,1.44267e+01
1.89509e-01,1.34282e+01
1.94560e-01,1.24942e+01
1.99745e-01,1.16208e+01
2.05069e-01,1.08043e+01
2.10535e-01,1.00413e+01
2.16146e-01,9.32856e+00
2.21907e-01,8.66300e+00
2.27822e-01,8.04173e+00
2.33894e-01,7.46201e+00
2.40128e-01,6.92128e+00
2.46528e-01,6.41712e+00
2.53098e-01,5.94723e+00
2.59844e-01,5.50946e+00
2.66770e-01,5.10179e+00
2.73880e-01,4.72231e+00
2.81180e-01,4.36921e+00
2.88674e-01,4.04079e+00
2.96368e-01,3.73548e+00
3.04267e-01,3.45176e+00
3.12377e-01,3.18822e+00
3.20702e-01,2.94354e+00
3.29250e-01,2.71647e+00
3.38026e-01,2.50584e+00
3.47035e-01,2.31055e+00
3.56284e-01,2.12956e+00
3.65780e-01,1.96190e+00
3.75530e-01,1.80667e+00
3.85538e-01,1.66300e+00
3.95814e-01,1.53010e+00
4.06364e-01,1.40722e+00
4.17195e-01,1.29366e+00
4.28314e-01,1.18876e+00
4.39730e-01,1.09190e+00
4.51450e-01,1.00250e+00
4.63482e-01,9.20040e-01
4.75836e-01,8.44006e-01
4.88518e-01,7.73930e-01
5.01538e-01,7.09376e-01
5.14906e-01,6.49935e-01
5.28630e-01,5.95227e-01
5.42719e-01,5.44897e-01
5.57184e-01,4.98615e-01
5.72035e-01,4.56074e-01
5.87281e-01,4.16988e-01
6.02934e-01,3.81093e-01
6.19004e-01,3.48141e-01
6.35502e-01,3.17903e-01
6.52440e-01,2.90168e-01
6.69829e-01,2.64738e-01
6.87682e-01,2.41431e-01
7.06011e-01,2.20078e-01
7.24828e-01,2.00522e-01
7.44147e-01,1.82619e-01
7.63981e-01,1.66236e-01
7.84343e-01,1.51248e-01
8.05248e-01,1.37541e-01
8.26710e-01,1.25011e-01
8.48745e-01,1.13560e-01
8.71366e-01,1.03098e-01
8.94591e-01,9.35442e-02
9.18434e-01,8.48212e-02
9.42913e-01,7.68594e-02
9.68044e-01,6.95947e-02
9.93846e-01,6.29679e-02
1.02033e+00,5.69247e-02
1.04753e+00,5.14151e-02
1.07545e+00,4.63935e-02
1.10411e+00,4.18177e-02
1.13354e+00,3.76493e-02
1.16375e+00,3.38528e-02
1.19477e+00,3.03959e-02
1.22661e+00,2.72490e-02
1.25931e+00,2.43849e-02
1.29287e+00,2.17787e-02
1.32733e+00,1.94077e-02
1.36271e+00,1.72511e-02
1.39903e+00,1.52898e-02
1.43632e+00,1.35067e-02
1.47460e+00,1.18856e-02
1.51390e+00,1.04123e-02
1.55425e+00,9.07339e-03
1.59568e+00,7.85686e-03
1.63820e+00,6.75170e-03
1.68187e+00,5.74787e-03
1.72669e+00,4.83620e-03
1.77272e+00,4.00835e-03
1.81996e+00,3.25673e-03
1.86847e+00,2.57439e-03
1.91827e+00,1.95504e-03
1.96940e+00,1.39292e-03
2.02189e+00,8.82807e-04
2.07578e+00,4.19945e-04
2.13110e+00,0.00000e+00
