m1=3002.449, m2=38.713, gsp=2.239, rhosp=184.868
fGW[Hz],dPh[rad]
4.37210e-03,4.56445e+02
4.50187e-03,4.28292e+02
4.63548e-03,4.01874e+02
4.77306e-03,3.77084e+02
4.91473e-03,3.53822e+02
5.06060e-03,3.31993e+02
5.21080e-03,3.11510e+02
5.36546e-03,2.92290e+02
5.52471e-03,2.74254e+02
5.68868e-03,2.57330e+02
5.85752e-03,2.41449e+02
6.03138e-03,2.26547e+02
6.21039e-03,2.12563e+02
6.39472e-03,1.99442e+02
6.58451e-03,1.87129e+02
6.77994e-03,1.75576e+02
6.98117e-03,1.64734e+02
7.18838e-03,1.54562e+02
7.40173e-03,1.45016e+02
7.62142e-03,1.36059e+02
7.84762e-03,1.27654e+02
8.08054e-03,1.19768e+02
8.32037e-03,1.12368e+02
8.56732e-03,1.05424e+02
8.82160e-03,9.89082e+01
9.08343e-03,9.27945e+01
9.35303e-03,8.70578e+01
9.63063e-03,8.16750e+01
9.91647e-03,7.66243e+01
1.02108e-02,7.18851e+01
1.05139e-02,6.74383e+01
1.08259e-02,6.32659e+01
1.11472e-02,5.93509e+01
1.14781e-02,5.56774e+01
1.18188e-02,5.22307e+01
1.21695e-02,4.89967e+01
1.25307e-02,4.59622e+01
1.29026e-02,4.31151e+01
1.32856e-02,4.04437e+01
1.36799e-02,3.79373e+01
1.40859e-02,3.55856e+01
1.45040e-02,3.33791e+01
1.49345e-02,3.13089e+01
1.53778e-02,2.93665e+01
1.58342e-02,2.75441e+01
1.63041e-02,2.58343e+01
1.67881e-02,2.42302e+01
1.72863e-02,2.27251e+01
1.77994e-02,2.13131e+01
1.83277e-02,1.99883e+01
1.88717e-02,1.87455e+01
1.94318e-02,1.75795e+01
2.00085e-02,1.64855e+01
2.06024e-02,1.54593e+01
2.12138e-02,1.44965e+01
2.18435e-02,1.35933e+01
2.24918e-02,1.27460e+01
2.31594e-02,1.19511e+01
2.38467e-02,1.12054e+01
2.45545e-02,1.05059e+01
2.52833e-02,9.84974e+00
2.60337e-02,9.23421e+00
2.68064e-02,8.65682e+00
2.76020e-02,8.11522e+00
2.84213e-02,7.60720e+00
2.92648e-02,7.13068e+00
3.01334e-02,6.68371e+00
3.10278e-02,6.26448e+00
3.19487e-02,5.87127e+00
3.28969e-02,5.50248e+00
3.38733e-02,5.15659e+00
3.48787e-02,4.83219e+00
3.59139e-02,4.52795e+00
3.69798e-02,4.24263e+00
3.80774e-02,3.97506e+00
3.92076e-02,3.72414e+00
4.03712e-02,3.48884e+00
4.15695e-02,3.26819e+00
4.28033e-02,3.06130e+00
4.40737e-02,2.86730e+00
4.53818e-02,2.68541e+00
4.67287e-02,2.51486e+00
4.81157e-02,2.35497e+00
4.95438e-02,2.20506e+00
5.10142e-02,2.06453e+00
5.25283e-02,1.93279e+00
5.40874e-02,1.80929e+00
5.56927e-02,1.69353e+00
5.73457e-02,1.58503e+00
5.90477e-02,1.48333e+00
6.08003e-02,1.38802e+00
6.26049e-02,1.29869e+00
6.44630e-02,1.21499e+00
6.63763e-02,1.13655e+00
6.83463e-02,1.06305e+00
7.03749e-02,9.94185e-01
7.24636e-02,9.29666e-01
7.46144e-02,8.69224e-01
7.68289e-02,8.12603e-01
7.91093e-02,7.59568e-01
8.14572e-02,7.09894e-01
8.38749e-02,6.63372e-01
8.63643e-02,6.19806e-01
8.89277e-02,5.79011e-01
9.15671e-02,5.40815e-01
9.42848e-02,5.05055e-01
9.70832e-02,4.71579e-01
9.99646e-02,4.40245e-01
1.02932e-01,4.10919e-01
1.05987e-01,3.83474e-01
1.09132e-01,3.57794e-01
1.12371e-01,3.33767e-01
1.15707e-01,3.11290e-01
1.19141e-01,2.90265e-01
1.22677e-01,2.70602e-01
1.26318e-01,2.52215e-01
1.30067e-01,2.35023e-01
1.33928e-01,2.18951e-01
1.37903e-01,2.03928e-01
1.41996e-01,1.89889e-01
1.46210e-01,1.76770e-01
1.50550e-01,1.64514e-01
1.55018e-01,1.53066e-01
1.59619e-01,1.42375e-01
1.64357e-01,1.32393e-01
1.69235e-01,1.23074e-01
1.74258e-01,1.14376e-01
1.79430e-01,1.06260e-01
1.84755e-01,9.86877e-02
1.90239e-01,9.16253e-02
1.95885e-01,8.50395e-02
2.01699e-01,7.88999e-02
2.07686e-01,7.31775e-02
2.13850e-01,6.78455e-02
2.20197e-01,6.28786e-02
2.26732e-01,5.82531e-02
2.33462e-01,5.39467e-02
2.40391e-01,4.99387e-02
2.47526e-01,4.62095e-02
2.54873e-01,4.27408e-02
2.62437e-01,3.95155e-02
2.70226e-01,3.65176e-02
2.78247e-01,3.37319e-02
2.86505e-01,3.11444e-02
2.95009e-01,2.87418e-02
3.03765e-01,2.65118e-02
3.12781e-01,2.44429e-02
3.22064e-01,2.25240e-02
3.31623e-01,2.07451e-02
3.41466e-01,1.90967e-02
3.51600e-01,1.75698e-02
3.62036e-01,1.61561e-02
3.72781e-01,1.48478e-02
3.83846e-01,1.36375e-02
3.95238e-01,1.25186e-02
4.06969e-01,1.14845e-02
4.19048e-01,1.05293e-02
4.31486e-01,9.64742e-03
4.44292e-01,8.83364e-03
4.57479e-01,8.08309e-03
4.71057e-01,7.39121e-03
4.85038e-01,6.75375e-03
4.99434e-01,6.16675e-03
5.14257e-01,5.62649e-03
5.29521e-01,5.12954e-03
5.45237e-01,4.67267e-03
5.61420e-01,4.25289e-03
5.78083e-01,3.86739e-03
5.95241e-01,3.51358e-03
6.12908e-01,3.18904e-03
6.31099e-01,2.89152e-03
6.49830e-01,2.61892e-03
6.69117e-01,2.36930e-03
6.88977e-01,2.14085e-03
7.09426e-01,1.93190e-03
7.30482e-01,1.74089e-03
7.52163e-01,1.56638e-03
7.74487e-01,1.40705e-03
7.97474e-01,1.26164e-03
8.21143e-01,1.12902e-03
8.45515e-01,1.00813e-03
8.70610e-01,8.97995e-04
8.96450e-01,7.97714e-04
9.23057e-01,7.06455e-04
9.50454e-01,6.23450e-04
9.78663e-01,5.47993e-04
1.00771e+00,4.79433e-04
1.03762e+00,4.17174e-04
1.06842e+00,3.60663e-04
1.10013e+00,3.09397e-04
1.13278e+00,2.62910e-04
1.16640e+00,2.20779e-04
1.20102e+00,1.82613e-04
1.23667e+00,1.48054e-04
1.27337e+00,1.16777e-04
1.31116e+00,8.84816e-05
1.35008e+00,6.28951e-05
1.39015e+00,3.97678e-05
1.43141e+00,1.88720e-05
1.47390e+00,0.00000e+00
