m1=376323.236, m2=58.389, gsp=2.325, rhosp=737.989
fGW[Hz],dPh[rad]
1.11829e-03,1.38883e+04
1.13156e-03,1.33457e+04
1.14498e-03,1.28234e+04
1.15856e-03,1.23207e+04
1.17230e-03,1.18370e+04
1.18621e-03,1.13715e+04
1.20028e-03,1.09236e+04
1.21451e-03,1.04927e+04
1.22892e-03,1.00782e+04
1.24349e-03,9.67939e+03
1.25824e-03,9.29582e+03
1.27317e-03,8.92690e+03
1.28827e-03,8.57211e+03
1.30355e-03,8.23091e+03
1.31901e-03,7.90283e+03
1.33466e-03,7.58737e+03
1.35049e-03,7.28408e+03
1.36651e-03,6.99251e+03
1.38272e-03,6.71223e+03
1.39912e-03,6.44282e+03
1.41571e-03,6.18387e+03
1.43250e-03,5.93500e+03
1.44950e-03,5.69583e+03
1.46669e-03,5.46600e+03
1.48409e-03,5.24517e+03
1.50169e-03,5.03299e+03
1.51950e-03,4.82913e+03
1.53752e-03,4.63330e+03
1.55576e-03,4.44517e+03
1.57421e-03,4.26447e+03
1.59289e-03,4.09091e+03
1.61178e-03,3.92421e+03
1.63090e-03,3.76412e+03
1.65024e-03,3.61039e+03
1.66982e-03,3.46277e+03
1.68962e-03,3.32102e+03
1.70966e-03,3.18493e+03
1.72994e-03,3.05427e+03
1.75046e-03,2.92884e+03
1.77123e-03,2.80843e+03
1.79223e-03,2.69285e+03
1.81349e-03,2.58191e+03
1.83500e-03,2.47543e+03
1.85677e-03,2.37324e+03
1.87879e-03,2.27517e+03
1.90108e-03,2.18106e+03
1.92363e-03,2.09075e+03
1.94644e-03,2.00410e+03
1.96953e-03,1.92097e+03
1.99289e-03,1.84120e+03
2.01653e-03,1.76468e+03
2.04045e-03,1.69127e+03
2.06465e-03,1.62084e+03
2.08914e-03,1.55329e+03
2.11392e-03,1.48850e+03
2.13899e-03,1.42636e+03
2.16437e-03,1.36676e+03
2.19004e-03,1.30960e+03
2.21601e-03,1.25478e+03
2.24230e-03,1.20221e+03
2.26890e-03,1.15180e+03
2.29581e-03,1.10347e+03
2.32304e-03,1.05713e+03
2.35059e-03,1.01269e+03
2.37848e-03,9.70093e+02
2.40669e-03,9.29252e+02
2.43523e-03,8.90100e+02
2.46412e-03,8.52567e+02
2.49335e-03,8.16589e+02
2.52292e-03,7.82102e+02
2.55285e-03,7.49046e+02
2.58313e-03,7.17362e+02
2.61377e-03,6.86996e+02
2.64477e-03,6.57892e+02
2.67614e-03,6.30001e+02
2.70788e-03,6.03271e+02
2.74000e-03,5.77657e+02
2.77250e-03,5.53111e+02
2.80539e-03,5.29591e+02
2.83866e-03,5.07053e+02
2.87233e-03,4.85459e+02
2.90640e-03,4.64769e+02
2.94088e-03,4.44945e+02
2.97576e-03,4.25953e+02
3.01105e-03,4.07758e+02
3.04677e-03,3.90326e+02
3.08291e-03,3.73627e+02
3.11948e-03,3.57630e+02
3.15648e-03,3.42306e+02
3.19392e-03,3.27627e+02
3.23180e-03,3.13567e+02
3.27013e-03,3.00099e+02
3.30892e-03,2.87199e+02
3.34817e-03,2.74844e+02
3.38788e-03,2.63011e+02
3.42807e-03,2.51678e+02
3.46873e-03,2.40823e+02
3.50987e-03,2.30429e+02
3.55151e-03,2.20474e+02
3.59363e-03,2.10940e+02
3.63626e-03,2.01811e+02
3.67939e-03,1.93069e+02
3.72303e-03,1.84698e+02
3.76719e-03,1.76682e+02
3.81187e-03,1.69006e+02
3.85709e-03,1.61656e+02
3.90284e-03,1.54619e+02
3.94913e-03,1.47882e+02
3.99597e-03,1.41430e+02
4.04337e-03,1.35254e+02
4.09133e-03,1.29340e+02
4.13986e-03,1.23679e+02
4.18896e-03,1.18259e+02
4.23865e-03,1.13070e+02
4.28893e-03,1.08102e+02
4.33980e-03,1.03346e+02
4.39127e-03,9.87938e+01
4.44336e-03,9.44356e+01
4.49606e-03,9.02637e+01
4.54939e-03,8.62702e+01
4.60336e-03,8.24474e+01
4.65796e-03,7.87881e+01
4.71321e-03,7.52855e+01
4.76911e-03,7.19328e+01
4.82568e-03,6.87237e+01
4.88292e-03,6.56521e+01
4.94084e-03,6.27121e+01
4.99944e-03,5.98982e+01
5.05874e-03,5.72049e+01
5.11874e-03,5.46272e+01
5.17946e-03,5.21601e+01
5.24090e-03,4.97989e+01
5.30306e-03,4.75391e+01
5.36596e-03,4.53764e+01
5.42961e-03,4.33065e+01
5.49401e-03,4.13257e+01
5.55918e-03,3.94299e+01
5.62512e-03,3.76157e+01
5.69184e-03,3.58796e+01
5.75935e-03,3.42181e+01
5.82766e-03,3.26282e+01
5.89679e-03,3.11066e+01
5.96673e-03,2.96506e+01
6.03750e-03,2.82573e+01
6.10912e-03,2.69241e+01
6.18158e-03,2.56482e+01
6.25490e-03,2.44274e+01
6.32909e-03,2.32592e+01
6.40416e-03,2.21414e+01
6.48013e-03,2.10718e+01
6.55699e-03,2.00483e+01
6.63476e-03,1.90690e+01
6.71346e-03,1.81319e+01
6.79309e-03,1.72353e+01
6.87367e-03,1.63774e+01
6.95520e-03,1.55566e+01
7.03769e-03,1.47712e+01
7.12117e-03,1.40197e+01
7.20564e-03,1.33007e+01
7.29111e-03,1.26128e+01
7.37759e-03,1.19546e+01
7.46510e-03,1.13249e+01
7.55364e-03,1.07224e+01
7.64324e-03,1.01460e+01
7.73390e-03,9.59446e+00
7.82563e-03,9.06681e+00
7.91845e-03,8.56199e+00
8.01238e-03,8.07902e+00
8.10741e-03,7.61695e+00
8.20358e-03,7.17488e+00
8.30088e-03,6.75195e+00
8.39934e-03,6.34734e+00
8.49897e-03,5.96025e+00
8.59978e-03,5.58992e+00
8.70178e-03,5.23564e+00
8.80500e-03,4.89670e+00
8.90944e-03,4.57246e+00
9.01512e-03,4.26226e+00
9.12205e-03,3.96551e+00
9.23025e-03,3.68163e+00
9.33973e-03,3.41005e+00
9.45051e-03,3.15024e+00
9.56261e-03,2.90171e+00
9.67603e-03,2.66395e+00
9.79080e-03,2.43650e+00
9.90693e-03,2.21892e+00
1.00244e-02,2.01078e+00
1.01433e-02,1.81167e+00
1.02637e-02,1.62121e+00
1.03854e-02,1.43900e+00
1.05086e-02,1.26471e+00
1.06332e-02,1.09798e+00
1.07594e-02,9.38485e-01
1.08870e-02,7.85917e-01
1.10161e-02,6.39974e-01
1.11468e-02,5.00368e-01
1.12790e-02,3.66825e-01
1.14128e-02,2.39082e-01
1.15481e-02,1.16887e-01
1.16851e-02,0.00000e+00
