m1=71409.675, m2=46.909, gsp=2.345, rhosp=83.926
fGW[Hz],dPh[rad]
1.83945e-03,1.79457e+04
1.87219e-03,1.71937e+04
1.90551e-03,1.64715e+04
1.93943e-03,1.57779e+04
1.97396e-03,1.51118e+04
2.00909e-03,1.44722e+04
2.04486e-03,1.38581e+04
2.08125e-03,1.32685e+04
2.11830e-03,1.27024e+04
2.15601e-03,1.21591e+04
2.19439e-03,1.16376e+04
2.23345e-03,1.11370e+04
2.27320e-03,1.06567e+04
2.31367e-03,1.01958e+04
2.35485e-03,9.75359e+03
2.39677e-03,9.32933e+03
2.43943e-03,8.92235e+03
2.48285e-03,8.53198e+03
2.52705e-03,8.15759e+03
2.57203e-03,7.79856e+03
2.61782e-03,7.45429e+03
2.66441e-03,7.12422e+03
2.71184e-03,6.80780e+03
2.76011e-03,6.50450e+03
2.80924e-03,6.21380e+03
2.85925e-03,5.93523e+03
2.91015e-03,5.66829e+03
2.96195e-03,5.41255e+03
3.01467e-03,5.16756e+03
3.06833e-03,4.93290e+03
3.12295e-03,4.70817e+03
3.17854e-03,4.49297e+03
3.23512e-03,4.28692e+03
3.29271e-03,4.08967e+03
3.35132e-03,3.90087e+03
3.41097e-03,3.72017e+03
3.47169e-03,3.54727e+03
3.53349e-03,3.38183e+03
3.59638e-03,3.22357e+03
3.66040e-03,3.07220e+03
3.72556e-03,2.92744e+03
3.79187e-03,2.78902e+03
3.85937e-03,2.65669e+03
3.92807e-03,2.53020e+03
3.99799e-03,2.40930e+03
4.06916e-03,2.29378e+03
4.14159e-03,2.18341e+03
4.21531e-03,2.07798e+03
4.29034e-03,1.97728e+03
4.36671e-03,1.88112e+03
4.44444e-03,1.78932e+03
4.52356e-03,1.70168e+03
4.60408e-03,1.61804e+03
4.68603e-03,1.53823e+03
4.76944e-03,1.46208e+03
4.85434e-03,1.38944e+03
4.94075e-03,1.32017e+03
5.02870e-03,1.25412e+03
5.11821e-03,1.19114e+03
5.20932e-03,1.13112e+03
5.30205e-03,1.07392e+03
5.39642e-03,1.01942e+03
5.49248e-03,9.67498e+02
5.59025e-03,9.18050e+02
5.68976e-03,8.70963e+02
5.79104e-03,8.26135e+02
5.89412e-03,7.83466e+02
5.99904e-03,7.42859e+02
6.10582e-03,7.04223e+02
6.21451e-03,6.67469e+02
6.32513e-03,6.32514e+02
6.43772e-03,5.99276e+02
6.55231e-03,5.67678e+02
6.66895e-03,5.37644e+02
6.78766e-03,5.09103e+02
6.90848e-03,4.81986e+02
7.03145e-03,4.56229e+02
7.15662e-03,4.31767e+02
7.28401e-03,4.08541e+02
7.41367e-03,3.86493e+02
7.54563e-03,3.65567e+02
7.67995e-03,3.45710e+02
7.81665e-03,3.26873e+02
7.95579e-03,3.09005e+02
8.09741e-03,2.92061e+02
8.24155e-03,2.75997e+02
8.38825e-03,2.60770e+02
8.53756e-03,2.46339e+02
8.68953e-03,2.32665e+02
8.84421e-03,2.19712e+02
9.00164e-03,2.07444e+02
9.16187e-03,1.95827e+02
9.32496e-03,1.84828e+02
9.49095e-03,1.74418e+02
9.65989e-03,1.64566e+02
9.83184e-03,1.55245e+02
1.00068e-02,1.46427e+02
1.01850e-02,1.38087e+02
1.03663e-02,1.30201e+02
1.05508e-02,1.22746e+02
1.07386e-02,1.15699e+02
1.09298e-02,1.09039e+02
1.11243e-02,1.02746e+02
1.13223e-02,9.68009e+01
1.15239e-02,9.11859e+01
1.17290e-02,8.58834e+01
1.19378e-02,8.08769e+01
1.21503e-02,7.61508e+01
1.23666e-02,7.16902e+01
1.25867e-02,6.74808e+01
1.28107e-02,6.35092e+01
1.30388e-02,5.97627e+01
1.32709e-02,5.62291e+01
1.35071e-02,5.28968e+01
1.37475e-02,4.97549e+01
1.39922e-02,4.67930e+01
1.42413e-02,4.40013e+01
1.44948e-02,4.13703e+01
1.47528e-02,3.88913e+01
1.50154e-02,3.65557e+01
1.52827e-02,3.43557e+01
1.55547e-02,3.22837e+01
1.58316e-02,3.03325e+01
1.61134e-02,2.84954e+01
1.64002e-02,2.67658e+01
1.66922e-02,2.51379e+01
1.69893e-02,2.36057e+01
1.72917e-02,2.21639e+01
1.75995e-02,2.08072e+01
1.79128e-02,1.95310e+01
1.82317e-02,1.83304e+01
1.85562e-02,1.72013e+01
1.88865e-02,1.61394e+01
1.92227e-02,1.51409e+01
1.95649e-02,1.42021e+01
1.99131e-02,1.33196e+01
2.02676e-02,1.24900e+01
2.06283e-02,1.17103e+01
2.09955e-02,1.09776e+01
2.13693e-02,1.02891e+01
2.17496e-02,9.64221e+00
2.21368e-02,9.03447e+00
2.25308e-02,8.46357e+00
2.29319e-02,7.92734e+00
2.33401e-02,7.42372e+00
2.37556e-02,6.95077e+00
2.41784e-02,6.50666e+00
2.46088e-02,6.08968e+00
2.50468e-02,5.69820e+00
2.54927e-02,5.33069e+00
2.59465e-02,4.98572e+00
2.64083e-02,4.66193e+00
2.68784e-02,4.35805e+00
2.73569e-02,4.07286e+00
2.78438e-02,3.80526e+00
2.83394e-02,3.55416e+00
2.88439e-02,3.31857e+00
2.93573e-02,3.09755e+00
2.98799e-02,2.89021e+00
3.04118e-02,2.69572e+00
3.09531e-02,2.51329e+00
3.15041e-02,2.34219e+00
3.20649e-02,2.18172e+00
3.26356e-02,2.03123e+00
3.32166e-02,1.89012e+00
3.38078e-02,1.75779e+00
3.44096e-02,1.63373e+00
3.50221e-02,1.51741e+00
3.56455e-02,1.40835e+00
3.62800e-02,1.30612e+00
3.69258e-02,1.21028e+00
3.75831e-02,1.12044e+00
3.82521e-02,1.03624e+00
3.89330e-02,9.57318e-01
3.96261e-02,8.83349e-01
4.03314e-02,8.14026e-01
4.10493e-02,7.49060e-01
4.17800e-02,6.88181e-01
4.25237e-02,6.31132e-01
4.32807e-02,5.77676e-01
4.40511e-02,5.27588e-01
4.48352e-02,4.80659e-01
4.56333e-02,4.36690e-01
4.64456e-02,3.95496e-01
4.72723e-02,3.56903e-01
4.81138e-02,3.20750e-01
4.89702e-02,2.86881e-01
4.98419e-02,2.55155e-01
5.07291e-02,2.25437e-01
5.16321e-02,1.97600e-01
5.25512e-02,1.71527e-01
5.34866e-02,1.47105e-01
5.44387e-02,1.24232e-01
5.54077e-02,1.02810e-01
5.63940e-02,8.27468e-02
5.73979e-02,6.39572e-02
5.84196e-02,4.63607e-02
5.94595e-02,2.98820e-02
6.05179e-02,1.44505e-02
6.15951e-02,0.00000e+00
