m1=112281.280, m2=51.434, gsp=2.363, rhosp=25.754
fGW[Hz],dPh[rad]
1.58686e-03,1.99902e+04
1.61264e-03,1.91675e+04
1.63883e-03,1.83763e+04
1.66545e-03,1.76155e+04
1.69250e-03,1.68840e+04
1.71999e-03,1.61808e+04
1.74792e-03,1.55048e+04
1.77631e-03,1.48550e+04
1.80516e-03,1.42306e+04
1.83448e-03,1.36306e+04
1.86428e-03,1.30541e+04
1.89455e-03,1.25002e+04
1.92533e-03,1.19682e+04
1.95660e-03,1.14572e+04
1.98838e-03,1.09665e+04
2.02067e-03,1.04953e+04
2.05349e-03,1.00429e+04
2.08684e-03,9.60864e+03
2.12074e-03,9.19181e+03
2.15518e-03,8.79178e+03
2.19018e-03,8.40793e+03
2.22576e-03,8.03965e+03
2.26191e-03,7.68635e+03
2.29864e-03,7.34748e+03
2.33598e-03,7.02250e+03
2.37392e-03,6.71088e+03
2.41248e-03,6.41211e+03
2.45166e-03,6.12571e+03
2.49148e-03,5.85120e+03
2.53194e-03,5.58814e+03
2.57307e-03,5.33608e+03
2.61486e-03,5.09461e+03
2.65733e-03,4.86330e+03
2.70049e-03,4.64178e+03
2.74435e-03,4.42965e+03
2.78892e-03,4.22656e+03
2.83422e-03,4.03214e+03
2.88025e-03,3.84607e+03
2.92703e-03,3.66800e+03
2.97457e-03,3.49763e+03
3.02289e-03,3.33464e+03
3.07198e-03,3.17874e+03
3.12188e-03,3.02966e+03
3.17258e-03,2.88711e+03
3.22411e-03,2.75083e+03
3.27648e-03,2.62058e+03
3.32969e-03,2.49609e+03
3.38377e-03,2.37714e+03
3.43873e-03,2.26351e+03
3.49458e-03,2.15497e+03
3.55134e-03,2.05131e+03
3.60902e-03,1.95233e+03
3.66764e-03,1.85783e+03
3.72721e-03,1.76764e+03
3.78774e-03,1.68156e+03
3.84926e-03,1.59942e+03
3.91178e-03,1.52106e+03
3.97531e-03,1.44632e+03
4.03988e-03,1.37503e+03
4.10550e-03,1.30707e+03
4.17218e-03,1.24227e+03
4.23994e-03,1.18050e+03
4.30880e-03,1.12164e+03
4.37879e-03,1.06555e+03
4.44991e-03,1.01212e+03
4.52218e-03,9.61223e+02
4.59563e-03,9.12752e+02
4.67027e-03,8.66597e+02
4.74612e-03,8.22657e+02
4.82321e-03,7.80831e+02
4.90155e-03,7.41026e+02
4.98116e-03,7.03150e+02
5.06206e-03,6.67116e+02
5.14428e-03,6.32839e+02
5.22783e-03,6.00240e+02
5.31274e-03,5.69242e+02
5.39903e-03,5.39770e+02
5.48672e-03,5.11755e+02
5.57583e-03,4.85129e+02
5.66639e-03,4.59826e+02
5.75842e-03,4.35786e+02
5.85195e-03,4.12949e+02
5.94700e-03,3.91258e+02
6.04359e-03,3.70658e+02
6.14175e-03,3.51098e+02
6.24150e-03,3.32529e+02
6.34287e-03,3.14902e+02
6.44589e-03,2.98174e+02
6.55058e-03,2.82299e+02
6.65698e-03,2.67237e+02
6.76510e-03,2.52948e+02
6.87498e-03,2.39395e+02
6.98664e-03,2.26542e+02
7.10011e-03,2.14354e+02
7.21543e-03,2.02798e+02
7.33262e-03,1.91844e+02
7.45172e-03,1.81461e+02
7.57275e-03,1.71620e+02
7.69574e-03,1.62296e+02
7.82074e-03,1.53461e+02
7.94776e-03,1.45092e+02
8.07684e-03,1.37164e+02
8.20803e-03,1.29655e+02
8.34134e-03,1.22545e+02
8.47682e-03,1.15813e+02
8.61450e-03,1.09439e+02
8.75441e-03,1.03405e+02
8.89660e-03,9.76940e+01
9.04110e-03,9.22890e+01
9.18794e-03,8.71743e+01
9.33717e-03,8.23348e+01
9.48882e-03,7.77562e+01
9.64294e-03,7.34248e+01
9.79955e-03,6.93279e+01
9.95872e-03,6.54532e+01
1.01205e-02,6.17888e+01
1.02848e-02,5.83239e+01
1.04519e-02,5.50479e+01
1.06216e-02,5.19507e+01
1.07942e-02,4.90229e+01
1.09695e-02,4.62555e+01
1.11476e-02,4.36400e+01
1.13287e-02,4.11682e+01
1.15127e-02,3.88324e+01
1.16997e-02,3.66255e+01
1.18897e-02,3.45403e+01
1.20828e-02,3.25705e+01
1.22791e-02,3.07098e+01
1.24785e-02,2.89522e+01
1.26812e-02,2.72922e+01
1.28871e-02,2.57245e+01
1.30964e-02,2.42440e+01
1.33091e-02,2.28461e+01
1.35253e-02,2.15263e+01
1.37450e-02,2.02801e+01
1.39682e-02,1.91037e+01
1.41951e-02,1.79932e+01
1.44257e-02,1.69450e+01
1.46600e-02,1.59556e+01
1.48981e-02,1.50218e+01
1.51400e-02,1.41406e+01
1.53859e-02,1.33090e+01
1.56358e-02,1.25243e+01
1.58898e-02,1.17839e+01
1.61479e-02,1.10853e+01
1.64101e-02,1.04262e+01
1.66767e-02,9.80444e+00
1.69475e-02,9.21789e+00
1.72228e-02,8.66460e+00
1.75025e-02,8.14271e+00
1.77868e-02,7.65047e+00
1.80757e-02,7.18621e+00
1.83692e-02,6.74837e+00
1.86676e-02,6.33546e+00
1.89708e-02,5.94608e+00
1.92789e-02,5.57891e+00
1.95920e-02,5.23269e+00
1.99102e-02,4.90625e+00
2.02336e-02,4.59847e+00
2.05623e-02,4.30829e+00
2.08962e-02,4.03472e+00
2.12356e-02,3.77681e+00
2.15805e-02,3.53369e+00
2.19310e-02,3.30451e+00
2.22872e-02,3.08848e+00
2.26492e-02,2.88485e+00
2.30171e-02,2.69292e+00
2.33909e-02,2.51202e+00
2.37708e-02,2.34153e+00
2.41569e-02,2.18084e+00
2.45492e-02,2.02941e+00
2.49480e-02,1.88670e+00
2.53532e-02,1.75222e+00
2.57650e-02,1.62549e+00
2.61834e-02,1.50607e+00
2.66087e-02,1.39354e+00
2.70409e-02,1.28751e+00
2.74801e-02,1.18761e+00
2.79264e-02,1.09348e+00
2.83800e-02,1.00479e+00
2.88409e-02,9.21231e-01
2.93093e-02,8.42507e-01
2.97854e-02,7.68340e-01
3.02691e-02,6.98468e-01
3.07608e-02,6.32644e-01
3.12604e-02,5.70634e-01
3.17681e-02,5.12220e-01
3.22841e-02,4.57192e-01
3.28084e-02,4.05357e-01
3.33413e-02,3.56530e-01
3.38828e-02,3.10537e-01
3.44331e-02,2.67215e-01
3.49924e-02,2.26409e-01
3.55607e-02,1.87974e-01
3.61383e-02,1.51772e-01
3.67252e-02,1.17675e-01
3.73217e-02,8.55613e-02
3.79279e-02,5.53151e-02
3.85439e-02,2.68287e-02
3.91699e-02,0.00000e+00
