m1=299022.289, m2=20.888, gsp=2.286, rhosp=478.322
fGW[Hz],dPh[rad]
1.74153e-03,7.47736e+03
1.76030e-03,7.19281e+03
1.77927e-03,6.91888e+03
1.79845e-03,6.65516e+03
1.81783e-03,6.40130e+03
1.83743e-03,6.15693e+03
1.85723e-03,5.92172e+03
1.87725e-03,5.69531e+03
1.89748e-03,5.47740e+03
1.91794e-03,5.26767e+03
1.93861e-03,5.06583e+03
1.95950e-03,4.87158e+03
1.98062e-03,4.68465e+03
2.00197e-03,4.50476e+03
2.02355e-03,4.33166e+03
2.04536e-03,4.16510e+03
2.06741e-03,4.00484e+03
2.08969e-03,3.85064e+03
2.11221e-03,3.70228e+03
2.13498e-03,3.55954e+03
2.15799e-03,3.42222e+03
2.18125e-03,3.29011e+03
2.20476e-03,3.16302e+03
2.22853e-03,3.04077e+03
2.25255e-03,2.92317e+03
2.27683e-03,2.81005e+03
2.30137e-03,2.70124e+03
2.32617e-03,2.59658e+03
2.35125e-03,2.49592e+03
2.37659e-03,2.39911e+03
2.40220e-03,2.30600e+03
2.42810e-03,2.21645e+03
2.45427e-03,2.13033e+03
2.48072e-03,2.04752e+03
2.50746e-03,1.96787e+03
2.53449e-03,1.89129e+03
2.56180e-03,1.81765e+03
2.58942e-03,1.74683e+03
2.61733e-03,1.67874e+03
2.64554e-03,1.61327e+03
2.67405e-03,1.55032e+03
2.70287e-03,1.48980e+03
2.73201e-03,1.43161e+03
2.76145e-03,1.37566e+03
2.79122e-03,1.32188e+03
2.82130e-03,1.27017e+03
2.85171e-03,1.22046e+03
2.88245e-03,1.17267e+03
2.91352e-03,1.12673e+03
2.94492e-03,1.08257e+03
2.97666e-03,1.04012e+03
3.00875e-03,9.99319e+02
3.04118e-03,9.60097e+02
3.07396e-03,9.22396e+02
3.10709e-03,8.86159e+02
3.14058e-03,8.51330e+02
3.17443e-03,8.17853e+02
3.20865e-03,7.85678e+02
3.24323e-03,7.54754e+02
3.27819e-03,7.25034e+02
3.31352e-03,6.96471e+02
3.34924e-03,6.69020e+02
3.38534e-03,6.42639e+02
3.42182e-03,6.17287e+02
3.45871e-03,5.92923e+02
3.49599e-03,5.69510e+02
3.53367e-03,5.47011e+02
3.57175e-03,5.25390e+02
3.61025e-03,5.04614e+02
3.64917e-03,4.84650e+02
3.68850e-03,4.65467e+02
3.72825e-03,4.47034e+02
3.76844e-03,4.29322e+02
3.80906e-03,4.12304e+02
3.85011e-03,3.95952e+02
3.89161e-03,3.80241e+02
3.93356e-03,3.65145e+02
3.97596e-03,3.50641e+02
4.01881e-03,3.36706e+02
4.06213e-03,3.23318e+02
4.10591e-03,3.10455e+02
4.15017e-03,2.98097e+02
4.19490e-03,2.86224e+02
4.24011e-03,2.74817e+02
4.28582e-03,2.63859e+02
4.33201e-03,2.53332e+02
4.37870e-03,2.43218e+02
4.42590e-03,2.33503e+02
4.47360e-03,2.24169e+02
4.52182e-03,2.15203e+02
4.57056e-03,2.06590e+02
4.61982e-03,1.98316e+02
4.66962e-03,1.90367e+02
4.71995e-03,1.82732e+02
4.77082e-03,1.75398e+02
4.82225e-03,1.68353e+02
4.87422e-03,1.61586e+02
4.92676e-03,1.55085e+02
4.97986e-03,1.48841e+02
5.03354e-03,1.42844e+02
5.08779e-03,1.37083e+02
5.14263e-03,1.31550e+02
5.19806e-03,1.26235e+02
5.25409e-03,1.21130e+02
5.31072e-03,1.16226e+02
5.36796e-03,1.11517e+02
5.42582e-03,1.06993e+02
5.48430e-03,1.02649e+02
5.54341e-03,9.84760e+01
5.60316e-03,9.44682e+01
5.66356e-03,9.06189e+01
5.72460e-03,8.69220e+01
5.78630e-03,8.33713e+01
5.84867e-03,7.99611e+01
5.91171e-03,7.66860e+01
5.97543e-03,7.35405e+01
6.03984e-03,7.05197e+01
6.10494e-03,6.76184e+01
6.17074e-03,6.48321e+01
6.23725e-03,6.21562e+01
6.30448e-03,5.95864e+01
6.37243e-03,5.71184e+01
6.44111e-03,5.47482e+01
6.51054e-03,5.24721e+01
6.58071e-03,5.02862e+01
6.65164e-03,4.81870e+01
6.72334e-03,4.61710e+01
6.79581e-03,4.42351e+01
6.86905e-03,4.23760e+01
6.94309e-03,4.05906e+01
7.01793e-03,3.88761e+01
7.09357e-03,3.72297e+01
7.17003e-03,3.56487e+01
7.24731e-03,3.41304e+01
7.32543e-03,3.26724e+01
7.40438e-03,3.12724e+01
7.48419e-03,2.99279e+01
7.56486e-03,2.86369e+01
7.64640e-03,2.73972e+01
7.72881e-03,2.62067e+01
7.81212e-03,2.50636e+01
7.89632e-03,2.39659e+01
7.98143e-03,2.29118e+01
8.06746e-03,2.18997e+01
8.15441e-03,2.09278e+01
8.24231e-03,1.99945e+01
8.33115e-03,1.90984e+01
8.42094e-03,1.82379e+01
8.51171e-03,1.74117e+01
8.60345e-03,1.66183e+01
8.69618e-03,1.58565e+01
8.78992e-03,1.51250e+01
8.88466e-03,1.44226e+01
8.98042e-03,1.37481e+01
9.07722e-03,1.31006e+01
9.17505e-03,1.24788e+01
9.27395e-03,1.18817e+01
9.37391e-03,1.13084e+01
9.47494e-03,1.07580e+01
9.57707e-03,1.02294e+01
9.68030e-03,9.72197e+00
9.78463e-03,9.23471e+00
9.89010e-03,8.76685e+00
9.99670e-03,8.31763e+00
1.01044e-02,7.88631e+00
1.02134e-02,7.47217e+00
1.03234e-02,7.07454e+00
1.04347e-02,6.69275e+00
1.05472e-02,6.32618e+00
1.06609e-02,5.97422e+00
1.07758e-02,5.63628e+00
1.08919e-02,5.31182e+00
1.10093e-02,5.00029e+00
1.11280e-02,4.70118e+00
1.12479e-02,4.41399e+00
1.13692e-02,4.13826e+00
1.14917e-02,3.87352e+00
1.16156e-02,3.61933e+00
1.17408e-02,3.37529e+00
1.18673e-02,3.14098e+00
1.19952e-02,2.91601e+00
1.21245e-02,2.70001e+00
1.22552e-02,2.49264e+00
1.23873e-02,2.29353e+00
1.25208e-02,2.10237e+00
1.26558e-02,1.91883e+00
1.27922e-02,1.74262e+00
1.29301e-02,1.57344e+00
1.30694e-02,1.41101e+00
1.32103e-02,1.25506e+00
1.33527e-02,1.10533e+00
1.34966e-02,9.61579e-01
1.36421e-02,8.23565e-01
1.37891e-02,6.91060e-01
1.39377e-02,5.63843e-01
1.40880e-02,4.41705e-01
1.42398e-02,3.24442e-01
1.43933e-02,2.11860e-01
1.45484e-02,1.03772e-01
1.47052e-02,0.00000e+00
