m1=7817.016, m2=11.831, gsp=2.191, rhosp=1391.533
fGW[Hz],dPh[rad]
5.36108e-03,2.55555e+03
5.48794e-03,2.42418e+03
5.61780e-03,2.29946e+03
5.75073e-03,2.18109e+03
5.88680e-03,2.06872e+03
6.02610e-03,1.96207e+03
6.16869e-03,1.86084e+03
6.31466e-03,1.76476e+03
6.46408e-03,1.67356e+03
6.61703e-03,1.58701e+03
6.77361e-03,1.50486e+03
6.93389e-03,1.42690e+03
7.09796e-03,1.35291e+03
7.26591e-03,1.28270e+03
7.43784e-03,1.21606e+03
7.61384e-03,1.15283e+03
7.79400e-03,1.09283e+03
7.97843e-03,1.03589e+03
8.16722e-03,9.81857e+02
8.36047e-03,9.30591e+02
8.55830e-03,8.81948e+02
8.76081e-03,8.35796e+02
8.96811e-03,7.92009e+02
9.18032e-03,7.50466e+02
9.39755e-03,7.11055e+02
9.61992e-03,6.73666e+02
9.84755e-03,6.38198e+02
1.00806e-02,6.04554e+02
1.03191e-02,5.72640e+02
1.05633e-02,5.42369e+02
1.08132e-02,5.13658e+02
1.10691e-02,4.86427e+02
1.13310e-02,4.60602e+02
1.15991e-02,4.36111e+02
1.18736e-02,4.12885e+02
1.21546e-02,3.90862e+02
1.24422e-02,3.69979e+02
1.27366e-02,3.50179e+02
1.30380e-02,3.31407e+02
1.33465e-02,3.13609e+02
1.36623e-02,2.96738e+02
1.39856e-02,2.80744e+02
1.43165e-02,2.65584e+02
1.46552e-02,2.51216e+02
1.50020e-02,2.37598e+02
1.53570e-02,2.24692e+02
1.57204e-02,2.12463e+02
1.60924e-02,2.00874e+02
1.64732e-02,1.89895e+02
1.68630e-02,1.79493e+02
1.72620e-02,1.69638e+02
1.76704e-02,1.60304e+02
1.80886e-02,1.51462e+02
1.85166e-02,1.43088e+02
1.89547e-02,1.35158e+02
1.94032e-02,1.27649e+02
1.98624e-02,1.20540e+02
2.03324e-02,1.13809e+02
2.08135e-02,1.07437e+02
2.13060e-02,1.01405e+02
2.18101e-02,9.56972e+01
2.23262e-02,9.02954e+01
2.28545e-02,8.51840e+01
2.33953e-02,8.03481e+01
2.39489e-02,7.57732e+01
2.45156e-02,7.14460e+01
2.50957e-02,6.73535e+01
2.56895e-02,6.34835e+01
2.62974e-02,5.98244e+01
2.69196e-02,5.63651e+01
2.75566e-02,5.30953e+01
2.82087e-02,5.00050e+01
2.88761e-02,4.70848e+01
2.95594e-02,4.43257e+01
3.02589e-02,4.17194e+01
3.09749e-02,3.92577e+01
3.17078e-02,3.69330e+01
3.24581e-02,3.47381e+01
3.32261e-02,3.26660e+01
3.40123e-02,3.07103e+01
3.48172e-02,2.88648e+01
3.56410e-02,2.71237e+01
3.64844e-02,2.54812e+01
3.73477e-02,2.39322e+01
3.82314e-02,2.24716e+01
3.91361e-02,2.10947e+01
4.00621e-02,1.97969e+01
4.10101e-02,1.85741e+01
4.19805e-02,1.74220e+01
4.29738e-02,1.63369e+01
4.39907e-02,1.53152e+01
4.50316e-02,1.43533e+01
4.60972e-02,1.34480e+01
4.71880e-02,1.25961e+01
4.83045e-02,1.17948e+01
4.94475e-02,1.10411e+01
5.06176e-02,1.03326e+01
5.18153e-02,9.66657e+00
5.30414e-02,9.04073e+00
5.42965e-02,8.45280e+00
5.55813e-02,7.90065e+00
5.68965e-02,7.38225e+00
5.82428e-02,6.89569e+00
5.96209e-02,6.43914e+00
6.10317e-02,6.01088e+00
6.24759e-02,5.60930e+00
6.39542e-02,5.23284e+00
6.54675e-02,4.88005e+00
6.70166e-02,4.54954e+00
6.86024e-02,4.24002e+00
7.02257e-02,3.95024e+00
7.18874e-02,3.67904e+00
7.35885e-02,3.42531e+00
7.53297e-02,3.18802e+00
7.71122e-02,2.96616e+00
7.89369e-02,2.75881e+00
8.08047e-02,2.56509e+00
8.27168e-02,2.38417e+00
8.46740e-02,2.21526e+00
8.66776e-02,2.05762e+00
8.87286e-02,1.91055e+00
9.08282e-02,1.77340e+00
9.29774e-02,1.64553e+00
9.51775e-02,1.52637e+00
9.74296e-02,1.41537e+00
9.97350e-02,1.31200e+00
1.02095e-01,1.21577e+00
1.04511e-01,1.12623e+00
1.06984e-01,1.04293e+00
1.09515e-01,9.65474e-01
1.12107e-01,8.93477e-01
1.14759e-01,8.26578e-01
1.17475e-01,7.64439e-01
1.20255e-01,7.06740e-01
1.23100e-01,6.53185e-01
1.26013e-01,6.03494e-01
1.28995e-01,5.57404e-01
1.32047e-01,5.14669e-01
1.35172e-01,4.75059e-01
1.38370e-01,4.38358e-01
1.41644e-01,4.04364e-01
1.44996e-01,3.72888e-01
1.48427e-01,3.43753e-01
1.51939e-01,3.16794e-01
1.55534e-01,2.91858e-01
1.59215e-01,2.68798e-01
1.62982e-01,2.47482e-01
1.66839e-01,2.27784e-01
1.70786e-01,2.09585e-01
1.74828e-01,1.92779e-01
1.78964e-01,1.77261e-01
1.83199e-01,1.62939e-01
1.87534e-01,1.49723e-01
1.91972e-01,1.37532e-01
1.96514e-01,1.26289e-01
2.01164e-01,1.15923e-01
2.05924e-01,1.06370e-01
2.10797e-01,9.75662e-02
2.15785e-01,8.94562e-02
2.20891e-01,8.19870e-02
2.26118e-01,7.51096e-02
2.31468e-01,6.87787e-02
2.36945e-01,6.29523e-02
2.42552e-01,5.75913e-02
2.48291e-01,5.26598e-02
2.54166e-01,4.81243e-02
2.60181e-01,4.39539e-02
2.66337e-01,4.01200e-02
2.72639e-01,3.65962e-02
2.79091e-01,3.33581e-02
2.85695e-01,3.03830e-02
2.92455e-01,2.76502e-02
2.99375e-01,2.51404e-02
3.06459e-01,2.28357e-02
3.13710e-01,2.07198e-02
3.21134e-01,1.87775e-02
3.28732e-01,1.69950e-02
3.36511e-01,1.53592e-02
3.44474e-01,1.38584e-02
3.52625e-01,1.24817e-02
3.60969e-01,1.12189e-02
3.69510e-01,1.00608e-02
3.78254e-01,8.99889e-03
3.87204e-01,8.02526e-03
3.96366e-01,7.13272e-03
4.05745e-01,6.31461e-03
4.15346e-01,5.56481e-03
4.25174e-01,4.87770e-03
4.35235e-01,4.24811e-03
4.45534e-01,3.67129e-03
4.56076e-01,3.14287e-03
4.66868e-01,2.65885e-03
4.77915e-01,2.21552e-03
4.89224e-01,1.80952e-03
5.00800e-01,1.43774e-03
5.12650e-01,1.09731e-03
5.24781e-01,7.85634e-04
5.37198e-01,5.00295e-04
5.49910e-01,2.39091e-04
5.62922e-01,0.00000e+00
