m1=20465.483, m2=4.892, gsp=2.304, rhosp=1053.632
fGW[Hz],dPh[rad]
5.86848e-03,6.31040e+04
5.97562e-03,6.02035e+04
6.08472e-03,5.74276e+04
6.19582e-03,5.47714e+04
6.30894e-03,5.22300e+04
6.42412e-03,4.97987e+04
6.54141e-03,4.74730e+04
6.66084e-03,4.52488e+04
6.78245e-03,4.31218e+04
6.90628e-03,4.10880e+04
7.03237e-03,3.91437e+04
7.16076e-03,3.72852e+04
7.29150e-03,3.55090e+04
7.42463e-03,3.38116e+04
7.56018e-03,3.21899e+04
7.69821e-03,3.06406e+04
7.83876e-03,2.91608e+04
7.98188e-03,2.77475e+04
8.12761e-03,2.63981e+04
8.27600e-03,2.51098e+04
8.42709e-03,2.38800e+04
8.58095e-03,2.27064e+04
8.73762e-03,2.15865e+04
8.89715e-03,2.05180e+04
9.05959e-03,1.94987e+04
9.22499e-03,1.85267e+04
9.39342e-03,1.75998e+04
9.56492e-03,1.67161e+04
9.73955e-03,1.58737e+04
9.91737e-03,1.50709e+04
1.00984e-02,1.43060e+04
1.02828e-02,1.35773e+04
1.04705e-02,1.28831e+04
1.06617e-02,1.22221e+04
1.08564e-02,1.15928e+04
1.10546e-02,1.09937e+04
1.12564e-02,1.04235e+04
1.14619e-02,9.88088e+03
1.16712e-02,9.36470e+03
1.18843e-02,8.87372e+03
1.21012e-02,8.40682e+03
1.23222e-02,7.96290e+03
1.25472e-02,7.54092e+03
1.27762e-02,7.13988e+03
1.30095e-02,6.75882e+03
1.32470e-02,6.39683e+03
1.34889e-02,6.05303e+03
1.37351e-02,5.72656e+03
1.39859e-02,5.41662e+03
1.42413e-02,5.12245e+03
1.45013e-02,4.84329e+03
1.47660e-02,4.57844e+03
1.50356e-02,4.32722e+03
1.53101e-02,4.08899e+03
1.55897e-02,3.86311e+03
1.58743e-02,3.64900e+03
1.61641e-02,3.44609e+03
1.64592e-02,3.25383e+03
1.67597e-02,3.07171e+03
1.70657e-02,2.89923e+03
1.73773e-02,2.73591e+03
1.76946e-02,2.58130e+03
1.80176e-02,2.43498e+03
1.83466e-02,2.29652e+03
1.86815e-02,2.16553e+03
1.90226e-02,2.04163e+03
1.93699e-02,1.92448e+03
1.97236e-02,1.81371e+03
2.00837e-02,1.70902e+03
2.04504e-02,1.61008e+03
2.08237e-02,1.51660e+03
2.12039e-02,1.42830e+03
2.15910e-02,1.34491e+03
2.19852e-02,1.26617e+03
2.23866e-02,1.19184e+03
2.27954e-02,1.12168e+03
2.32116e-02,1.05548e+03
2.36353e-02,9.93024e+02
2.40669e-02,9.34111e+02
2.45063e-02,8.78552e+02
2.49537e-02,8.26167e+02
2.54093e-02,7.76784e+02
2.58732e-02,7.30240e+02
2.63456e-02,6.86381e+02
2.68266e-02,6.45059e+02
2.73164e-02,6.06135e+02
2.78151e-02,5.69476e+02
2.83229e-02,5.34958e+02
2.88400e-02,5.02460e+02
2.93666e-02,4.71870e+02
2.99027e-02,4.43082e+02
3.04487e-02,4.15993e+02
3.10046e-02,3.90508e+02
3.15707e-02,3.66536e+02
3.21471e-02,3.43991e+02
3.27340e-02,3.22791e+02
3.33316e-02,3.02859e+02
3.39402e-02,2.84123e+02
3.45598e-02,2.66514e+02
3.51908e-02,2.49966e+02
3.58333e-02,2.34417e+02
3.64875e-02,2.19810e+02
3.71537e-02,2.06090e+02
3.78320e-02,1.93204e+02
3.85228e-02,1.81103e+02
3.92261e-02,1.69742e+02
3.99423e-02,1.59076e+02
4.06715e-02,1.49065e+02
4.14141e-02,1.39668e+02
4.21702e-02,1.30851e+02
4.29401e-02,1.22577e+02
4.37241e-02,1.14816e+02
4.45224e-02,1.07534e+02
4.53352e-02,1.00705e+02
4.61629e-02,9.42999e+01
4.70058e-02,8.82937e+01
4.78640e-02,8.26621e+01
4.87378e-02,7.73823e+01
4.96277e-02,7.24329e+01
5.05337e-02,6.77936e+01
5.14564e-02,6.34456e+01
5.23958e-02,5.93708e+01
5.33524e-02,5.55526e+01
5.43265e-02,5.19750e+01
5.53184e-02,4.86233e+01
5.63284e-02,4.54835e+01
5.73568e-02,4.25424e+01
5.84040e-02,3.97877e+01
5.94703e-02,3.72079e+01
6.05561e-02,3.47919e+01
6.16617e-02,3.25297e+01
6.27875e-02,3.04115e+01
6.39338e-02,2.84284e+01
6.51011e-02,2.65718e+01
6.62896e-02,2.48340e+01
6.74999e-02,2.32072e+01
6.87323e-02,2.16847e+01
6.99872e-02,2.02597e+01
7.12650e-02,1.89262e+01
7.25661e-02,1.76783e+01
7.38910e-02,1.65107e+01
7.52400e-02,1.54181e+01
7.66137e-02,1.43960e+01
7.80125e-02,1.34397e+01
7.94368e-02,1.25451e+01
8.08871e-02,1.17082e+01
8.23639e-02,1.09254e+01
8.38677e-02,1.01933e+01
8.53989e-02,9.50846e+00
8.69581e-02,8.86802e+00
8.85457e-02,8.26907e+00
9.01623e-02,7.70897e+00
9.18085e-02,7.18521e+00
9.34847e-02,6.69546e+00
9.51914e-02,6.23753e+00
9.69294e-02,5.80938e+00
9.86991e-02,5.40907e+00
1.00501e-01,5.03482e+00
1.02336e-01,4.68495e+00
1.04204e-01,4.35788e+00
1.06107e-01,4.05213e+00
1.08044e-01,3.76632e+00
1.10017e-01,3.49917e+00
1.12025e-01,3.24946e+00
1.14071e-01,3.01607e+00
1.16153e-01,2.79793e+00
1.18274e-01,2.59406e+00
1.20433e-01,2.40352e+00
1.22632e-01,2.22545e+00
1.24871e-01,2.05904e+00
1.27151e-01,1.90354e+00
1.29472e-01,1.75822e+00
1.31836e-01,1.62243e+00
1.34243e-01,1.49554e+00
1.36694e-01,1.37697e+00
1.39190e-01,1.26619e+00
1.41731e-01,1.16268e+00
1.44319e-01,1.06597e+00
1.46954e-01,9.75605e-01
1.49637e-01,8.91181e-01
1.52369e-01,8.12307e-01
1.55151e-01,7.38619e-01
1.57983e-01,6.69777e-01
1.60868e-01,6.05463e-01
1.63805e-01,5.45382e-01
1.66795e-01,4.89255e-01
1.69841e-01,4.36824e-01
1.72941e-01,3.87845e-01
1.76099e-01,3.42092e-01
1.79314e-01,2.99354e-01
1.82588e-01,2.59432e-01
1.85921e-01,2.22142e-01
1.89316e-01,1.87310e-01
1.92772e-01,1.54775e-01
1.96292e-01,1.24386e-01
1.99876e-01,9.60018e-02
2.03525e-01,6.94903e-02
2.07241e-01,4.47283e-02
2.11024e-01,2.16008e-02
2.14877e-01,0.00000e+00
