m1=18163.079, m2=3.841, gsp=2.178, rhosp=666.206
fGW[Hz],dPh[rad]
6.61974e-03,6.95852e+03
6.74056e-03,6.62750e+03
6.86359e-03,6.31127e+03
6.98886e-03,6.00919e+03
7.11642e-03,5.72067e+03
7.24630e-03,5.44515e+03
7.37856e-03,5.18207e+03
7.51323e-03,4.93089e+03
7.65036e-03,4.69113e+03
7.79000e-03,4.46229e+03
7.93218e-03,4.24390e+03
8.07695e-03,4.03552e+03
8.22437e-03,3.83671e+03
8.37448e-03,3.64708e+03
8.52733e-03,3.46622e+03
8.68297e-03,3.29375e+03
8.84145e-03,3.12930e+03
9.00282e-03,2.97254e+03
9.16713e-03,2.82313e+03
9.33445e-03,2.68074e+03
9.50482e-03,2.54507e+03
9.67830e-03,2.41582e+03
9.85495e-03,2.29272e+03
1.00348e-02,2.17548e+03
1.02180e-02,2.06385e+03
1.04045e-02,1.95758e+03
1.05944e-02,1.85643e+03
1.07877e-02,1.76017e+03
1.09846e-02,1.66858e+03
1.11851e-02,1.58146e+03
1.13893e-02,1.49859e+03
1.15971e-02,1.41979e+03
1.18088e-02,1.34487e+03
1.20243e-02,1.27366e+03
1.22438e-02,1.20598e+03
1.24673e-02,1.14167e+03
1.26948e-02,1.08058e+03
1.29265e-02,1.02256e+03
1.31625e-02,9.67456e+02
1.34027e-02,9.15143e+02
1.36473e-02,8.65487e+02
1.38964e-02,8.18362e+02
1.41500e-02,7.73650e+02
1.44083e-02,7.31235e+02
1.46713e-02,6.91008e+02
1.49390e-02,6.52864e+02
1.52117e-02,6.16703e+02
1.54893e-02,5.82430e+02
1.57721e-02,5.49952e+02
1.60599e-02,5.19183e+02
1.63530e-02,4.90039e+02
1.66515e-02,4.62440e+02
1.69554e-02,4.36310e+02
1.72649e-02,4.11576e+02
1.75800e-02,3.88168e+02
1.79009e-02,3.66021e+02
1.82276e-02,3.45071e+02
1.85603e-02,3.25257e+02
1.88990e-02,3.06523e+02
1.92440e-02,2.88813e+02
1.95952e-02,2.72075e+02
1.99529e-02,2.56259e+02
2.03170e-02,2.41317e+02
2.06879e-02,2.27204e+02
2.10655e-02,2.13878e+02
2.14499e-02,2.01297e+02
2.18414e-02,1.89421e+02
2.22401e-02,1.78214e+02
2.26460e-02,1.67641e+02
2.30593e-02,1.57667e+02
2.34802e-02,1.48260e+02
2.39088e-02,1.39391e+02
2.43451e-02,1.31030e+02
2.47895e-02,1.23149e+02
2.52419e-02,1.15724e+02
2.57026e-02,1.08728e+02
2.61717e-02,1.02138e+02
2.66494e-02,9.59322e+01
2.71358e-02,9.00891e+01
2.76311e-02,8.45885e+01
2.81354e-02,7.94115e+01
2.86489e-02,7.45398e+01
2.91718e-02,6.99565e+01
2.97043e-02,6.56451e+01
3.02464e-02,6.15903e+01
3.07985e-02,5.77776e+01
3.13606e-02,5.41932e+01
3.19330e-02,5.08240e+01
3.25158e-02,4.76576e+01
3.31093e-02,4.46823e+01
3.37136e-02,4.18871e+01
3.43289e-02,3.92616e+01
3.49555e-02,3.67958e+01
3.55935e-02,3.44804e+01
3.62431e-02,3.23066e+01
3.69046e-02,3.02661e+01
3.75782e-02,2.83510e+01
3.82641e-02,2.65538e+01
3.89624e-02,2.48676e+01
3.96736e-02,2.32858e+01
4.03977e-02,2.18020e+01
4.11350e-02,2.04105e+01
4.18858e-02,1.91056e+01
4.26503e-02,1.78822e+01
4.34287e-02,1.67354e+01
4.42214e-02,1.56604e+01
4.50285e-02,1.46529e+01
4.58503e-02,1.37088e+01
4.66872e-02,1.28242e+01
4.75393e-02,1.19955e+01
4.84070e-02,1.12192e+01
4.92905e-02,1.04922e+01
5.01901e-02,9.81129e+00
5.11062e-02,9.17370e+00
5.20390e-02,8.57673e+00
5.29888e-02,8.01786e+00
5.39559e-02,7.49470e+00
5.49407e-02,7.00504e+00
5.59435e-02,6.54677e+00
5.69645e-02,6.11793e+00
5.80042e-02,5.71666e+00
5.90629e-02,5.34122e+00
6.01409e-02,4.99000e+00
6.12386e-02,4.66145e+00
6.23563e-02,4.35415e+00
6.34944e-02,4.06673e+00
6.46533e-02,3.79795e+00
6.58333e-02,3.54661e+00
6.70349e-02,3.31159e+00
6.82584e-02,3.09187e+00
6.95042e-02,2.88645e+00
7.07728e-02,2.69443e+00
7.20645e-02,2.51493e+00
7.33798e-02,2.34717e+00
7.47191e-02,2.19037e+00
7.60829e-02,2.04384e+00
7.74715e-02,1.90691e+00
7.88855e-02,1.77896e+00
8.03253e-02,1.65941e+00
8.17914e-02,1.54772e+00
8.32842e-02,1.44337e+00
8.48043e-02,1.34589e+00
8.63521e-02,1.25483e+00
8.79282e-02,1.16978e+00
8.95331e-02,1.09033e+00
9.11672e-02,1.01614e+00
9.28311e-02,9.46841e-01
9.45255e-02,8.82129e-01
9.62507e-02,8.21698e-01
9.80075e-02,7.65270e-01
9.97963e-02,7.12580e-01
1.01618e-01,6.63385e-01
1.03472e-01,6.17453e-01
1.05361e-01,5.74570e-01
1.07284e-01,5.34537e-01
1.09242e-01,4.97164e-01
1.11236e-01,4.62276e-01
1.13266e-01,4.29710e-01
1.15334e-01,3.99312e-01
1.17439e-01,3.70939e-01
1.19582e-01,3.44457e-01
1.21765e-01,3.19741e-01
1.23987e-01,2.96674e-01
1.26250e-01,2.75146e-01
1.28554e-01,2.55055e-01
1.30901e-01,2.36307e-01
1.33290e-01,2.18811e-01
1.35723e-01,2.02485e-01
1.38200e-01,1.87251e-01
1.40722e-01,1.73037e-01
1.43291e-01,1.59774e-01
1.45906e-01,1.47398e-01
1.48569e-01,1.35852e-01
1.51281e-01,1.25080e-01
1.54042e-01,1.15029e-01
1.56853e-01,1.05653e-01
1.59716e-01,9.69053e-02
1.62631e-01,8.87446e-02
1.65599e-01,8.11316e-02
1.68622e-01,7.40297e-02
1.71700e-01,6.74047e-02
1.74833e-01,6.12247e-02
1.78024e-01,5.54600e-02
1.81274e-01,5.00827e-02
1.84582e-01,4.50669e-02
1.87951e-01,4.03884e-02
1.91382e-01,3.60245e-02
1.94875e-01,3.19542e-02
1.98431e-01,2.81578e-02
2.02053e-01,2.46168e-02
2.05741e-01,2.13143e-02
2.09496e-01,1.82341e-02
2.13320e-01,1.53614e-02
2.17213e-01,1.26821e-02
2.21178e-01,1.01834e-02
2.25215e-01,7.85302e-03
2.29325e-01,5.67971e-03
2.33511e-01,3.65289e-03
2.37773e-01,1.76272e-03
2.42112e-01,0.00000e+00
