m1=476439.721, m2=32.674, gsp=2.323, rhosp=25.210
fGW[Hz],dPh[rad]
1.31065e-03,4.69438e+03
1.32357e-03,4.52961e+03
1.33662e-03,4.37053e+03
1.34979e-03,4.21695e+03
1.36310e-03,4.06868e+03
1.37653e-03,3.92554e+03
1.39010e-03,3.78736e+03
1.40380e-03,3.65396e+03
1.41764e-03,3.52520e+03
1.43161e-03,3.40091e+03
1.44572e-03,3.28093e+03
1.45997e-03,3.16512e+03
1.47436e-03,3.05335e+03
1.48890e-03,2.94546e+03
1.50357e-03,2.84133e+03
1.51839e-03,2.74084e+03
1.53336e-03,2.64384e+03
1.54847e-03,2.55024e+03
1.56373e-03,2.45990e+03
1.57915e-03,2.37272e+03
1.59471e-03,2.28858e+03
1.61043e-03,2.20740e+03
1.62630e-03,2.12905e+03
1.64233e-03,2.05345e+03
1.65852e-03,1.98050e+03
1.67487e-03,1.91011e+03
1.69138e-03,1.84219e+03
1.70805e-03,1.77665e+03
1.72488e-03,1.71342e+03
1.74188e-03,1.65241e+03
1.75905e-03,1.59354e+03
1.77639e-03,1.53675e+03
1.79390e-03,1.48195e+03
1.81158e-03,1.42909e+03
1.82944e-03,1.37809e+03
1.84747e-03,1.32889e+03
1.86568e-03,1.28142e+03
1.88407e-03,1.23564e+03
1.90264e-03,1.19146e+03
1.92139e-03,1.14885e+03
1.94033e-03,1.10775e+03
1.95946e-03,1.06809e+03
1.97877e-03,1.02985e+03
1.99827e-03,9.92951e+02
2.01797e-03,9.57363e+02
2.03786e-03,9.23036e+02
2.05795e-03,8.89925e+02
2.07823e-03,8.57989e+02
2.09871e-03,8.27186e+02
2.11940e-03,7.97476e+02
2.14029e-03,7.68821e+02
2.16139e-03,7.41184e+02
2.18269e-03,7.14528e+02
2.20420e-03,6.88821e+02
2.22593e-03,6.64027e+02
2.24787e-03,6.40116e+02
2.27003e-03,6.17055e+02
2.29240e-03,5.94816e+02
2.31500e-03,5.73368e+02
2.33781e-03,5.52685e+02
2.36086e-03,5.32738e+02
2.38413e-03,5.13503e+02
2.40763e-03,4.94954e+02
2.43136e-03,4.77067e+02
2.45532e-03,4.59818e+02
2.47952e-03,4.43184e+02
2.50396e-03,4.27145e+02
2.52864e-03,4.11678e+02
2.55357e-03,3.96765e+02
2.57874e-03,3.82384e+02
2.60415e-03,3.68518e+02
2.62982e-03,3.55147e+02
2.65574e-03,3.42255e+02
2.68192e-03,3.29824e+02
2.70835e-03,3.17838e+02
2.73505e-03,3.06281e+02
2.76201e-03,2.95139e+02
2.78923e-03,2.84395e+02
2.81672e-03,2.74036e+02
2.84449e-03,2.64049e+02
2.87252e-03,2.54420e+02
2.90084e-03,2.45136e+02
2.92943e-03,2.36185e+02
2.95830e-03,2.27555e+02
2.98746e-03,2.19235e+02
3.01691e-03,2.11214e+02
3.04665e-03,2.03481e+02
3.07667e-03,1.96025e+02
3.10700e-03,1.88838e+02
3.13762e-03,1.81908e+02
3.16855e-03,1.75228e+02
3.19978e-03,1.68787e+02
3.23132e-03,1.62579e+02
3.26317e-03,1.56593e+02
3.29533e-03,1.50823e+02
3.32781e-03,1.45261e+02
3.36062e-03,1.39898e+02
3.39374e-03,1.34729e+02
3.42719e-03,1.29746e+02
3.46097e-03,1.24942e+02
3.49508e-03,1.20311e+02
3.52953e-03,1.15847e+02
3.56432e-03,1.11544e+02
3.59945e-03,1.07395e+02
3.63493e-03,1.03397e+02
3.67076e-03,9.95423e+01
3.70694e-03,9.58267e+01
3.74348e-03,9.22451e+01
3.78038e-03,8.87927e+01
3.81764e-03,8.54648e+01
3.85527e-03,8.22570e+01
3.89327e-03,7.91649e+01
3.93164e-03,7.61844e+01
3.97039e-03,7.33114e+01
4.00953e-03,7.05422e+01
4.04905e-03,6.78730e+01
4.08896e-03,6.53001e+01
4.12926e-03,6.28202e+01
4.16996e-03,6.04298e+01
4.21106e-03,5.81258e+01
4.25257e-03,5.59050e+01
4.29449e-03,5.37645e+01
4.33682e-03,5.17013e+01
4.37956e-03,4.97127e+01
4.42273e-03,4.77960e+01
4.46632e-03,4.59486e+01
4.51034e-03,4.41679e+01
4.55480e-03,4.24517e+01
4.59970e-03,4.07976e+01
4.64503e-03,3.92032e+01
4.69082e-03,3.76666e+01
4.73705e-03,3.61856e+01
4.78374e-03,3.47581e+01
4.83089e-03,3.33823e+01
4.87851e-03,3.20563e+01
4.92660e-03,3.07783e+01
4.97516e-03,2.95465e+01
5.02419e-03,2.83594e+01
5.07372e-03,2.72152e+01
5.12372e-03,2.61125e+01
5.17423e-03,2.50497e+01
5.22523e-03,2.40254e+01
5.27673e-03,2.30381e+01
5.32874e-03,2.20867e+01
5.38126e-03,2.11697e+01
5.43430e-03,2.02860e+01
5.48787e-03,1.94343e+01
5.54196e-03,1.86134e+01
5.59658e-03,1.78223e+01
5.65175e-03,1.70599e+01
5.70745e-03,1.63251e+01
5.76371e-03,1.56169e+01
5.82052e-03,1.49344e+01
5.87789e-03,1.42767e+01
5.93583e-03,1.36428e+01
5.99433e-03,1.30319e+01
6.05342e-03,1.24431e+01
6.11308e-03,1.18757e+01
6.17334e-03,1.13289e+01
6.23419e-03,1.08019e+01
6.29563e-03,1.02941e+01
6.35769e-03,9.80464e+00
6.42035e-03,9.33296e+00
6.48363e-03,8.87840e+00
6.54754e-03,8.44033e+00
6.61208e-03,8.01816e+00
6.67725e-03,7.61131e+00
6.74306e-03,7.21923e+00
6.80953e-03,6.84138e+00
6.87665e-03,6.47724e+00
6.94443e-03,6.12632e+00
7.01287e-03,5.78815e+00
7.08200e-03,5.46225e+00
7.15180e-03,5.14818e+00
7.22229e-03,4.84552e+00
7.29348e-03,4.55385e+00
7.36537e-03,4.27277e+00
7.43797e-03,4.00189e+00
7.51128e-03,3.74086e+00
7.58531e-03,3.48931e+00
7.66008e-03,3.24689e+00
7.73558e-03,3.01328e+00
7.81183e-03,2.78815e+00
7.88883e-03,2.57121e+00
7.96658e-03,2.36214e+00
8.04511e-03,2.16067e+00
8.12440e-03,1.96652e+00
8.20448e-03,1.77943e+00
8.28535e-03,1.59913e+00
8.36702e-03,1.42539e+00
8.44949e-03,1.25796e+00
8.53277e-03,1.09661e+00
8.61687e-03,9.41129e-01
8.70181e-03,7.91298e-01
8.78757e-03,6.46913e-01
8.87419e-03,5.07776e-01
8.96166e-03,3.73697e-01
9.04999e-03,2.44491e-01
9.13919e-03,1.19982e-01
9.22927e-03,0.00000e+00
