m1=6219.468, m2=15.325, gsp=2.313, rhosp=9790.511
fGW[Hz],dPh[rad]
5.15207e-03,2.15006e+04
5.28111e-03,2.03854e+04
5.41338e-03,1.93276e+04
5.54897e-03,1.83242e+04
5.68795e-03,1.73725e+04
5.83041e-03,1.64698e+04
5.97644e-03,1.56136e+04
6.12613e-03,1.48015e+04
6.27957e-03,1.40312e+04
6.43685e-03,1.33007e+04
6.59807e-03,1.26078e+04
6.76333e-03,1.19506e+04
6.93272e-03,1.13273e+04
7.10636e-03,1.07362e+04
7.28435e-03,1.01755e+04
7.46680e-03,9.64384e+03
7.65381e-03,9.13960e+03
7.84552e-03,8.66140e+03
8.04202e-03,8.20790e+03
8.24344e-03,7.77784e+03
8.44991e-03,7.37001e+03
8.66155e-03,6.98328e+03
8.87849e-03,6.61654e+03
9.10086e-03,6.26879e+03
9.32881e-03,5.93904e+03
9.56246e-03,5.62637e+03
9.80196e-03,5.32990e+03
1.00475e-02,5.04880e+03
1.02991e-02,4.78228e+03
1.05571e-02,4.52958e+03
1.08215e-02,4.29000e+03
1.10925e-02,4.06286e+03
1.13704e-02,3.84753e+03
1.16551e-02,3.64338e+03
1.19471e-02,3.44986e+03
1.22463e-02,3.26641e+03
1.25530e-02,3.09251e+03
1.28674e-02,2.92767e+03
1.31897e-02,2.77143e+03
1.35201e-02,2.62333e+03
1.38587e-02,2.48297e+03
1.42058e-02,2.34995e+03
1.45616e-02,2.22387e+03
1.49263e-02,2.10439e+03
1.53002e-02,1.99117e+03
1.56834e-02,1.88388e+03
1.60762e-02,1.78222e+03
1.64789e-02,1.68589e+03
1.68916e-02,1.59463e+03
1.73147e-02,1.50816e+03
1.77483e-02,1.42624e+03
1.81929e-02,1.34864e+03
1.86485e-02,1.27513e+03
1.91156e-02,1.20550e+03
1.95944e-02,1.13955e+03
2.00852e-02,1.07709e+03
2.05882e-02,1.01794e+03
2.11039e-02,9.61923e+02
2.16324e-02,9.08880e+02
2.21743e-02,8.58657e+02
2.27296e-02,8.11107e+02
2.32989e-02,7.66092e+02
2.38825e-02,7.23478e+02
2.44807e-02,6.83142e+02
2.50938e-02,6.44966e+02
2.57223e-02,6.08835e+02
2.63666e-02,5.74644e+02
2.70270e-02,5.42292e+02
2.77039e-02,5.11683e+02
2.83978e-02,4.82725e+02
2.91090e-02,4.55333e+02
2.98381e-02,4.29424e+02
3.05855e-02,4.04920e+02
3.13515e-02,3.81749e+02
3.21368e-02,3.59839e+02
3.29417e-02,3.39126e+02
3.37667e-02,3.19545e+02
3.46125e-02,3.01038e+02
3.54794e-02,2.83548e+02
3.63680e-02,2.67020e+02
3.72789e-02,2.51405e+02
3.82126e-02,2.36654e+02
3.91697e-02,2.22721e+02
4.01507e-02,2.09563e+02
4.11564e-02,1.97139e+02
4.21872e-02,1.85409e+02
4.32438e-02,1.74338e+02
4.43269e-02,1.63888e+02
4.54372e-02,1.54029e+02
4.65752e-02,1.44726e+02
4.77417e-02,1.35952e+02
4.89375e-02,1.27677e+02
5.01632e-02,1.19875e+02
5.14196e-02,1.12520e+02
5.27075e-02,1.05588e+02
5.40276e-02,9.90559e+01
5.53808e-02,9.29020e+01
5.67679e-02,8.71058e+01
5.81897e-02,8.16478e+01
5.96472e-02,7.65094e+01
6.11411e-02,7.16731e+01
6.26725e-02,6.71223e+01
6.42422e-02,6.28412e+01
6.58512e-02,5.88149e+01
6.75006e-02,5.50292e+01
6.91912e-02,5.14708e+01
7.09242e-02,4.81269e+01
7.27006e-02,4.49855e+01
7.45215e-02,4.20352e+01
7.63880e-02,3.92653e+01
7.83012e-02,3.66653e+01
8.02624e-02,3.42258e+01
8.22727e-02,3.19376e+01
8.43333e-02,2.97918e+01
8.64456e-02,2.77804e+01
8.86107e-02,2.58955e+01
9.08301e-02,2.41299e+01
9.31051e-02,2.24764e+01
9.54370e-02,2.09286e+01
9.78274e-02,1.94802e+01
1.00278e-01,1.81253e+01
1.02789e-01,1.68584e+01
1.05364e-01,1.56741e+01
1.08003e-01,1.45675e+01
1.10708e-01,1.35339e+01
1.13481e-01,1.25689e+01
1.16323e-01,1.16682e+01
1.19236e-01,1.08279e+01
1.22223e-01,1.00443e+01
1.25284e-01,9.31372e+00
1.28422e-01,8.63299e+00
1.31638e-01,7.99891e+00
1.34935e-01,7.40853e+00
1.38315e-01,6.85906e+00
1.41779e-01,6.34787e+00
1.45330e-01,5.87250e+00
1.48970e-01,5.43061e+00
1.52702e-01,5.02002e+00
1.56526e-01,4.63867e+00
1.60447e-01,4.28461e+00
1.64465e-01,3.95604e+00
1.68585e-01,3.65124e+00
1.72807e-01,3.36861e+00
1.77135e-01,3.10664e+00
1.81572e-01,2.86392e+00
1.86119e-01,2.63913e+00
1.90781e-01,2.43102e+00
1.95559e-01,2.23844e+00
2.00458e-01,2.06029e+00
2.05478e-01,1.89557e+00
2.10625e-01,1.74331e+00
2.15900e-01,1.60263e+00
2.21308e-01,1.47270e+00
2.26851e-01,1.35274e+00
2.32532e-01,1.24202e+00
2.38356e-01,1.13988e+00
2.44326e-01,1.04568e+00
2.50446e-01,9.58830e-01
2.56719e-01,8.78793e-01
2.63149e-01,8.05058e-01
2.69739e-01,7.37150e-01
2.76495e-01,6.74630e-01
2.83421e-01,6.17089e-01
2.90519e-01,5.64149e-01
2.97796e-01,5.15455e-01
3.05255e-01,4.70683e-01
3.12900e-01,4.29527e-01
3.20737e-01,3.91708e-01
3.28770e-01,3.56964e-01
3.37005e-01,3.25056e-01
3.45446e-01,2.95759e-01
3.54098e-01,2.68867e-01
3.62967e-01,2.44189e-01
3.72058e-01,2.21548e-01
3.81376e-01,2.00783e-01
3.90928e-01,1.81741e-01
4.00720e-01,1.64284e-01
4.10756e-01,1.48284e-01
4.21044e-01,1.33623e-01
4.31590e-01,1.20191e-01
4.42400e-01,1.07889e-01
4.53480e-01,9.66224e-02
4.64838e-01,8.63073e-02
4.76481e-01,7.68649e-02
4.88415e-01,6.82230e-02
5.00648e-01,6.03153e-02
5.13187e-01,5.30806e-02
5.26041e-01,4.64628e-02
5.39216e-01,4.04103e-02
5.52722e-01,3.48758e-02
5.66565e-01,2.98156e-02
5.80756e-01,2.51898e-02
5.95302e-01,2.09618e-02
6.10212e-01,1.70979e-02
6.25495e-01,1.35672e-02
6.41162e-01,1.03415e-02
6.57221e-01,7.39469e-03
6.73682e-01,4.70308e-03
6.90555e-01,2.24484e-03
7.07851e-01,0.00000e+00
