m1=9508.059, m2=3.756, gsp=2.314, rhosp=32.408
fGW[Hz],dPh[rad]
7.84864e-03,3.29598e+04
8.01108e-03,3.14112e+04
8.17687e-03,2.99321e+04
8.34610e-03,2.85195e+04
8.51883e-03,2.71704e+04
8.69513e-03,2.58822e+04
8.87508e-03,2.46522e+04
9.05876e-03,2.34778e+04
9.24623e-03,2.23566e+04
9.43759e-03,2.12864e+04
9.63291e-03,2.02647e+04
9.83227e-03,1.92897e+04
1.00358e-02,1.83591e+04
1.02435e-02,1.74711e+04
1.04554e-02,1.66237e+04
1.06718e-02,1.58153e+04
1.08927e-02,1.50440e+04
1.11181e-02,1.43083e+04
1.13482e-02,1.36066e+04
1.15831e-02,1.29373e+04
1.18228e-02,1.22991e+04
1.20675e-02,1.16906e+04
1.23172e-02,1.11105e+04
1.25721e-02,1.05574e+04
1.28323e-02,1.00303e+04
1.30979e-02,9.52786e+03
1.33690e-02,9.04910e+03
1.36457e-02,8.59294e+03
1.39281e-02,8.15836e+03
1.42163e-02,7.74439e+03
1.45105e-02,7.35012e+03
1.48108e-02,6.97466e+03
1.51173e-02,6.61717e+03
1.54302e-02,6.27682e+03
1.57496e-02,5.95286e+03
1.60755e-02,5.64453e+03
1.64082e-02,5.35113e+03
1.67478e-02,5.07199e+03
1.70944e-02,4.80644e+03
1.74482e-02,4.55388e+03
1.78093e-02,4.31371e+03
1.81778e-02,4.08535e+03
1.85540e-02,3.86828e+03
1.89380e-02,3.66196e+03
1.93300e-02,3.46590e+03
1.97300e-02,3.27962e+03
2.01383e-02,3.10268e+03
2.05551e-02,2.93463e+03
2.09805e-02,2.77506e+03
2.14147e-02,2.62357e+03
2.18579e-02,2.47979e+03
2.23103e-02,2.34335e+03
2.27720e-02,2.21390e+03
2.32433e-02,2.09111e+03
2.37243e-02,1.97466e+03
2.42153e-02,1.86426e+03
2.47165e-02,1.75960e+03
2.52280e-02,1.66042e+03
2.57501e-02,1.56645e+03
2.62830e-02,1.47744e+03
2.68270e-02,1.39314e+03
2.73822e-02,1.31332e+03
2.79489e-02,1.23777e+03
2.85273e-02,1.16628e+03
2.91177e-02,1.09864e+03
2.97203e-02,1.03466e+03
3.03354e-02,9.74161e+02
3.09632e-02,9.16967e+02
3.16040e-02,8.62913e+02
3.22580e-02,8.11838e+02
3.29256e-02,7.63591e+02
3.36071e-02,7.18029e+02
3.43026e-02,6.75013e+02
3.50125e-02,6.34412e+02
3.57371e-02,5.96101e+02
3.64767e-02,5.59960e+02
3.72316e-02,5.25877e+02
3.80022e-02,4.93742e+02
3.87886e-02,4.63453e+02
3.95914e-02,4.34913e+02
4.04108e-02,4.08026e+02
4.12471e-02,3.82706e+02
4.21007e-02,3.58867e+02
4.29720e-02,3.36429e+02
4.38614e-02,3.15315e+02
4.47691e-02,2.95453e+02
4.56956e-02,2.76775e+02
4.66413e-02,2.59214e+02
4.76066e-02,2.42708e+02
4.85919e-02,2.27199e+02
4.95975e-02,2.12629e+02
5.06240e-02,1.98947e+02
5.16717e-02,1.86102e+02
5.27410e-02,1.74045e+02
5.38326e-02,1.62731e+02
5.49467e-02,1.52119e+02
5.60838e-02,1.42166e+02
5.72445e-02,1.32834e+02
5.84292e-02,1.24088e+02
5.96385e-02,1.15892e+02
6.08727e-02,1.08214e+02
6.21325e-02,1.01023e+02
6.34184e-02,9.42893e+01
6.47309e-02,8.79865e+01
6.60705e-02,8.20880e+01
6.74379e-02,7.65693e+01
6.88336e-02,7.14073e+01
7.02581e-02,6.65800e+01
7.17122e-02,6.20669e+01
7.31963e-02,5.78486e+01
7.47112e-02,5.39067e+01
7.62574e-02,5.02240e+01
7.78356e-02,4.67843e+01
7.94464e-02,4.35721e+01
8.10906e-02,4.05733e+01
8.27689e-02,3.77741e+01
8.44818e-02,3.51619e+01
8.62302e-02,3.27247e+01
8.80148e-02,3.04513e+01
8.98363e-02,2.83310e+01
9.16956e-02,2.63541e+01
9.35933e-02,2.45111e+01
9.55302e-02,2.27933e+01
9.75073e-02,2.11925e+01
9.95253e-02,1.97011e+01
1.01585e-01,1.83118e+01
1.03687e-01,1.70178e+01
1.05833e-01,1.58129e+01
1.08024e-01,1.46910e+01
1.10259e-01,1.36467e+01
1.12541e-01,1.26747e+01
1.14870e-01,1.17703e+01
1.17248e-01,1.09287e+01
1.19674e-01,1.01458e+01
1.22151e-01,9.41765e+00
1.24679e-01,8.74043e+00
1.27259e-01,8.11071e+00
1.29893e-01,7.52523e+00
1.32581e-01,6.98097e+00
1.35325e-01,6.47508e+00
1.38126e-01,6.00493e+00
1.40984e-01,5.56805e+00
1.43902e-01,5.16213e+00
1.46880e-01,4.78503e+00
1.49920e-01,4.43474e+00
1.53023e-01,4.10939e+00
1.56189e-01,3.80724e+00
1.59422e-01,3.52666e+00
1.62721e-01,3.26615e+00
1.66089e-01,3.02430e+00
1.69526e-01,2.79979e+00
1.73035e-01,2.59139e+00
1.76616e-01,2.39798e+00
1.80271e-01,2.21848e+00
1.84002e-01,2.05192e+00
1.87810e-01,1.89737e+00
1.91697e-01,1.75398e+00
1.95664e-01,1.62096e+00
1.99713e-01,1.49756e+00
2.03847e-01,1.38310e+00
2.08065e-01,1.27694e+00
2.12371e-01,1.17849e+00
2.16766e-01,1.08719e+00
2.21253e-01,1.00252e+00
2.25832e-01,9.24022e-01
2.30505e-01,8.51237e-01
2.35276e-01,7.83757e-01
2.40145e-01,7.21199e-01
2.45115e-01,6.63209e-01
2.50188e-01,6.09455e-01
2.55366e-01,5.59632e-01
2.60651e-01,5.13453e-01
2.66045e-01,4.70656e-01
2.71551e-01,4.30993e-01
2.77171e-01,3.94238e-01
2.82907e-01,3.60179e-01
2.88762e-01,3.28620e-01
2.94738e-01,2.99378e-01
3.00838e-01,2.72285e-01
3.07064e-01,2.47184e-01
3.13419e-01,2.23929e-01
3.19905e-01,2.02385e-01
3.26526e-01,1.82427e-01
3.33284e-01,1.63940e-01
3.40181e-01,1.46815e-01
3.47221e-01,1.30953e-01
3.54407e-01,1.16261e-01
3.61742e-01,1.02653e-01
3.69229e-01,9.00492e-02
3.76870e-01,7.83765e-02
3.84670e-01,6.75662e-02
3.92631e-01,5.75548e-02
4.00756e-01,4.82835e-02
4.09050e-01,3.96979e-02
4.17516e-01,3.17475e-02
4.26157e-01,2.43855e-02
4.34976e-01,1.75685e-02
4.43978e-01,1.12563e-02
4.53167e-01,5.41161e-03
4.62546e-01,0.00000e+00
