m1=28400.685, m2=35.143, gsp=2.310, rhosp=7150.835
fGW[Hz],dPh[rad]
2.58141e-03,2.23103e+04
2.63508e-03,2.13030e+04
2.68986e-03,2.03399e+04
2.74577e-03,1.94191e+04
2.80286e-03,1.85388e+04
2.86112e-03,1.76972e+04
2.92060e-03,1.68927e+04
2.98132e-03,1.61236e+04
3.04330e-03,1.53885e+04
3.10656e-03,1.46858e+04
3.17115e-03,1.40141e+04
3.23707e-03,1.33722e+04
3.30436e-03,1.27587e+04
3.37306e-03,1.21723e+04
3.44318e-03,1.16120e+04
3.51476e-03,1.10766e+04
3.58783e-03,1.05649e+04
3.66241e-03,1.00760e+04
3.73855e-03,9.60888e+03
3.81627e-03,9.16259e+03
3.89561e-03,8.73623e+03
3.97659e-03,8.32892e+03
4.05926e-03,7.93984e+03
4.14365e-03,7.56819e+03
4.22979e-03,7.21322e+03
4.31772e-03,6.87420e+03
4.40748e-03,6.55042e+03
4.49911e-03,6.24123e+03
4.59264e-03,5.94599e+03
4.68811e-03,5.66409e+03
4.78557e-03,5.39495e+03
4.88506e-03,5.13800e+03
4.98662e-03,4.89271e+03
5.09028e-03,4.65858e+03
5.19610e-03,4.43511e+03
5.30412e-03,4.22183e+03
5.41439e-03,4.01830e+03
5.52695e-03,3.82408e+03
5.64185e-03,3.63878e+03
5.75913e-03,3.46198e+03
5.87886e-03,3.29333e+03
6.00107e-03,3.13245e+03
6.12583e-03,2.97902e+03
6.25318e-03,2.83269e+03
6.38317e-03,2.69315e+03
6.51587e-03,2.56010e+03
6.65133e-03,2.43325e+03
6.78960e-03,2.31233e+03
6.93075e-03,2.19707e+03
7.07483e-03,2.08723e+03
7.22191e-03,1.98255e+03
7.37204e-03,1.88281e+03
7.52530e-03,1.78779e+03
7.68174e-03,1.69727e+03
7.84144e-03,1.61106e+03
8.00445e-03,1.52895e+03
8.17085e-03,1.45077e+03
8.34071e-03,1.37634e+03
8.51411e-03,1.30548e+03
8.69111e-03,1.23804e+03
8.87178e-03,1.17386e+03
9.05622e-03,1.11280e+03
9.24448e-03,1.05470e+03
9.43667e-03,9.99440e+02
9.63284e-03,9.46884e+02
9.83310e-03,8.96910e+02
1.00375e-02,8.49398e+02
1.02462e-02,8.04235e+02
1.04592e-02,7.61312e+02
1.06766e-02,7.20526e+02
1.08986e-02,6.81778e+02
1.11251e-02,6.44973e+02
1.13564e-02,6.10019e+02
1.15925e-02,5.76831e+02
1.18335e-02,5.45325e+02
1.20795e-02,5.15423e+02
1.23306e-02,4.87048e+02
1.25870e-02,4.60128e+02
1.28486e-02,4.34594e+02
1.31157e-02,4.10380e+02
1.33884e-02,3.87422e+02
1.36667e-02,3.65661e+02
1.39508e-02,3.45038e+02
1.42409e-02,3.25499e+02
1.45369e-02,3.06991e+02
1.48391e-02,2.89464e+02
1.51476e-02,2.72870e+02
1.54625e-02,2.57162e+02
1.57840e-02,2.42298e+02
1.61121e-02,2.28235e+02
1.64470e-02,2.14933e+02
1.67890e-02,2.02355e+02
1.71380e-02,1.90465e+02
1.74943e-02,1.79227e+02
1.78579e-02,1.68608e+02
1.82292e-02,1.58578e+02
1.86081e-02,1.49106e+02
1.89950e-02,1.40163e+02
1.93899e-02,1.31722e+02
1.97930e-02,1.23758e+02
2.02044e-02,1.16244e+02
2.06245e-02,1.09159e+02
2.10532e-02,1.02478e+02
2.14909e-02,9.61817e+01
2.19377e-02,9.02486e+01
2.23937e-02,8.46594e+01
2.28593e-02,7.93958e+01
2.33345e-02,7.44403e+01
2.38196e-02,6.97760e+01
2.43147e-02,6.53872e+01
2.48202e-02,6.12587e+01
2.53362e-02,5.73762e+01
2.58629e-02,5.37262e+01
2.64006e-02,5.02955e+01
2.69494e-02,4.70721e+01
2.75097e-02,4.40441e+01
2.80815e-02,4.12007e+01
2.86653e-02,3.85312e+01
2.92612e-02,3.60258e+01
2.98696e-02,3.36749e+01
3.04905e-02,3.14698e+01
3.11244e-02,2.94019e+01
3.17714e-02,2.74633e+01
3.24319e-02,2.56463e+01
3.31061e-02,2.39437e+01
3.37943e-02,2.23489e+01
3.44969e-02,2.08554e+01
3.52140e-02,1.94570e+01
3.59461e-02,1.81482e+01
3.66934e-02,1.69235e+01
3.74562e-02,1.57777e+01
3.82349e-02,1.47061e+01
3.90297e-02,1.37041e+01
3.98411e-02,1.27675e+01
4.06693e-02,1.18921e+01
4.15148e-02,1.10742e+01
4.23779e-02,1.03101e+01
4.32588e-02,9.59661e+00
4.41581e-02,8.93039e+00
4.50761e-02,8.30849e+00
4.60132e-02,7.72810e+00
4.69698e-02,7.18656e+00
4.79462e-02,6.68139e+00
4.89430e-02,6.21024e+00
4.99604e-02,5.77092e+00
5.09990e-02,5.36136e+00
5.20592e-02,4.97962e+00
5.31415e-02,4.62389e+00
5.42462e-02,4.29245e+00
5.53740e-02,3.98371e+00
5.65251e-02,3.69617e+00
5.77002e-02,3.42843e+00
5.88997e-02,3.17916e+00
6.01242e-02,2.94713e+00
6.13741e-02,2.73118e+00
6.26500e-02,2.53025e+00
6.39524e-02,2.34330e+00
6.52819e-02,2.16941e+00
6.66390e-02,2.00768e+00
6.80244e-02,1.85728e+00
6.94385e-02,1.71745e+00
7.08821e-02,1.58746e+00
7.23556e-02,1.46664e+00
7.38598e-02,1.35434e+00
7.53952e-02,1.25000e+00
7.69626e-02,1.15305e+00
7.85626e-02,1.06299e+00
8.01958e-02,9.79338e-01
8.18630e-02,9.01644e-01
8.35648e-02,8.29495e-01
8.53020e-02,7.62503e-01
8.70754e-02,7.00307e-01
8.88855e-02,6.42570e-01
9.07334e-02,5.88977e-01
9.26196e-02,5.39238e-01
9.45451e-02,4.93080e-01
9.65105e-02,4.50249e-01
9.85169e-02,4.10509e-01
1.00565e-01,3.73641e-01
1.02656e-01,3.39440e-01
1.04790e-01,3.07717e-01
1.06968e-01,2.78294e-01
1.09192e-01,2.51008e-01
1.11462e-01,2.25704e-01
1.13779e-01,2.02241e-01
1.16144e-01,1.80487e-01
1.18559e-01,1.60319e-01
1.21023e-01,1.41622e-01
1.23539e-01,1.24290e-01
1.26108e-01,1.08226e-01
1.28729e-01,9.33363e-02
1.31405e-01,7.95371e-02
1.34137e-01,6.67491e-02
1.36926e-01,5.48988e-02
1.39772e-01,4.39183e-02
1.42678e-01,3.37442e-02
1.45644e-01,2.43179e-02
1.48672e-01,1.55848e-02
1.51762e-01,7.49450e-03
1.54917e-01,0.00000e+00
