m1=36565.438, m2=3.258, gsp=2.464, rhosp=44.249
fGW[Hz],dPh[rad]
5.91134e-03,6.06526e+05
6.00151e-03,5.78726e+05
6.09307e-03,5.52127e+05
6.18601e-03,5.26681e+05
6.28038e-03,5.02342e+05
6.37618e-03,4.79066e+05
6.47345e-03,4.56809e+05
6.57220e-03,4.35531e+05
6.67246e-03,4.15191e+05
6.77424e-03,3.95750e+05
6.87758e-03,3.77172e+05
6.98250e-03,3.59422e+05
7.08901e-03,3.42465e+05
7.19715e-03,3.26267e+05
7.30694e-03,3.10798e+05
7.41841e-03,2.96026e+05
7.53157e-03,2.81923e+05
7.64647e-03,2.68460e+05
7.76311e-03,2.55609e+05
7.88153e-03,2.43346e+05
8.00176e-03,2.31644e+05
8.12383e-03,2.20479e+05
8.24775e-03,2.09829e+05
8.37357e-03,1.99671e+05
8.50131e-03,1.89984e+05
8.63099e-03,1.80747e+05
8.76265e-03,1.71940e+05
8.89633e-03,1.63545e+05
9.03204e-03,1.55544e+05
9.16982e-03,1.47918e+05
9.30970e-03,1.40652e+05
9.45172e-03,1.33729e+05
9.59590e-03,1.27134e+05
9.74228e-03,1.20852e+05
9.89090e-03,1.14869e+05
1.00418e-02,1.09171e+05
1.01950e-02,1.03747e+05
1.03505e-02,9.85824e+04
1.05084e-02,9.36663e+04
1.06687e-02,8.89872e+04
1.08314e-02,8.45342e+04
1.09967e-02,8.02968e+04
1.11644e-02,7.62650e+04
1.13347e-02,7.24294e+04
1.15076e-02,6.87808e+04
1.16832e-02,6.53105e+04
1.18614e-02,6.20101e+04
1.20423e-02,5.88717e+04
1.22260e-02,5.58876e+04
1.24125e-02,5.30505e+04
1.26019e-02,5.03536e+04
1.27941e-02,4.77900e+04
1.29893e-02,4.53535e+04
1.31874e-02,4.30380e+04
1.33886e-02,4.08378e+04
1.35928e-02,3.87472e+04
1.38002e-02,3.67610e+04
1.40107e-02,3.48742e+04
1.42244e-02,3.30819e+04
1.44414e-02,3.13797e+04
1.46617e-02,2.97630e+04
1.48854e-02,2.82278e+04
1.51125e-02,2.67700e+04
1.53430e-02,2.53860e+04
1.55771e-02,2.40719e+04
1.58147e-02,2.28245e+04
1.60559e-02,2.16404e+04
1.63009e-02,2.05166e+04
1.65495e-02,1.94499e+04
1.68020e-02,1.84377e+04
1.70583e-02,1.74771e+04
1.73185e-02,1.65657e+04
1.75827e-02,1.57010e+04
1.78509e-02,1.48805e+04
1.81232e-02,1.41022e+04
1.83997e-02,1.33640e+04
1.86804e-02,1.26637e+04
1.89653e-02,1.19995e+04
1.92546e-02,1.13696e+04
1.95484e-02,1.07722e+04
1.98466e-02,1.02057e+04
2.01493e-02,9.66851e+03
2.04567e-02,9.15919e+03
2.07687e-02,8.67630e+03
2.10856e-02,8.21848e+03
2.14072e-02,7.78448e+03
2.17338e-02,7.37306e+03
2.20653e-02,6.98308e+03
2.24019e-02,6.61343e+03
2.27436e-02,6.26309e+03
2.30906e-02,5.93104e+03
2.34428e-02,5.61637e+03
2.38004e-02,5.31816e+03
2.41635e-02,5.03557e+03
2.45321e-02,4.76781e+03
2.49063e-02,4.51409e+03
2.52863e-02,4.27370e+03
2.56720e-02,4.04595e+03
2.60636e-02,3.83017e+03
2.64612e-02,3.62576e+03
2.68649e-02,3.43211e+03
2.72747e-02,3.24868e+03
2.76908e-02,3.07492e+03
2.81132e-02,2.91033e+03
2.85420e-02,2.75444e+03
2.89774e-02,2.60679e+03
2.94195e-02,2.46696e+03
2.98683e-02,2.33452e+03
3.03239e-02,2.20910e+03
3.07865e-02,2.09033e+03
3.12561e-02,1.97785e+03
3.17329e-02,1.87135e+03
3.22170e-02,1.77050e+03
3.27084e-02,1.67500e+03
3.32074e-02,1.58459e+03
3.37140e-02,1.49898e+03
3.42283e-02,1.41792e+03
3.47504e-02,1.34118e+03
3.52805e-02,1.26853e+03
3.58187e-02,1.19975e+03
3.63651e-02,1.13463e+03
3.69198e-02,1.07299e+03
3.74830e-02,1.01464e+03
3.80548e-02,9.59403e+02
3.86353e-02,9.07116e+02
3.92247e-02,8.57622e+02
3.98231e-02,8.10774e+02
4.04306e-02,7.66431e+02
4.10473e-02,7.24460e+02
4.16735e-02,6.84735e+02
4.23092e-02,6.47137e+02
4.29546e-02,6.11552e+02
4.36099e-02,5.77873e+02
4.42751e-02,5.46000e+02
4.49505e-02,5.15835e+02
4.56362e-02,4.87287e+02
4.63324e-02,4.60271e+02
4.70392e-02,4.34705e+02
4.77567e-02,4.10511e+02
4.84853e-02,3.87616e+02
4.92249e-02,3.65951e+02
4.99758e-02,3.45449e+02
5.07382e-02,3.26050e+02
5.15121e-02,3.07693e+02
5.22979e-02,2.90323e+02
5.30957e-02,2.73887e+02
5.39057e-02,2.58336e+02
5.47280e-02,2.43621e+02
5.55629e-02,2.29699e+02
5.64105e-02,2.16525e+02
5.72710e-02,2.04061e+02
5.81446e-02,1.92269e+02
5.90316e-02,1.81112e+02
5.99321e-02,1.70556e+02
6.08464e-02,1.60568e+02
6.17745e-02,1.51119e+02
6.27169e-02,1.42180e+02
6.36736e-02,1.33723e+02
6.46449e-02,1.25722e+02
6.56311e-02,1.18152e+02
6.66323e-02,1.10991e+02
6.76487e-02,1.04216e+02
6.86807e-02,9.78071e+01
6.97284e-02,9.17440e+01
7.07920e-02,8.60083e+01
7.18720e-02,8.05823e+01
7.29683e-02,7.54494e+01
7.40814e-02,7.05937e+01
7.52115e-02,6.60004e+01
7.63589e-02,6.16553e+01
7.75237e-02,5.75449e+01
7.87063e-02,5.36568e+01
7.99069e-02,4.99788e+01
8.11259e-02,4.64996e+01
8.23634e-02,4.32086e+01
8.36198e-02,4.00955e+01
8.48954e-02,3.71508e+01
8.61905e-02,3.43654e+01
8.75053e-02,3.17306e+01
8.88402e-02,2.92384e+01
9.01954e-02,2.68810e+01
9.15713e-02,2.46512e+01
9.29682e-02,2.25421e+01
9.43864e-02,2.05471e+01
9.58262e-02,1.86601e+01
9.72880e-02,1.68753e+01
9.87721e-02,1.51870e+01
1.00279e-01,1.35902e+01
1.01809e-01,1.20799e+01
1.03362e-01,1.06514e+01
1.04938e-01,9.30019e+00
1.06539e-01,8.02220e+00
1.08164e-01,6.81343e+00
1.09814e-01,5.67015e+00
1.11490e-01,4.58880e+00
1.13190e-01,3.56604e+00
1.14917e-01,2.59870e+00
1.16670e-01,1.68378e+00
1.18450e-01,8.18442e-01
1.20257e-01,0.00000e+00
