m1=302978.533, m2=29.720, gsp=2.215, rhosp=328.912
fGW[Hz],dPh[rad]
1.52080e-03,2.15901e+03
1.53814e-03,2.07340e+03
1.55567e-03,1.99110e+03
1.57341e-03,1.91196e+03
1.59135e-03,1.83589e+03
1.60949e-03,1.76276e+03
1.62784e-03,1.69246e+03
1.64639e-03,1.62489e+03
1.66516e-03,1.55995e+03
1.68415e-03,1.49753e+03
1.70335e-03,1.43755e+03
1.72277e-03,1.37991e+03
1.74241e-03,1.32452e+03
1.76227e-03,1.27130e+03
1.78236e-03,1.22017e+03
1.80268e-03,1.17104e+03
1.82323e-03,1.12384e+03
1.84402e-03,1.07851e+03
1.86504e-03,1.03496e+03
1.88630e-03,9.93123e+02
1.90781e-03,9.52944e+02
1.92956e-03,9.14354e+02
1.95155e-03,8.77293e+02
1.97380e-03,8.41701e+02
1.99630e-03,8.07523e+02
2.01906e-03,7.74704e+02
2.04208e-03,7.43191e+02
2.06536e-03,7.12933e+02
2.08891e-03,6.83883e+02
2.11272e-03,6.55993e+02
2.13681e-03,6.29218e+02
2.16117e-03,6.03515e+02
2.18581e-03,5.78842e+02
2.21072e-03,5.55159e+02
2.23593e-03,5.32427e+02
2.26142e-03,5.10608e+02
2.28720e-03,4.89668e+02
2.31327e-03,4.69571e+02
2.33965e-03,4.50284e+02
2.36632e-03,4.31776e+02
2.39330e-03,4.14016e+02
2.42058e-03,3.96973e+02
2.44818e-03,3.80621e+02
2.47609e-03,3.64931e+02
2.50431e-03,3.49877e+02
2.53286e-03,3.35435e+02
2.56174e-03,3.21579e+02
2.59094e-03,3.08286e+02
2.62048e-03,2.95534e+02
2.65036e-03,2.83302e+02
2.68057e-03,2.71568e+02
2.71113e-03,2.60313e+02
2.74204e-03,2.49517e+02
2.77330e-03,2.39163e+02
2.80492e-03,2.29232e+02
2.83689e-03,2.19707e+02
2.86923e-03,2.10573e+02
2.90195e-03,2.01813e+02
2.93503e-03,1.93412e+02
2.96849e-03,1.85356e+02
3.00233e-03,1.77631e+02
3.03656e-03,1.70223e+02
3.07118e-03,1.63121e+02
3.10619e-03,1.56310e+02
3.14160e-03,1.49780e+02
3.17742e-03,1.43519e+02
3.21364e-03,1.37516e+02
3.25028e-03,1.31762e+02
3.28733e-03,1.26244e+02
3.32481e-03,1.20955e+02
3.36271e-03,1.15884e+02
3.40105e-03,1.11023e+02
3.43982e-03,1.06364e+02
3.47904e-03,1.01897e+02
3.51870e-03,9.76154e+01
3.55881e-03,9.35114e+01
3.59938e-03,8.95776e+01
3.64042e-03,8.58070e+01
3.68192e-03,8.21931e+01
3.72390e-03,7.87294e+01
3.76635e-03,7.54096e+01
3.80929e-03,7.22280e+01
3.85271e-03,6.91787e+01
3.89664e-03,6.62564e+01
3.94106e-03,6.34558e+01
3.98599e-03,6.07720e+01
4.03143e-03,5.82000e+01
4.07739e-03,5.57354e+01
4.12387e-03,5.33736e+01
4.17089e-03,5.11104e+01
4.21844e-03,4.89417e+01
4.26653e-03,4.68636e+01
4.31517e-03,4.48725e+01
4.36436e-03,4.29646e+01
4.41412e-03,4.11365e+01
4.46444e-03,3.93849e+01
4.51534e-03,3.77067e+01
4.56681e-03,3.60988e+01
4.61888e-03,3.45582e+01
4.67153e-03,3.30822e+01
4.72479e-03,3.16682e+01
4.77866e-03,3.03134e+01
4.83313e-03,2.90155e+01
4.88823e-03,2.77721e+01
4.94396e-03,2.65808e+01
5.00032e-03,2.54397e+01
5.05733e-03,2.43465e+01
5.11499e-03,2.32992e+01
5.17330e-03,2.22960e+01
5.23228e-03,2.13349e+01
5.29193e-03,2.04143e+01
5.35226e-03,1.95325e+01
5.41327e-03,1.86877e+01
5.47499e-03,1.78786e+01
5.53740e-03,1.71035e+01
5.60053e-03,1.63611e+01
5.66438e-03,1.56500e+01
5.72896e-03,1.49688e+01
5.79427e-03,1.43164e+01
5.86032e-03,1.36915e+01
5.92713e-03,1.30929e+01
5.99471e-03,1.25197e+01
6.06305e-03,1.19706e+01
6.13217e-03,1.14447e+01
6.20208e-03,1.09410e+01
6.27278e-03,1.04586e+01
6.34430e-03,9.99654e+00
6.41662e-03,9.55404e+00
6.48977e-03,9.13024e+00
6.56376e-03,8.72435e+00
6.63859e-03,8.33564e+00
6.71427e-03,7.96336e+00
6.79082e-03,7.60683e+00
6.86823e-03,7.26539e+00
6.94654e-03,6.93841e+00
7.02573e-03,6.62526e+00
7.10582e-03,6.32537e+00
7.18683e-03,6.03818e+00
7.26877e-03,5.76316e+00
7.35163e-03,5.49978e+00
7.43544e-03,5.24757e+00
7.52021e-03,5.00604e+00
7.60594e-03,4.77475e+00
7.69265e-03,4.55327e+00
7.78035e-03,4.34117e+00
7.86905e-03,4.13807e+00
7.95876e-03,3.94359e+00
8.04949e-03,3.75735e+00
8.14126e-03,3.57902e+00
8.23407e-03,3.40825e+00
8.32795e-03,3.24473e+00
8.42289e-03,3.08816e+00
8.51891e-03,2.93822e+00
8.61603e-03,2.79466e+00
8.71426e-03,2.65719e+00
8.81360e-03,2.52556e+00
8.91408e-03,2.39952e+00
9.01570e-03,2.27883e+00
9.11849e-03,2.16327e+00
9.22244e-03,2.05262e+00
9.32758e-03,1.94668e+00
9.43392e-03,1.84523e+00
9.54147e-03,1.74810e+00
9.65024e-03,1.65510e+00
9.76026e-03,1.56605e+00
9.87153e-03,1.48079e+00
9.98407e-03,1.39916e+00
1.00979e-02,1.32099e+00
1.02130e-02,1.24615e+00
1.03294e-02,1.17450e+00
1.04472e-02,1.10589e+00
1.05663e-02,1.04020e+00
1.06868e-02,9.77311e-01
1.08086e-02,9.17095e-01
1.09318e-02,8.59442e-01
1.10564e-02,8.04243e-01
1.11825e-02,7.51393e-01
1.13100e-02,7.00794e-01
1.14389e-02,6.52349e-01
1.15693e-02,6.05967e-01
1.17012e-02,5.61559e-01
1.18346e-02,5.19044e-01
1.19695e-02,4.78338e-01
1.21060e-02,4.39367e-01
1.22440e-02,4.02056e-01
1.23836e-02,3.66334e-01
1.25248e-02,3.32134e-01
1.26676e-02,2.99391e-01
1.28120e-02,2.68044e-01
1.29580e-02,2.38032e-01
1.31058e-02,2.09300e-01
1.32552e-02,1.81791e-01
1.34063e-02,1.55456e-01
1.35591e-02,1.30243e-01
1.37137e-02,1.06104e-01
1.38700e-02,8.29952e-02
1.40282e-02,6.08712e-02
1.41881e-02,3.96905e-02
1.43498e-02,1.94129e-02
1.45134e-02,0.00000e+00
