m1=269820.285, m2=10.619, gsp=2.354, rhosp=492.679
fGW[Hz],dPh[rad]
2.30283e-03,2.31911e+04
2.32558e-03,2.23693e+04
2.34857e-03,2.15762e+04
2.37177e-03,2.08110e+04
2.39521e-03,2.00727e+04
2.41888e-03,1.93602e+04
2.44278e-03,1.86727e+04
2.46692e-03,1.80094e+04
2.49130e-03,1.73694e+04
2.51592e-03,1.67520e+04
2.54078e-03,1.61562e+04
2.56589e-03,1.55814e+04
2.59124e-03,1.50268e+04
2.61685e-03,1.44918e+04
2.64271e-03,1.39757e+04
2.66882e-03,1.34777e+04
2.69519e-03,1.29973e+04
2.72183e-03,1.25339e+04
2.74872e-03,1.20868e+04
2.77588e-03,1.16556e+04
2.80332e-03,1.12395e+04
2.83102e-03,1.08382e+04
2.85899e-03,1.04511e+04
2.88724e-03,1.00777e+04
2.91578e-03,9.71749e+03
2.94459e-03,9.37005e+03
2.97369e-03,9.03491e+03
3.00307e-03,8.71166e+03
3.03275e-03,8.39987e+03
3.06272e-03,8.09914e+03
3.09298e-03,7.80908e+03
3.12354e-03,7.52931e+03
3.15441e-03,7.25948e+03
3.18558e-03,6.99924e+03
3.21706e-03,6.74824e+03
3.24885e-03,6.50617e+03
3.28095e-03,6.27271e+03
3.31338e-03,6.04755e+03
3.34612e-03,5.83040e+03
3.37918e-03,5.62098e+03
3.41258e-03,5.41902e+03
3.44630e-03,5.22425e+03
3.48035e-03,5.03642e+03
3.51475e-03,4.85529e+03
3.54948e-03,4.68062e+03
3.58455e-03,4.51217e+03
3.61997e-03,4.34973e+03
3.65575e-03,4.19309e+03
3.69187e-03,4.04204e+03
3.72835e-03,3.89638e+03
3.76520e-03,3.75593e+03
3.80240e-03,3.62049e+03
3.83998e-03,3.48989e+03
3.87792e-03,3.36396e+03
3.91624e-03,3.24253e+03
3.95494e-03,3.12544e+03
3.99402e-03,3.01255e+03
4.03349e-03,2.90369e+03
4.07335e-03,2.79872e+03
4.11360e-03,2.69752e+03
4.15425e-03,2.59994e+03
4.19530e-03,2.50585e+03
4.23676e-03,2.41513e+03
4.27862e-03,2.32766e+03
4.32091e-03,2.24333e+03
4.36360e-03,2.16202e+03
4.40672e-03,2.08362e+03
4.45027e-03,2.00804e+03
4.49425e-03,1.93517e+03
4.53866e-03,1.86491e+03
4.58351e-03,1.79717e+03
4.62880e-03,1.73186e+03
4.67454e-03,1.66890e+03
4.72073e-03,1.60820e+03
4.76738e-03,1.54968e+03
4.81449e-03,1.49326e+03
4.86207e-03,1.43886e+03
4.91011e-03,1.38642e+03
4.95863e-03,1.33587e+03
5.00763e-03,1.28713e+03
5.05712e-03,1.24015e+03
5.10709e-03,1.19485e+03
5.15756e-03,1.15118e+03
5.20852e-03,1.10909e+03
5.25999e-03,1.06850e+03
5.31197e-03,1.02938e+03
5.36446e-03,9.91666e+02
5.41747e-03,9.55309e+02
5.47101e-03,9.20260e+02
5.52507e-03,8.86473e+02
5.57967e-03,8.53903e+02
5.63480e-03,8.22505e+02
5.69048e-03,7.92238e+02
5.74672e-03,7.63062e+02
5.80350e-03,7.34936e+02
5.86085e-03,7.07824e+02
5.91877e-03,6.81689e+02
5.97726e-03,6.56496e+02
6.03632e-03,6.32211e+02
6.09597e-03,6.08801e+02
6.15621e-03,5.86235e+02
6.21704e-03,5.64483e+02
6.27848e-03,5.43516e+02
6.34052e-03,5.23305e+02
6.40318e-03,5.03823e+02
6.46645e-03,4.85043e+02
6.53035e-03,4.66941e+02
6.59488e-03,4.49493e+02
6.66005e-03,4.32674e+02
6.72586e-03,4.16462e+02
6.79233e-03,4.00835e+02
6.85945e-03,3.85773e+02
6.92723e-03,3.71254e+02
6.99568e-03,3.57259e+02
7.06481e-03,3.43770e+02
7.13462e-03,3.30768e+02
7.20513e-03,3.18235e+02
7.27633e-03,3.06156e+02
7.34823e-03,2.94512e+02
7.42084e-03,2.83290e+02
7.49417e-03,2.72472e+02
7.56823e-03,2.62046e+02
7.64302e-03,2.51996e+02
7.71854e-03,2.42310e+02
7.79481e-03,2.32974e+02
7.87184e-03,2.23975e+02
7.94963e-03,2.15301e+02
8.02818e-03,2.06942e+02
8.10752e-03,1.98884e+02
8.18763e-03,1.91118e+02
8.26854e-03,1.83632e+02
8.35025e-03,1.76417e+02
8.43276e-03,1.69464e+02
8.51609e-03,1.62761e+02
8.60025e-03,1.56301e+02
8.68523e-03,1.50075e+02
8.77106e-03,1.44074e+02
8.85773e-03,1.38291e+02
8.94526e-03,1.32716e+02
9.03366e-03,1.27343e+02
9.12292e-03,1.22165e+02
9.21307e-03,1.17174e+02
9.30411e-03,1.12363e+02
9.39606e-03,1.07727e+02
9.48891e-03,1.03259e+02
9.58267e-03,9.89522e+01
9.67737e-03,9.48014e+01
9.77299e-03,9.08009e+01
9.86957e-03,8.69452e+01
9.96710e-03,8.32292e+01
1.00656e-02,7.96477e+01
1.01651e-02,7.61959e+01
1.02655e-02,7.28691e+01
1.03669e-02,6.96628e+01
1.04694e-02,6.65726e+01
1.05728e-02,6.35943e+01
1.06773e-02,6.07239e+01
1.07828e-02,5.79575e+01
1.08894e-02,5.52913e+01
1.09970e-02,5.27217e+01
1.11057e-02,5.02451e+01
1.12154e-02,4.78583e+01
1.13262e-02,4.55580e+01
1.14382e-02,4.33410e+01
1.15512e-02,4.12044e+01
1.16653e-02,3.91452e+01
1.17806e-02,3.71606e+01
1.18970e-02,3.52479e+01
1.20146e-02,3.34045e+01
1.21333e-02,3.16280e+01
1.22532e-02,2.99158e+01
1.23743e-02,2.82657e+01
1.24966e-02,2.66754e+01
1.26201e-02,2.51428e+01
1.27448e-02,2.36657e+01
1.28707e-02,2.22421e+01
1.29979e-02,2.08702e+01
1.31263e-02,1.95480e+01
1.32560e-02,1.82737e+01
1.33870e-02,1.70457e+01
1.35193e-02,1.58621e+01
1.36529e-02,1.47215e+01
1.37878e-02,1.36223e+01
1.39241e-02,1.25629e+01
1.40617e-02,1.15419e+01
1.42006e-02,1.05579e+01
1.43409e-02,9.60964e+00
1.44827e-02,8.69576e+00
1.46258e-02,7.81501e+00
1.47703e-02,6.96621e+00
1.49163e-02,6.14820e+00
1.50637e-02,5.35986e+00
1.52125e-02,4.60011e+00
1.53628e-02,3.86791e+00
1.55146e-02,3.16228e+00
1.56680e-02,2.48224e+00
1.58228e-02,1.82688e+00
1.59791e-02,1.19528e+00
1.61370e-02,5.86600e-01
1.62965e-02,0.00000e+00
