m1=134101.268, m2=25.142, gsp=2.213, rhosp=30.891
fGW[Hz],dPh[rad]
1.98524e-03,1.97728e+03
2.01342e-03,1.89166e+03
2.04199e-03,1.80953e+03
2.07097e-03,1.73076e+03
2.10037e-03,1.65522e+03
2.13017e-03,1.58279e+03
2.16041e-03,1.51334e+03
2.19107e-03,1.44677e+03
2.22216e-03,1.38297e+03
2.25370e-03,1.32182e+03
2.28569e-03,1.26323e+03
2.31813e-03,1.20709e+03
2.35103e-03,1.15332e+03
2.38439e-03,1.10181e+03
2.41824e-03,1.05248e+03
2.45256e-03,1.00524e+03
2.48736e-03,9.60007e+02
2.52267e-03,9.16708e+02
2.55847e-03,8.75261e+02
2.59478e-03,8.35594e+02
2.63161e-03,7.97634e+02
2.66895e-03,7.61314e+02
2.70683e-03,7.26566e+02
2.74525e-03,6.93327e+02
2.78421e-03,6.61536e+02
2.82373e-03,6.31134e+02
2.86380e-03,6.02063e+02
2.90445e-03,5.74269e+02
2.94567e-03,5.47700e+02
2.98747e-03,5.22304e+02
3.02987e-03,4.98033e+02
3.07288e-03,4.74840e+02
3.11649e-03,4.52680e+02
3.16072e-03,4.31510e+02
3.20558e-03,4.11288e+02
3.25107e-03,3.91973e+02
3.29721e-03,3.73528e+02
3.34401e-03,3.55916e+02
3.39147e-03,3.39100e+02
3.43960e-03,3.23047e+02
3.48842e-03,3.07725e+02
3.53793e-03,2.93101e+02
3.58814e-03,2.79145e+02
3.63906e-03,2.65829e+02
3.69071e-03,2.53124e+02
3.74309e-03,2.41005e+02
3.79621e-03,2.29445e+02
3.85009e-03,2.18419e+02
3.90473e-03,2.07905e+02
3.96015e-03,1.97879e+02
4.01636e-03,1.88321e+02
4.07336e-03,1.79209e+02
4.13117e-03,1.70523e+02
4.18980e-03,1.62244e+02
4.24926e-03,1.54354e+02
4.30957e-03,1.46836e+02
4.37073e-03,1.39673e+02
4.43277e-03,1.32848e+02
4.49568e-03,1.26347e+02
4.55948e-03,1.20155e+02
4.62419e-03,1.14257e+02
4.68982e-03,1.08641e+02
4.75638e-03,1.03292e+02
4.82389e-03,9.81998e+01
4.89235e-03,9.33516e+01
4.96178e-03,8.87363e+01
5.03220e-03,8.43431e+01
5.10362e-03,8.01617e+01
5.17606e-03,7.61823e+01
5.24952e-03,7.23953e+01
5.32402e-03,6.87920e+01
5.39958e-03,6.53635e+01
5.47621e-03,6.21018e+01
5.55394e-03,5.89990e+01
5.63276e-03,5.60476e+01
5.71270e-03,5.32403e+01
5.79378e-03,5.05705e+01
5.87601e-03,4.80316e+01
5.95940e-03,4.56173e+01
6.04398e-03,4.33217e+01
6.12976e-03,4.11391e+01
6.21676e-03,3.90641e+01
6.30499e-03,3.70917e+01
6.39447e-03,3.52167e+01
6.48522e-03,3.34346e+01
6.57727e-03,3.17409e+01
6.67061e-03,3.01312e+01
6.76529e-03,2.86016e+01
6.86130e-03,2.71481e+01
6.95868e-03,2.57670e+01
7.05744e-03,2.44549e+01
7.15760e-03,2.32083e+01
7.25919e-03,2.20241e+01
7.36221e-03,2.08992e+01
7.46670e-03,1.98307e+01
7.57267e-03,1.88158e+01
7.68015e-03,1.78519e+01
7.78915e-03,1.69365e+01
7.89969e-03,1.60672e+01
8.01181e-03,1.52417e+01
8.12552e-03,1.44578e+01
8.24084e-03,1.37136e+01
8.35780e-03,1.30070e+01
8.47641e-03,1.23361e+01
8.59672e-03,1.16993e+01
8.71872e-03,1.10947e+01
8.84246e-03,1.05208e+01
8.96796e-03,9.97606e+00
9.09524e-03,9.45902e+00
9.22432e-03,8.96828e+00
9.35524e-03,8.50253e+00
9.48801e-03,8.06052e+00
9.62267e-03,7.64106e+00
9.75924e-03,7.24301e+00
9.89775e-03,6.86530e+00
1.00382e-02,6.50690e+00
1.01807e-02,6.16684e+00
1.03252e-02,5.84419e+00
1.04717e-02,5.53807e+00
1.06203e-02,5.24766e+00
1.07711e-02,4.97214e+00
1.09239e-02,4.71077e+00
1.10790e-02,4.46283e+00
1.12362e-02,4.22763e+00
1.13957e-02,4.00454e+00
1.15574e-02,3.79293e+00
1.17214e-02,3.59222e+00
1.18878e-02,3.40185e+00
1.20565e-02,3.22130e+00
1.22276e-02,3.05007e+00
1.24012e-02,2.88768e+00
1.25772e-02,2.73368e+00
1.27557e-02,2.58763e+00
1.29367e-02,2.44914e+00
1.31203e-02,2.31781e+00
1.33065e-02,2.19328e+00
1.34954e-02,2.07520e+00
1.36869e-02,1.96324e+00
1.38811e-02,1.85708e+00
1.40782e-02,1.75643e+00
1.42780e-02,1.66100e+00
1.44806e-02,1.57052e+00
1.46861e-02,1.48474e+00
1.48945e-02,1.40342e+00
1.51059e-02,1.32633e+00
1.53203e-02,1.25324e+00
1.55378e-02,1.18395e+00
1.57583e-02,1.11827e+00
1.59819e-02,1.05601e+00
1.62088e-02,9.96992e-01
1.64388e-02,9.41047e-01
1.66721e-02,8.88018e-01
1.69087e-02,8.37752e-01
1.71487e-02,7.90108e-01
1.73921e-02,7.44949e-01
1.76389e-02,7.02147e-01
1.78893e-02,6.61578e-01
1.81431e-02,6.23128e-01
1.84006e-02,5.86686e-01
1.86618e-02,5.52148e-01
1.89266e-02,5.19415e-01
1.91953e-02,4.88392e-01
1.94677e-02,4.58992e-01
1.97440e-02,4.31130e-01
2.00242e-02,4.04725e-01
2.03084e-02,3.79702e-01
2.05966e-02,3.55989e-01
2.08889e-02,3.33518e-01
2.11854e-02,3.12223e-01
2.14861e-02,2.92043e-01
2.17910e-02,2.72921e-01
2.21003e-02,2.54801e-01
2.24139e-02,2.37631e-01
2.27320e-02,2.21361e-01
2.30547e-02,2.05944e-01
2.33819e-02,1.91336e-01
2.37137e-02,1.77494e-01
2.40503e-02,1.64378e-01
2.43916e-02,1.51951e-01
2.47378e-02,1.40176e-01
2.50889e-02,1.29019e-01
2.54450e-02,1.18448e-01
2.58061e-02,1.08432e-01
2.61723e-02,9.89426e-02
2.65438e-02,8.99515e-02
2.69205e-02,8.14328e-02
2.73026e-02,7.33619e-02
2.76901e-02,6.57151e-02
2.80830e-02,5.84703e-02
2.84816e-02,5.16065e-02
2.88858e-02,4.51036e-02
2.92958e-02,3.89427e-02
2.97116e-02,3.31059e-02
3.01333e-02,2.75761e-02
3.05609e-02,2.23373e-02
3.09947e-02,1.73741e-02
3.14346e-02,1.26722e-02
3.18807e-02,8.21775e-03
3.23332e-02,3.99779e-03
3.27920e-02,0.00000e+00
