m1=23940.323, m2=64.214, gsp=2.206, rhosp=16.877
fGW[Hz],dPh[rad]
2.14938e-03,3.90299e+02
2.19798e-03,3.71207e+02
2.24767e-03,3.53037e+02
2.29849e-03,3.35747e+02
2.35046e-03,3.19292e+02
2.40361e-03,3.03634e+02
2.45795e-03,2.88733e+02
2.51353e-03,2.74554e+02
2.57036e-03,2.61062e+02
2.62847e-03,2.48223e+02
2.68790e-03,2.36007e+02
2.74868e-03,2.24382e+02
2.81083e-03,2.13322e+02
2.87438e-03,2.02799e+02
2.93937e-03,1.92786e+02
3.00583e-03,1.83259e+02
3.07379e-03,1.74196e+02
3.14329e-03,1.65572e+02
3.21436e-03,1.57369e+02
3.28703e-03,1.49564e+02
3.36135e-03,1.42139e+02
3.43735e-03,1.35076e+02
3.51507e-03,1.28357e+02
3.59455e-03,1.21965e+02
3.67582e-03,1.15886e+02
3.75893e-03,1.10103e+02
3.84392e-03,1.04602e+02
3.93083e-03,9.93705e+01
4.01971e-03,9.43945e+01
4.11060e-03,8.96621e+01
4.20354e-03,8.51613e+01
4.29858e-03,8.08810e+01
4.39577e-03,7.68106e+01
4.49516e-03,7.29400e+01
4.59679e-03,6.92593e+01
4.70073e-03,6.57596e+01
4.80701e-03,6.24319e+01
4.91570e-03,5.92681e+01
5.02684e-03,5.62601e+01
5.14050e-03,5.34004e+01
5.25672e-03,5.06818e+01
5.37558e-03,4.80975e+01
5.49712e-03,4.56410e+01
5.62141e-03,4.33061e+01
5.74851e-03,4.10868e+01
5.87849e-03,3.89776e+01
6.01140e-03,3.69731e+01
6.14732e-03,3.50682e+01
6.28631e-03,3.32581e+01
6.42844e-03,3.15382e+01
6.57379e-03,2.99040e+01
6.72242e-03,2.83515e+01
6.87441e-03,2.68765e+01
7.02985e-03,2.54755e+01
7.18879e-03,2.41446e+01
7.35133e-03,2.28806e+01
7.51754e-03,2.16801e+01
7.68751e-03,2.05400e+01
7.86133e-03,1.94574e+01
8.03907e-03,1.84295e+01
8.22084e-03,1.74536e+01
8.40671e-03,1.65272e+01
8.59679e-03,1.56477e+01
8.79116e-03,1.48130e+01
8.98993e-03,1.40207e+01
9.19319e-03,1.32689e+01
9.40105e-03,1.25555e+01
9.61361e-03,1.18786e+01
9.83097e-03,1.12365e+01
1.00533e-02,1.06274e+01
1.02806e-02,1.00496e+01
1.05130e-02,9.50170e+00
1.07507e-02,8.98213e+00
1.09938e-02,8.48950e+00
1.12423e-02,8.02248e+00
1.14965e-02,7.57979e+00
1.17565e-02,7.16021e+00
1.20223e-02,6.76260e+00
1.22941e-02,6.38585e+00
1.25721e-02,6.02892e+00
1.28563e-02,5.69083e+00
1.31470e-02,5.37062e+00
1.34443e-02,5.06739e+00
1.37482e-02,4.78028e+00
1.40591e-02,4.50850e+00
1.43770e-02,4.25125e+00
1.47020e-02,4.00781e+00
1.50344e-02,3.77747e+00
1.53744e-02,3.55957e+00
1.57220e-02,3.35347e+00
1.60775e-02,3.15856e+00
1.64410e-02,2.97429e+00
1.68127e-02,2.80010e+00
1.71928e-02,2.63547e+00
1.75816e-02,2.47990e+00
1.79791e-02,2.33294e+00
1.83856e-02,2.19414e+00
1.88013e-02,2.06306e+00
1.92264e-02,1.93931e+00
1.96611e-02,1.82251e+00
2.01056e-02,1.71228e+00
2.05602e-02,1.60829e+00
2.10251e-02,1.51020e+00
2.15005e-02,1.41771e+00
2.19866e-02,1.33051e+00
2.24837e-02,1.24833e+00
2.29921e-02,1.17089e+00
2.35119e-02,1.09794e+00
2.40435e-02,1.02924e+00
2.45872e-02,9.64551e-01
2.51431e-02,9.03667e-01
2.57116e-02,8.46375e-01
2.62929e-02,7.92480e-01
2.68874e-02,7.41793e-01
2.74953e-02,6.94139e-01
2.81170e-02,6.49349e-01
2.87527e-02,6.07263e-01
2.94028e-02,5.67730e-01
3.00676e-02,5.30606e-01
3.07474e-02,4.95756e-01
3.14426e-02,4.63050e-01
3.21535e-02,4.32366e-01
3.28805e-02,4.03589e-01
3.36240e-02,3.76608e-01
3.43842e-02,3.51319e-01
3.51616e-02,3.27624e-01
3.59566e-02,3.05430e-01
3.67696e-02,2.84648e-01
3.76010e-02,2.65196e-01
3.84511e-02,2.46993e-01
3.93205e-02,2.29966e-01
4.02096e-02,2.14043e-01
4.11187e-02,1.99159e-01
4.20484e-02,1.85250e-01
4.29991e-02,1.72256e-01
4.39713e-02,1.60122e-01
4.49655e-02,1.48794e-01
4.59822e-02,1.38222e-01
4.70218e-02,1.28359e-01
4.80850e-02,1.19161e-01
4.91722e-02,1.10586e-01
5.02840e-02,1.02594e-01
5.14209e-02,9.51473e-02
5.25835e-02,8.82119e-02
5.37724e-02,8.17545e-02
5.49882e-02,7.57441e-02
5.62315e-02,7.01515e-02
5.75029e-02,6.49493e-02
5.88031e-02,6.01119e-02
6.01326e-02,5.56151e-02
6.14922e-02,5.14361e-02
6.28825e-02,4.75538e-02
6.43043e-02,4.39481e-02
6.57582e-02,4.06003e-02
6.72450e-02,3.74930e-02
6.87655e-02,3.46097e-02
7.03202e-02,3.19350e-02
7.19102e-02,2.94545e-02
7.35361e-02,2.71549e-02
7.51987e-02,2.50234e-02
7.68990e-02,2.30483e-02
7.86377e-02,2.12187e-02
8.04157e-02,1.95243e-02
8.22339e-02,1.79555e-02
8.40932e-02,1.65033e-02
8.59945e-02,1.51595e-02
8.79389e-02,1.39162e-02
8.99271e-02,1.27662e-02
9.19604e-02,1.17028e-02
9.40396e-02,1.07196e-02
9.61659e-02,9.81086e-03
9.83402e-02,8.97107e-03
1.00564e-01,8.19517e-03
1.02837e-01,7.47847e-03
1.05163e-01,6.81658e-03
1.07540e-01,6.20543e-03
1.09972e-01,5.64126e-03
1.12458e-01,5.12053e-03
1.15001e-01,4.64001e-03
1.17601e-01,4.19667e-03
1.20260e-01,3.78770e-03
1.22979e-01,3.41051e-03
1.25760e-01,3.06269e-03
1.28603e-01,2.74200e-03
1.31511e-01,2.44638e-03
1.34484e-01,2.17390e-03
1.37525e-01,1.92280e-03
1.40634e-01,1.69143e-03
1.43814e-01,1.47827e-03
1.47066e-01,1.28192e-03
1.50391e-01,1.10108e-03
1.53791e-01,9.34537e-04
1.57269e-01,7.81189e-04
1.60824e-01,6.40007e-04
1.64461e-01,5.10040e-04
1.68179e-01,3.90413e-04
1.71982e-01,2.80314e-04
1.75870e-01,1.78998e-04
1.79847e-01,8.57718e-05
1.83913e-01,0.00000e+00
