m1=5736.403, m2=80.534, gsp=2.437, rhosp=361.666
fGW[Hz],dPh[rad]
2.82595e-03,1.23406e+04
2.90675e-03,1.16489e+04
2.98986e-03,1.09960e+04
3.07534e-03,1.03796e+04
3.16327e-03,9.79772e+03
3.25372e-03,9.24842e+03
3.34675e-03,8.72987e+03
3.44244e-03,8.24034e+03
3.54087e-03,7.77822e+03
3.64211e-03,7.34198e+03
3.74624e-03,6.93016e+03
3.85335e-03,6.54139e+03
3.96353e-03,6.17440e+03
4.07685e-03,5.82795e+03
4.19342e-03,5.50090e+03
4.31332e-03,5.19217e+03
4.43664e-03,4.90073e+03
4.56350e-03,4.62561e+03
4.69398e-03,4.36589e+03
4.82819e-03,4.12073e+03
4.96623e-03,3.88929e+03
5.10823e-03,3.67082e+03
5.25428e-03,3.46459e+03
5.40451e-03,3.26991e+03
5.55904e-03,3.08613e+03
5.71798e-03,2.91266e+03
5.88147e-03,2.74890e+03
6.04963e-03,2.59432e+03
6.22260e-03,2.44840e+03
6.40052e-03,2.31066e+03
6.58352e-03,2.18064e+03
6.77176e-03,2.05791e+03
6.96538e-03,1.94206e+03
7.16453e-03,1.83270e+03
7.36938e-03,1.72947e+03
7.58009e-03,1.63204e+03
7.79682e-03,1.54006e+03
8.01974e-03,1.45325e+03
8.24904e-03,1.37130e+03
8.48490e-03,1.29395e+03
8.72750e-03,1.22094e+03
8.97704e-03,1.15203e+03
9.23371e-03,1.08698e+03
9.49772e-03,1.02558e+03
9.76928e-03,9.67635e+02
1.00486e-02,9.12939e+02
1.03359e-02,8.61314e+02
1.06314e-02,8.12587e+02
1.09354e-02,7.66598e+02
1.12481e-02,7.23192e+02
1.15697e-02,6.82225e+02
1.19005e-02,6.43560e+02
1.22407e-02,6.07068e+02
1.25907e-02,5.72628e+02
1.29507e-02,5.40124e+02
1.33210e-02,5.09449e+02
1.37019e-02,4.80498e+02
1.40936e-02,4.53177e+02
1.44966e-02,4.27394e+02
1.49111e-02,4.03062e+02
1.53374e-02,3.80100e+02
1.57760e-02,3.58432e+02
1.62270e-02,3.37984e+02
1.66910e-02,3.18689e+02
1.71682e-02,3.00482e+02
1.76591e-02,2.83301e+02
1.81640e-02,2.67090e+02
1.86833e-02,2.51794e+02
1.92175e-02,2.37361e+02
1.97670e-02,2.23743e+02
2.03322e-02,2.10895e+02
2.09135e-02,1.98773e+02
2.15115e-02,1.87336e+02
2.21265e-02,1.76547e+02
2.27592e-02,1.66368e+02
2.34099e-02,1.56766e+02
2.40792e-02,1.47707e+02
2.47677e-02,1.39162e+02
2.54759e-02,1.31102e+02
2.62043e-02,1.23500e+02
2.69535e-02,1.16328e+02
2.77242e-02,1.09565e+02
2.85168e-02,1.03186e+02
2.93322e-02,9.71698e+01
3.01709e-02,9.14963e+01
3.10335e-02,8.61461e+01
3.19208e-02,8.11009e+01
3.28335e-02,7.63436e+01
3.37723e-02,7.18581e+01
3.47379e-02,6.76289e+01
3.57311e-02,6.36417e+01
3.67527e-02,5.98829e+01
3.78036e-02,5.63395e+01
3.88845e-02,5.29994e+01
3.99962e-02,4.98511e+01
4.11398e-02,4.68839e+01
4.23161e-02,4.40875e+01
4.35260e-02,4.14523e+01
4.47705e-02,3.89691e+01
4.60505e-02,3.66294e+01
4.73672e-02,3.44250e+01
4.87215e-02,3.23484e+01
5.01146e-02,3.03922e+01
5.15475e-02,2.85496e+01
5.30213e-02,2.68143e+01
5.45373e-02,2.51801e+01
5.60966e-02,2.36412e+01
5.77005e-02,2.21924e+01
5.93503e-02,2.08284e+01
6.10473e-02,1.95444e+01
6.27927e-02,1.83360e+01
6.45881e-02,1.71987e+01
6.64348e-02,1.61285e+01
6.83343e-02,1.51216e+01
7.02881e-02,1.41745e+01
7.22978e-02,1.32836e+01
7.43649e-02,1.24457e+01
7.64912e-02,1.16579e+01
7.86782e-02,1.09172e+01
8.09278e-02,1.02209e+01
8.32416e-02,9.56658e+00
8.56217e-02,8.95170e+00
8.80698e-02,8.37401e+00
9.05879e-02,7.83137e+00
9.31780e-02,7.32176e+00
9.58421e-02,6.84326e+00
9.85824e-02,6.39407e+00
1.01401e-01,5.97248e+00
1.04300e-01,5.57689e+00
1.07282e-01,5.20578e+00
1.10350e-01,4.85772e+00
1.13505e-01,4.53136e+00
1.16750e-01,4.22542e+00
1.20088e-01,3.93871e+00
1.23522e-01,3.67009e+00
1.27054e-01,3.41848e+00
1.30687e-01,3.18288e+00
1.34423e-01,2.96234e+00
1.38267e-01,2.75596e+00
1.42220e-01,2.56289e+00
1.46286e-01,2.38233e+00
1.50469e-01,2.21352e+00
1.54771e-01,2.05577e+00
1.59196e-01,1.90838e+00
1.63748e-01,1.77074e+00
1.68430e-01,1.64225e+00
1.73246e-01,1.52234e+00
1.78199e-01,1.41049e+00
1.83294e-01,1.30619e+00
1.88535e-01,1.20898e+00
1.93925e-01,1.11842e+00
1.99470e-01,1.03407e+00
2.05173e-01,9.55558e-01
2.11040e-01,8.82504e-01
2.17074e-01,8.14563e-01
2.23280e-01,7.51404e-01
2.29664e-01,6.92719e-01
2.36231e-01,6.38216e-01
2.42985e-01,5.87623e-01
2.49933e-01,5.40682e-01
2.57079e-01,4.97151e-01
2.64429e-01,4.56802e-01
2.71990e-01,4.19422e-01
2.79766e-01,3.84810e-01
2.87765e-01,3.52778e-01
2.95993e-01,3.23149e-01
3.04456e-01,2.95757e-01
3.13161e-01,2.70447e-01
3.22115e-01,2.47073e-01
3.31325e-01,2.25498e-01
3.40798e-01,2.05595e-01
3.50542e-01,1.87244e-01
3.60565e-01,1.70333e-01
3.70874e-01,1.54757e-01
3.81478e-01,1.40418e-01
3.92386e-01,1.27226e-01
4.03605e-01,1.15095e-01
4.15145e-01,1.03946e-01
4.27014e-01,9.37046e-02
4.39224e-01,8.43019e-02
4.51782e-01,7.56736e-02
4.64699e-01,6.77601e-02
4.77986e-01,6.05059e-02
4.91652e-01,5.38595e-02
5.05710e-01,4.77729e-02
5.20169e-01,4.22017e-02
5.35042e-01,3.71047e-02
5.50340e-01,3.24439e-02
5.66075e-01,2.81839e-02
5.82260e-01,2.42920e-02
5.98908e-01,2.07381e-02
6.16032e-01,1.74942e-02
6.33646e-01,1.45346e-02
6.51763e-01,1.18356e-02
6.70398e-01,9.37517e-03
6.89566e-01,7.13321e-03
7.09282e-01,5.09112e-03
7.29562e-01,3.23182e-03
7.50421e-01,1.53960e-03
7.71877e-01,0.00000e+00
