m1=2006.920, m2=11.464, gsp=2.323, rhosp=74.178
fGW[Hz],dPh[rad]
7.62500e-03,4.97651e+03
7.84512e-03,4.68456e+03
8.07160e-03,4.40971e+03
8.30461e-03,4.15096e+03
8.54436e-03,3.90735e+03
8.79102e-03,3.67802e+03
9.04481e-03,3.46211e+03
9.30592e-03,3.25885e+03
9.57457e-03,3.06750e+03
9.85097e-03,2.88735e+03
1.01354e-02,2.71776e+03
1.04279e-02,2.55810e+03
1.07290e-02,2.40780e+03
1.10387e-02,2.26630e+03
1.13574e-02,2.13309e+03
1.16853e-02,2.00769e+03
1.20226e-02,1.88964e+03
1.23697e-02,1.77850e+03
1.27268e-02,1.67388e+03
1.30942e-02,1.57540e+03
1.34722e-02,1.48268e+03
1.38611e-02,1.39540e+03
1.42613e-02,1.31324e+03
1.46730e-02,1.23590e+03
1.50966e-02,1.16309e+03
1.55324e-02,1.09455e+03
1.59808e-02,1.03003e+03
1.64421e-02,9.69300e+02
1.69168e-02,9.12130e+02
1.74052e-02,8.58315e+02
1.79076e-02,8.07658e+02
1.84246e-02,7.59974e+02
1.89565e-02,7.15089e+02
1.95037e-02,6.72839e+02
2.00668e-02,6.33070e+02
2.06461e-02,5.95637e+02
2.12421e-02,5.60403e+02
2.18553e-02,5.27238e+02
2.24863e-02,4.96022e+02
2.31354e-02,4.66641e+02
2.38033e-02,4.38986e+02
2.44905e-02,4.12958e+02
2.51975e-02,3.88460e+02
2.59249e-02,3.65403e+02
2.66733e-02,3.43703e+02
2.74433e-02,3.23280e+02
2.82356e-02,3.04059e+02
2.90507e-02,2.85969e+02
2.98894e-02,2.68945e+02
3.07522e-02,2.52924e+02
3.16400e-02,2.37846e+02
3.25534e-02,2.23658e+02
3.34932e-02,2.10306e+02
3.44601e-02,1.97742e+02
3.54549e-02,1.85919e+02
3.64784e-02,1.74794e+02
3.75315e-02,1.64325e+02
3.86150e-02,1.54476e+02
3.97298e-02,1.45208e+02
4.08767e-02,1.36488e+02
4.20568e-02,1.28284e+02
4.32709e-02,1.20565e+02
4.45201e-02,1.13304e+02
4.58053e-02,1.06472e+02
4.71276e-02,1.00045e+02
4.84881e-02,9.39999e+01
4.98879e-02,8.83130e+01
5.13281e-02,8.29636e+01
5.28099e-02,7.79320e+01
5.43345e-02,7.31995e+01
5.59030e-02,6.87485e+01
5.75169e-02,6.45623e+01
5.91773e-02,6.06255e+01
6.08857e-02,5.69234e+01
6.26434e-02,5.34420e+01
6.44518e-02,5.01685e+01
6.63124e-02,4.70906e+01
6.82268e-02,4.41968e+01
7.01964e-02,4.14761e+01
7.22229e-02,3.89185e+01
7.43078e-02,3.65142e+01
7.64530e-02,3.42542e+01
7.86601e-02,3.21301e+01
8.09309e-02,3.01337e+01
8.32673e-02,2.82576e+01
8.56711e-02,2.64946e+01
8.81443e-02,2.48380e+01
9.06889e-02,2.32816e+01
9.33070e-02,2.18194e+01
9.60006e-02,2.04458e+01
9.87720e-02,1.91556e+01
1.01623e-01,1.79438e+01
1.04557e-01,1.68057e+01
1.07576e-01,1.57371e+01
1.10681e-01,1.47338e+01
1.13876e-01,1.37918e+01
1.17164e-01,1.29076e+01
1.20546e-01,1.20776e+01
1.24026e-01,1.12987e+01
1.27607e-01,1.05679e+01
1.31291e-01,9.88214e+00
1.35081e-01,9.23886e+00
1.38980e-01,8.63549e+00
1.42993e-01,8.06964e+00
1.47121e-01,7.53904e+00
1.51368e-01,7.04160e+00
1.55737e-01,6.57531e+00
1.60233e-01,6.13830e+00
1.64859e-01,5.72881e+00
1.69618e-01,5.34517e+00
1.74515e-01,4.98582e+00
1.79553e-01,4.64929e+00
1.84736e-01,4.33420e+00
1.90070e-01,4.03924e+00
1.95557e-01,3.76319e+00
2.01202e-01,3.50490e+00
2.07011e-01,3.26328e+00
2.12987e-01,3.03730e+00
2.19135e-01,2.82602e+00
2.25461e-01,2.62853e+00
2.31970e-01,2.44397e+00
2.38667e-01,2.27154e+00
2.45557e-01,2.11051e+00
2.52646e-01,1.96015e+00
2.59939e-01,1.81980e+00
2.67443e-01,1.68885e+00
2.75164e-01,1.56669e+00
2.83108e-01,1.45277e+00
2.91281e-01,1.34658e+00
2.99690e-01,1.24763e+00
3.08341e-01,1.15545e+00
3.17243e-01,1.06962e+00
3.26401e-01,9.89724e-01
3.35824e-01,9.15384e-01
3.45519e-01,8.46241e-01
3.55493e-01,7.81958e-01
3.65756e-01,7.22218e-01
3.76315e-01,6.66724e-01
3.87178e-01,6.15196e-01
3.98356e-01,5.67373e-01
4.09856e-01,5.23007e-01
4.21688e-01,4.81869e-01
4.33861e-01,4.43740e-01
4.46386e-01,4.08418e-01
4.59273e-01,3.75712e-01
4.72531e-01,3.45443e-01
4.86173e-01,3.17443e-01
5.00208e-01,2.91556e-01
5.14648e-01,2.67634e-01
5.29505e-01,2.45540e-01
5.44792e-01,2.25144e-01
5.60519e-01,2.06326e-01
5.76700e-01,1.88973e-01
5.93349e-01,1.72979e-01
6.10478e-01,1.58246e-01
6.28102e-01,1.44683e-01
6.46234e-01,1.32202e-01
6.64890e-01,1.20724e-01
6.84085e-01,1.10173e-01
7.03833e-01,1.00481e-01
7.24152e-01,9.15825e-02
7.45057e-01,8.34163e-02
7.66566e-01,7.59267e-02
7.88696e-01,6.90611e-02
8.11464e-01,6.27711e-02
8.34890e-01,5.70115e-02
8.58993e-01,5.17403e-02
8.83791e-01,4.69186e-02
9.09304e-01,4.25105e-02
9.35555e-01,3.84825e-02
9.62563e-01,3.48037e-02
9.90351e-01,3.14455e-02
1.01894e+00,2.83816e-02
1.04836e+00,2.55875e-02
1.07862e+00,2.30407e-02
1.10976e+00,2.07204e-02
1.14180e+00,1.86075e-02
1.17476e+00,1.66843e-02
1.20867e+00,1.49345e-02
1.24357e+00,1.33432e-02
1.27947e+00,1.18967e-02
1.31640e+00,1.05823e-02
1.35440e+00,9.38859e-03
1.39350e+00,8.30479e-03
1.43373e+00,7.32120e-03
1.47512e+00,6.42890e-03
1.51771e+00,5.61972e-03
1.56152e+00,4.88619e-03
1.60660e+00,4.22146e-03
1.65298e+00,3.61929e-03
1.70070e+00,3.07398e-03
1.74980e+00,2.58032e-03
1.80031e+00,2.13355e-03
1.85228e+00,1.72935e-03
1.90576e+00,1.36376e-03
1.96077e+00,1.03320e-03
2.01738e+00,7.34385e-04
2.07562e+00,4.64345e-04
2.13554e+00,2.20370e-04
2.19719e+00,0.00000e+00
