m1=1737.938, m2=19.436, gsp=2.224, rhosp=279.472
fGW[Hz],dPh[rad]
6.48895e-03,5.43077e+02
6.68661e-03,5.08593e+02
6.89030e-03,4.76296e+02
7.10019e-03,4.46049e+02
7.31648e-03,4.17721e+02
7.53936e-03,3.91190e+02
7.76902e-03,3.66344e+02
8.00568e-03,3.43074e+02
8.24955e-03,3.21280e+02
8.50085e-03,3.00870e+02
8.75980e-03,2.81755e+02
9.02664e-03,2.63854e+02
9.30161e-03,2.47088e+02
9.58496e-03,2.31386e+02
9.87693e-03,2.16682e+02
1.01778e-02,2.02910e+02
1.04878e-02,1.90013e+02
1.08073e-02,1.77934e+02
1.11365e-02,1.66622e+02
1.14758e-02,1.56028e+02
1.18254e-02,1.46106e+02
1.21856e-02,1.36815e+02
1.25568e-02,1.28113e+02
1.29393e-02,1.19964e+02
1.33334e-02,1.12333e+02
1.37396e-02,1.05185e+02
1.41581e-02,9.84922e+01
1.45894e-02,9.22240e+01
1.50338e-02,8.63538e+01
1.54918e-02,8.08565e+01
1.59637e-02,7.57083e+01
1.64500e-02,7.08872e+01
1.69511e-02,6.63722e+01
1.74675e-02,6.21441e+01
1.79996e-02,5.81846e+01
1.85479e-02,5.44767e+01
1.91129e-02,5.10044e+01
1.96951e-02,4.77527e+01
2.02950e-02,4.47077e+01
2.09133e-02,4.18562e+01
2.15503e-02,3.91860e+01
2.22068e-02,3.66855e+01
2.28833e-02,3.43439e+01
2.35803e-02,3.21513e+01
2.42986e-02,3.00981e+01
2.50388e-02,2.81754e+01
2.58016e-02,2.63750e+01
2.65875e-02,2.46892e+01
2.73974e-02,2.31106e+01
2.82320e-02,2.16324e+01
2.90920e-02,2.02483e+01
2.99782e-02,1.89523e+01
3.08914e-02,1.77388e+01
3.18324e-02,1.66026e+01
3.28021e-02,1.55387e+01
3.38013e-02,1.45425e+01
3.48310e-02,1.36099e+01
3.58920e-02,1.27366e+01
3.69854e-02,1.19190e+01
3.81120e-02,1.11535e+01
3.92730e-02,1.04368e+01
4.04693e-02,9.76578e+00
4.17021e-02,9.13757e+00
4.29724e-02,8.54945e+00
4.42815e-02,7.99885e+00
4.56304e-02,7.48339e+00
4.70204e-02,7.00085e+00
4.84527e-02,6.54912e+00
4.99287e-02,6.12625e+00
5.14496e-02,5.73041e+00
5.30168e-02,5.35987e+00
5.46318e-02,5.01303e+00
5.62960e-02,4.68837e+00
5.80109e-02,4.38449e+00
5.97781e-02,4.10007e+00
6.15990e-02,3.83386e+00
6.34755e-02,3.58471e+00
6.54091e-02,3.35153e+00
6.74015e-02,3.13330e+00
6.94547e-02,2.92908e+00
7.15705e-02,2.73797e+00
7.37506e-02,2.55913e+00
7.59972e-02,2.39179e+00
7.83123e-02,2.23520e+00
8.06978e-02,2.08870e+00
8.31560e-02,1.95162e+00
8.56891e-02,1.82337e+00
8.82994e-02,1.70339e+00
9.09892e-02,1.59115e+00
9.37609e-02,1.48616e+00
9.66171e-02,1.38795e+00
9.95602e-02,1.29609e+00
1.02593e-01,1.21018e+00
1.05718e-01,1.12983e+00
1.08939e-01,1.05469e+00
1.12257e-01,9.84421e-01
1.15677e-01,9.18719e-01
1.19200e-01,8.57288e-01
1.22831e-01,7.99856e-01
1.26573e-01,7.46166e-01
1.30429e-01,6.95978e-01
1.34402e-01,6.49068e-01
1.38496e-01,6.05225e-01
1.42715e-01,5.64252e-01
1.47062e-01,5.25966e-01
1.51542e-01,4.90194e-01
1.56159e-01,4.56773e-01
1.60915e-01,4.25553e-01
1.65817e-01,3.96392e-01
1.70868e-01,3.69157e-01
1.76073e-01,3.43724e-01
1.81437e-01,3.19977e-01
1.86964e-01,2.97807e-01
1.92659e-01,2.77111e-01
1.98528e-01,2.57796e-01
2.04576e-01,2.39770e-01
2.10807e-01,2.22951e-01
2.17229e-01,2.07260e-01
2.23846e-01,1.92625e-01
2.30665e-01,1.78975e-01
2.37691e-01,1.66248e-01
2.44932e-01,1.54383e-01
2.52393e-01,1.43323e-01
2.60082e-01,1.33016e-01
2.68004e-01,1.23413e-01
2.76168e-01,1.14468e-01
2.84581e-01,1.06137e-01
2.93250e-01,9.83802e-02
3.02183e-01,9.11593e-02
3.11388e-01,8.44392e-02
3.20873e-01,7.81866e-02
3.30648e-01,7.23706e-02
3.40720e-01,6.69621e-02
3.51099e-01,6.19341e-02
3.61794e-01,5.72611e-02
3.72815e-01,5.29193e-02
3.84172e-01,4.88866e-02
3.95875e-01,4.51421e-02
4.07934e-01,4.16664e-02
4.20360e-01,3.84413e-02
4.33165e-01,3.54498e-02
4.46360e-01,3.26759e-02
4.59957e-01,3.01048e-02
4.73969e-01,2.77227e-02
4.88407e-01,2.55164e-02
5.03284e-01,2.34738e-02
5.18616e-01,2.15836e-02
5.34414e-01,1.98351e-02
5.50693e-01,1.82185e-02
5.67468e-01,1.67244e-02
5.84754e-01,1.53443e-02
6.02567e-01,1.40699e-02
6.20923e-01,1.28939e-02
6.39837e-01,1.18091e-02
6.59328e-01,1.08089e-02
6.79412e-01,9.88727e-03
7.00109e-01,9.03843e-03
7.21435e-01,8.25705e-03
7.43412e-01,7.53817e-03
7.66058e-01,6.87714e-03
7.89393e-01,6.26965e-03
8.13440e-01,5.71168e-03
8.38219e-01,5.19948e-03
8.63753e-01,4.72956e-03
8.90064e-01,4.29869e-03
9.17178e-01,3.90386e-03
9.45117e-01,3.54226e-03
9.73907e-01,3.21129e-03
1.00357e+00,2.90855e-03
1.03414e+00,2.63178e-03
1.06565e+00,2.37892e-03
1.09811e+00,2.14804e-03
1.13156e+00,1.93735e-03
1.16603e+00,1.74520e-03
1.20155e+00,1.57008e-03
1.23815e+00,1.41056e-03
1.27587e+00,1.26534e-03
1.31473e+00,1.13322e-03
1.35478e+00,1.01309e-03
1.39605e+00,9.03929e-04
1.43858e+00,8.04785e-04
1.48240e+00,7.14795e-04
1.52756e+00,6.33160e-04
1.57409e+00,5.59144e-04
1.62204e+00,4.92075e-04
1.67145e+00,4.31334e-04
1.72237e+00,3.76353e-04
1.77483e+00,3.26612e-04
1.82890e+00,2.81635e-04
1.88461e+00,2.40986e-04
1.94202e+00,2.04267e-04
2.00118e+00,1.71115e-04
2.06214e+00,1.41197e-04
2.12495e+00,1.14211e-04
2.18968e+00,8.98796e-05
2.25639e+00,6.79519e-05
2.32512e+00,4.81990e-05
2.39595e+00,3.04126e-05
2.46893e+00,1.44036e-05
2.54414e+00,0.00000e+00
