m1=1168.244, m2=34.838, gsp=2.232, rhosp=5089.035
fGW[Hz],dPh[rad]
5.77102e-03,4.77906e+02
5.96248e-03,4.45099e+02
6.16030e-03,4.14543e+02
6.36468e-03,3.86085e+02
6.57584e-03,3.59580e+02
6.79400e-03,3.34894e+02
7.01941e-03,3.11902e+02
7.25229e-03,2.90489e+02
7.49290e-03,2.70545e+02
7.74149e-03,2.51970e+02
7.99832e-03,2.34670e+02
8.26368e-03,2.18558e+02
8.53785e-03,2.03552e+02
8.82110e-03,1.89575e+02
9.11376e-03,1.76558e+02
9.41613e-03,1.64434e+02
9.72852e-03,1.53143e+02
1.00513e-02,1.42627e+02
1.03848e-02,1.32832e+02
1.07293e-02,1.23710e+02
1.10852e-02,1.15214e+02
1.14530e-02,1.07301e+02
1.18330e-02,9.99319e+01
1.22256e-02,9.30682e+01
1.26312e-02,8.66758e+01
1.30502e-02,8.07221e+01
1.34832e-02,7.51772e+01
1.39305e-02,7.00129e+01
1.43927e-02,6.52032e+01
1.48702e-02,6.07236e+01
1.53636e-02,5.65516e+01
1.58733e-02,5.26661e+01
1.63999e-02,4.90473e+01
1.69440e-02,4.56769e+01
1.75061e-02,4.25380e+01
1.80869e-02,3.96146e+01
1.86870e-02,3.68919e+01
1.93070e-02,3.43562e+01
1.99475e-02,3.19946e+01
2.06093e-02,2.97951e+01
2.12931e-02,2.77467e+01
2.19995e-02,2.58390e+01
2.27294e-02,2.40622e+01
2.34835e-02,2.24075e+01
2.42626e-02,2.08665e+01
2.50675e-02,1.94312e+01
2.58992e-02,1.80946e+01
2.67585e-02,1.68498e+01
2.76462e-02,1.56904e+01
2.85634e-02,1.46107e+01
2.95111e-02,1.36052e+01
3.04902e-02,1.26687e+01
3.15017e-02,1.17966e+01
3.25468e-02,1.09844e+01
3.36266e-02,1.02281e+01
3.47423e-02,9.52364e+00
3.58949e-02,8.86763e+00
3.70858e-02,8.25671e+00
3.83162e-02,7.68777e+00
3.95874e-02,7.15793e+00
4.09008e-02,6.66452e+00
4.22577e-02,6.20502e+00
4.36597e-02,5.77711e+00
4.51082e-02,5.37862e+00
4.66047e-02,5.00753e+00
4.81509e-02,4.66196e+00
4.97484e-02,4.34016e+00
5.13989e-02,4.04049e+00
5.31042e-02,3.76143e+00
5.48660e-02,3.50157e+00
5.66863e-02,3.25959e+00
5.85669e-02,3.03426e+00
6.05100e-02,2.82444e+00
6.25175e-02,2.62906e+00
6.45917e-02,2.44713e+00
6.67346e-02,2.27772e+00
6.89487e-02,2.11998e+00
7.12362e-02,1.97311e+00
7.35995e-02,1.83635e+00
7.60413e-02,1.70902e+00
7.85642e-02,1.59046e+00
8.11707e-02,1.48007e+00
8.38636e-02,1.37729e+00
8.66460e-02,1.28160e+00
8.95206e-02,1.19251e+00
9.24906e-02,1.10956e+00
9.55592e-02,1.03234e+00
9.87295e-02,9.60447e-01
1.02005e-01,8.93519e-01
1.05389e-01,8.31212e-01
1.08886e-01,7.73210e-01
1.12498e-01,7.19216e-01
1.16231e-01,6.68955e-01
1.20087e-01,6.22169e-01
1.24071e-01,5.78619e-01
1.28187e-01,5.38084e-01
1.32440e-01,5.00355e-01
1.36834e-01,4.65239e-01
1.41374e-01,4.32556e-01
1.46064e-01,4.02138e-01
1.50910e-01,3.73831e-01
1.55917e-01,3.47487e-01
1.61089e-01,3.22973e-01
1.66434e-01,3.00162e-01
1.71955e-01,2.78936e-01
1.77660e-01,2.59186e-01
1.83555e-01,2.40811e-01
1.89644e-01,2.23715e-01
1.95936e-01,2.07811e-01
2.02437e-01,1.93015e-01
2.09153e-01,1.79253e-01
2.16092e-01,1.66451e-01
2.23261e-01,1.54545e-01
2.30668e-01,1.43471e-01
2.38321e-01,1.33173e-01
2.46228e-01,1.23597e-01
2.54397e-01,1.14693e-01
2.62837e-01,1.06414e-01
2.71557e-01,9.87170e-02
2.80566e-01,9.15619e-02
2.89875e-01,8.49111e-02
2.99492e-01,7.87295e-02
3.09428e-01,7.29847e-02
3.19694e-01,6.76463e-02
3.30300e-01,6.26861e-02
3.41259e-01,5.80778e-02
3.52581e-01,5.37970e-02
3.64278e-01,4.98208e-02
3.76364e-01,4.61281e-02
3.88850e-01,4.26990e-02
4.01751e-01,3.95153e-02
4.15080e-01,3.65598e-02
4.28851e-01,3.38165e-02
4.43079e-01,3.12706e-02
4.57779e-01,2.89083e-02
4.72966e-01,2.67168e-02
4.88658e-01,2.46840e-02
5.04870e-01,2.27988e-02
5.21620e-01,2.10508e-02
5.38926e-01,1.94304e-02
5.56805e-01,1.79286e-02
5.75278e-01,1.65369e-02
5.94364e-01,1.52477e-02
6.14083e-01,1.40537e-02
6.34457e-01,1.29481e-02
6.55506e-01,1.19246e-02
6.77254e-01,1.09774e-02
6.99723e-01,1.01010e-02
7.22937e-01,9.29048e-03
7.46922e-01,8.54098e-03
7.71703e-01,7.84818e-03
7.97305e-01,7.20799e-03
8.23757e-01,6.61661e-03
8.51087e-01,6.07052e-03
8.79323e-01,5.56643e-03
9.08496e-01,5.10128e-03
9.38637e-01,4.67224e-03
9.69778e-01,4.27666e-03
1.00195e+00,3.91209e-03
1.03519e+00,3.57623e-03
1.06954e+00,3.26697e-03
1.10502e+00,2.98233e-03
1.14168e+00,2.72047e-03
1.17956e+00,2.47969e-03
1.21870e+00,2.25840e-03
1.25913e+00,2.05512e-03
1.30090e+00,1.86850e-03
1.34406e+00,1.69726e-03
1.38865e+00,1.54021e-03
1.43472e+00,1.39627e-03
1.48232e+00,1.26442e-03
1.53150e+00,1.14371e-03
1.58231e+00,1.03328e-03
1.63481e+00,9.32297e-04
1.68905e+00,8.40025e-04
1.74508e+00,7.55764e-04
1.80298e+00,6.78869e-04
1.86280e+00,6.08741e-04
1.92460e+00,5.44829e-04
1.98845e+00,4.86622e-04
2.05442e+00,4.33645e-04
2.12258e+00,3.85464e-04
2.19300e+00,3.41674e-04
2.26576e+00,3.01904e-04
2.34093e+00,2.65810e-04
2.41859e+00,2.33075e-04
2.49883e+00,2.03408e-04
2.58174e+00,1.76541e-04
2.66739e+00,1.52227e-04
2.75589e+00,1.30239e-04
2.84732e+00,1.10368e-04
2.94178e+00,9.24242e-05
3.03938e+00,7.62311e-05
3.14022e+00,6.16284e-05
3.24440e+00,4.84689e-05
3.35204e+00,3.66183e-05
3.46325e+00,2.59534e-05
3.57815e+00,1.63622e-05
3.69686e+00,7.74215e-06
3.81951e+00,0.00000e+00
