m1=61731.474, m2=12.574, gsp=2.490, rhosp=474.332
fGW[Hz],dPh[rad]
3.12527e-03,7.24456e+05
3.17476e-03,6.93373e+05
3.22503e-03,6.63525e+05
3.27610e-03,6.34868e+05
3.32797e-03,6.07359e+05
3.38067e-03,5.80956e+05
3.43421e-03,5.55617e+05
3.48859e-03,5.31305e+05
3.54383e-03,5.07980e+05
3.59995e-03,4.85607e+05
3.65695e-03,4.64149e+05
3.71486e-03,4.43573e+05
3.77368e-03,4.23846e+05
3.83344e-03,4.04935e+05
3.89414e-03,3.86810e+05
3.95581e-03,3.69440e+05
4.01845e-03,3.52798e+05
4.08208e-03,3.36855e+05
4.14672e-03,3.21584e+05
4.21238e-03,3.06960e+05
4.27908e-03,2.92957e+05
4.34684e-03,2.79551e+05
4.41567e-03,2.66719e+05
4.48560e-03,2.54439e+05
4.55663e-03,2.42688e+05
4.62878e-03,2.31445e+05
4.70208e-03,2.20691e+05
4.77653e-03,2.10406e+05
4.85217e-03,2.00571e+05
4.92901e-03,1.91168e+05
5.00706e-03,1.82179e+05
5.08634e-03,1.73588e+05
5.16688e-03,1.65379e+05
5.24870e-03,1.57535e+05
5.33182e-03,1.50042e+05
5.41624e-03,1.42886e+05
5.50201e-03,1.36052e+05
5.58914e-03,1.29526e+05
5.67764e-03,1.23297e+05
5.76754e-03,1.17351e+05
5.85887e-03,1.11676e+05
5.95165e-03,1.06262e+05
6.04589e-03,1.01097e+05
6.14163e-03,9.61694e+04
6.23888e-03,9.14703e+04
6.33768e-03,8.69894e+04
6.43803e-03,8.27173e+04
6.53998e-03,7.86449e+04
6.64354e-03,7.47635e+04
6.74874e-03,7.10647e+04
6.85561e-03,6.75404e+04
6.96416e-03,6.41830e+04
7.07444e-03,6.09849e+04
7.18647e-03,5.79393e+04
7.30026e-03,5.50391e+04
7.41586e-03,5.22779e+04
7.53329e-03,4.96494e+04
7.65258e-03,4.71475e+04
7.77376e-03,4.47666e+04
7.89686e-03,4.25012e+04
8.02191e-03,4.03458e+04
8.14893e-03,3.82955e+04
8.27797e-03,3.63455e+04
8.40905e-03,3.44910e+04
8.54221e-03,3.27277e+04
8.67748e-03,3.10512e+04
8.81488e-03,2.94575e+04
8.95447e-03,2.79428e+04
9.09626e-03,2.65033e+04
9.24030e-03,2.51354e+04
9.38662e-03,2.38358e+04
9.53526e-03,2.26012e+04
9.68625e-03,2.14285e+04
9.83963e-03,2.03147e+04
9.99544e-03,1.92570e+04
1.01537e-02,1.82527e+04
1.03145e-02,1.72992e+04
1.04778e-02,1.63941e+04
1.06437e-02,1.55349e+04
1.08123e-02,1.47195e+04
1.09835e-02,1.39457e+04
1.11574e-02,1.32115e+04
1.13341e-02,1.25149e+04
1.15136e-02,1.18540e+04
1.16959e-02,1.12271e+04
1.18811e-02,1.06325e+04
1.20692e-02,1.00687e+04
1.22604e-02,9.53395e+03
1.24545e-02,9.02694e+03
1.26517e-02,8.54624e+03
1.28521e-02,8.09054e+03
1.30556e-02,7.65857e+03
1.32623e-02,7.24913e+03
1.34723e-02,6.86109e+03
1.36856e-02,6.49336e+03
1.39024e-02,6.14490e+03
1.41225e-02,5.81474e+03
1.43461e-02,5.50194e+03
1.45733e-02,5.20561e+03
1.48041e-02,4.92490e+03
1.50385e-02,4.65902e+03
1.52766e-02,4.40720e+03
1.55185e-02,4.16871e+03
1.57643e-02,3.94287e+03
1.60139e-02,3.72902e+03
1.62675e-02,3.52654e+03
1.65251e-02,3.33484e+03
1.67867e-02,3.15335e+03
1.70526e-02,2.98154e+03
1.73226e-02,2.81892e+03
1.75969e-02,2.66499e+03
1.78755e-02,2.51930e+03
1.81586e-02,2.38142e+03
1.84461e-02,2.25094e+03
1.87382e-02,2.12747e+03
1.90350e-02,2.01064e+03
1.93364e-02,1.90009e+03
1.96426e-02,1.79551e+03
1.99536e-02,1.69656e+03
2.02696e-02,1.60295e+03
2.05905e-02,1.51440e+03
2.09166e-02,1.43064e+03
2.12478e-02,1.35141e+03
2.15843e-02,1.27648e+03
2.19261e-02,1.20561e+03
2.22733e-02,1.13858e+03
2.26259e-02,1.07519e+03
2.29842e-02,1.01525e+03
2.33482e-02,9.58567e+02
2.37179e-02,9.04971e+02
2.40935e-02,8.54294e+02
2.44750e-02,8.06379e+02
2.48626e-02,7.61077e+02
2.52563e-02,7.18249e+02
2.56562e-02,6.77760e+02
2.60625e-02,6.39484e+02
2.64752e-02,6.03301e+02
2.68944e-02,5.69098e+02
2.73203e-02,5.36768e+02
2.77529e-02,5.06210e+02
2.81923e-02,4.77327e+02
2.86388e-02,4.50028e+02
2.90923e-02,4.24227e+02
2.95529e-02,3.99843e+02
3.00209e-02,3.76799e+02
3.04963e-02,3.55022e+02
3.09792e-02,3.34442e+02
3.14698e-02,3.14994e+02
3.19681e-02,2.96618e+02
3.24743e-02,2.79253e+02
3.29885e-02,2.62845e+02
3.35109e-02,2.47341e+02
3.40415e-02,2.32693e+02
3.45806e-02,2.18853e+02
3.51282e-02,2.05776e+02
3.56844e-02,1.93422e+02
3.62495e-02,1.81750e+02
3.68235e-02,1.70723e+02
3.74066e-02,1.60305e+02
3.79989e-02,1.50464e+02
3.86006e-02,1.41167e+02
3.92119e-02,1.32385e+02
3.98328e-02,1.24088e+02
4.04636e-02,1.16251e+02
4.11043e-02,1.08849e+02
4.17552e-02,1.01856e+02
4.24164e-02,9.52509e+01
4.30880e-02,8.90121e+01
4.37703e-02,8.31192e+01
4.44634e-02,7.75533e+01
4.51675e-02,7.22962e+01
4.58827e-02,6.73309e+01
4.66093e-02,6.26413e+01
4.73474e-02,5.82121e+01
4.80971e-02,5.40289e+01
4.88587e-02,5.00781e+01
4.96324e-02,4.63469e+01
5.04183e-02,4.28232e+01
5.12167e-02,3.94953e+01
5.20277e-02,3.63525e+01
5.28516e-02,3.33845e+01
5.36885e-02,3.05816e+01
5.45386e-02,2.79347e+01
5.54023e-02,2.54351e+01
5.62796e-02,2.30747e+01
5.71707e-02,2.08457e+01
5.80760e-02,1.87408e+01
5.89957e-02,1.67532e+01
5.99299e-02,1.48763e+01
6.08789e-02,1.31039e+01
6.18429e-02,1.14304e+01
6.28222e-02,9.85007e+00
6.38169e-02,8.35787e+00
6.48275e-02,6.94886e+00
6.58540e-02,5.61842e+00
6.68968e-02,4.36218e+00
6.79561e-02,3.17601e+00
6.90322e-02,2.05601e+00
7.01253e-02,9.98502e-01
7.12358e-02,0.00000e+00
