m1=12590.910, m2=10.883, gsp=2.203, rhosp=12.241
fGW[Hz],dPh[rad]
4.90972e-03,1.33604e+03
5.01608e-03,1.27144e+03
5.12474e-03,1.20989e+03
5.23576e-03,1.15124e+03
5.34918e-03,1.09536e+03
5.46506e-03,1.04212e+03
5.58345e-03,9.91397e+02
5.70441e-03,9.43073e+02
5.82798e-03,8.97038e+02
5.95423e-03,8.53184e+02
6.08322e-03,8.11410e+02
6.21500e-03,7.71620e+02
6.34964e-03,7.33721e+02
6.48719e-03,6.97625e+02
6.62772e-03,6.63247e+02
6.77130e-03,6.30508e+02
6.91799e-03,5.99331e+02
7.06785e-03,5.69644e+02
7.22097e-03,5.41375e+02
7.37739e-03,5.14461e+02
7.53721e-03,4.88836e+02
7.70049e-03,4.64441e+02
7.86731e-03,4.41217e+02
8.03774e-03,4.19112e+02
8.21186e-03,3.98070e+02
8.38975e-03,3.78044e+02
8.57150e-03,3.58985e+02
8.75719e-03,3.40848e+02
8.94690e-03,3.23590e+02
9.14071e-03,3.07168e+02
9.33873e-03,2.91545e+02
9.54104e-03,2.76681e+02
9.74772e-03,2.62543e+02
9.95889e-03,2.49094e+02
1.01746e-02,2.36303e+02
1.03950e-02,2.24139e+02
1.06202e-02,2.12571e+02
1.08503e-02,2.01572e+02
1.10854e-02,1.91115e+02
1.13255e-02,1.81174e+02
1.15708e-02,1.71725e+02
1.18215e-02,1.62744e+02
1.20776e-02,1.54208e+02
1.23392e-02,1.46098e+02
1.26065e-02,1.38392e+02
1.28796e-02,1.31070e+02
1.31586e-02,1.24116e+02
1.34437e-02,1.17510e+02
1.37349e-02,1.11237e+02
1.40325e-02,1.05281e+02
1.43365e-02,9.96255e+01
1.46470e-02,9.42569e+01
1.49643e-02,8.91611e+01
1.52885e-02,8.43250e+01
1.56197e-02,7.97360e+01
1.59581e-02,7.53821e+01
1.63038e-02,7.12520e+01
1.66570e-02,6.73347e+01
1.70178e-02,6.36199e+01
1.73865e-02,6.00976e+01
1.77631e-02,5.67585e+01
1.81479e-02,5.35936e+01
1.85411e-02,5.05943e+01
1.89427e-02,4.77524e+01
1.93531e-02,4.50602e+01
1.97723e-02,4.25102e+01
2.02007e-02,4.00955e+01
2.06383e-02,3.78093e+01
2.10854e-02,3.56451e+01
2.15421e-02,3.35969e+01
2.20088e-02,3.16588e+01
2.24856e-02,2.98254e+01
2.29727e-02,2.80913e+01
2.34703e-02,2.64515e+01
2.39788e-02,2.49013e+01
2.44982e-02,2.34360e+01
2.50289e-02,2.20514e+01
2.55711e-02,2.07432e+01
2.61251e-02,1.95077e+01
2.66911e-02,1.83409e+01
2.72693e-02,1.72395e+01
2.78600e-02,1.61999e+01
2.84635e-02,1.52189e+01
2.90801e-02,1.42935e+01
2.97101e-02,1.34208e+01
3.03537e-02,1.25979e+01
3.10113e-02,1.18223e+01
3.16831e-02,1.10914e+01
3.23694e-02,1.04028e+01
3.30707e-02,9.75424e+00
3.37871e-02,9.14360e+00
3.45190e-02,8.56881e+00
3.52668e-02,8.02791e+00
3.60308e-02,7.51905e+00
3.68113e-02,7.04047e+00
3.76088e-02,6.59051e+00
3.84235e-02,6.16757e+00
3.92559e-02,5.77015e+00
4.01063e-02,5.39683e+00
4.09751e-02,5.04624e+00
4.18627e-02,4.71711e+00
4.27696e-02,4.40821e+00
4.36961e-02,4.11838e+00
4.46427e-02,3.84654e+00
4.56098e-02,3.59164e+00
4.65979e-02,3.35270e+00
4.76073e-02,3.12880e+00
4.86387e-02,2.91904e+00
4.96923e-02,2.72260e+00
5.07688e-02,2.53869e+00
5.18686e-02,2.36656e+00
5.29923e-02,2.20551e+00
5.41402e-02,2.05487e+00
5.53131e-02,1.91401e+00
5.65113e-02,1.78233e+00
5.77355e-02,1.65927e+00
5.89863e-02,1.54431e+00
6.02641e-02,1.43695e+00
6.15696e-02,1.33670e+00
6.29034e-02,1.24313e+00
6.42661e-02,1.15582e+00
6.56583e-02,1.07438e+00
6.70807e-02,9.98422e-01
6.85338e-02,9.27609e-01
7.00185e-02,8.61609e-01
7.15353e-02,8.00111e-01
7.30850e-02,7.42825e-01
7.46682e-02,6.89477e-01
7.62858e-02,6.39810e-01
7.79384e-02,5.93582e-01
7.96267e-02,5.50566e-01
8.13517e-02,5.10551e-01
8.31140e-02,4.73335e-01
8.49145e-02,4.38733e-01
8.67541e-02,4.06569e-01
8.86334e-02,3.76677e-01
9.05535e-02,3.48906e-01
9.25152e-02,3.23110e-01
9.45193e-02,2.99154e-01
9.65669e-02,2.76913e-01
9.86589e-02,2.56268e-01
1.00796e-01,2.37109e-01
1.02980e-01,2.19333e-01
1.05211e-01,2.02844e-01
1.07490e-01,1.87551e-01
1.09818e-01,1.73372e-01
1.12197e-01,1.60227e-01
1.14628e-01,1.48043e-01
1.17111e-01,1.36753e-01
1.19648e-01,1.26293e-01
1.22240e-01,1.16603e-01
1.24888e-01,1.07629e-01
1.27594e-01,9.93186e-02
1.30358e-01,9.16248e-02
1.33182e-01,8.45028e-02
1.36067e-01,7.79113e-02
1.39014e-01,7.18116e-02
1.42026e-01,6.61680e-02
1.45103e-01,6.09472e-02
1.48246e-01,5.61181e-02
1.51457e-01,5.16522e-02
1.54738e-01,4.75226e-02
1.58090e-01,4.37046e-02
1.61515e-01,4.01750e-02
1.65014e-01,3.69127e-02
1.68589e-01,3.38976e-02
1.72241e-01,3.11115e-02
1.75972e-01,2.85371e-02
1.79784e-01,2.61589e-02
1.83679e-01,2.39619e-02
1.87658e-01,2.19327e-02
1.91723e-01,2.00586e-02
1.95877e-01,1.83280e-02
2.00120e-01,1.67300e-02
2.04455e-01,1.52546e-02
2.08884e-01,1.38926e-02
2.13409e-01,1.26353e-02
2.18033e-01,1.14748e-02
2.22756e-01,1.04038e-02
2.27581e-01,9.41538e-03
2.32512e-01,8.50330e-03
2.37548e-01,7.66172e-03
2.42695e-01,6.88526e-03
2.47952e-01,6.16893e-03
2.53323e-01,5.50812e-03
2.58811e-01,4.89858e-03
2.64418e-01,4.33635e-03
2.70146e-01,3.81782e-03
2.75998e-01,3.33960e-03
2.81977e-01,2.89859e-03
2.88086e-01,2.49193e-03
2.94327e-01,2.11696e-03
3.00703e-01,1.77122e-03
3.07217e-01,1.45247e-03
3.13872e-01,1.15860e-03
3.20671e-01,8.87689e-04
3.27618e-01,6.37956e-04
3.34715e-01,4.07756e-04
3.41966e-01,1.95571e-04
3.49374e-01,0.00000e+00
