m1=5794.837, m2=3.804, gsp=2.047, rhosp=1510.005
fGW[Hz],dPh[rad]
8.84084e-03,4.95914e+02
9.04089e-03,4.69953e+02
9.24546e-03,4.45323e+02
9.45466e-03,4.21957e+02
9.66860e-03,3.99790e+02
9.88737e-03,3.78761e+02
1.01111e-02,3.58814e+02
1.03399e-02,3.39893e+02
1.05739e-02,3.21945e+02
1.08131e-02,3.04923e+02
1.10578e-02,2.88778e+02
1.13080e-02,2.73466e+02
1.15639e-02,2.58945e+02
1.18255e-02,2.45175e+02
1.20931e-02,2.32117e+02
1.23667e-02,2.19736e+02
1.26466e-02,2.07996e+02
1.29327e-02,1.96866e+02
1.32254e-02,1.86314e+02
1.35246e-02,1.76310e+02
1.38306e-02,1.66827e+02
1.41436e-02,1.57838e+02
1.44636e-02,1.49318e+02
1.47909e-02,1.41244e+02
1.51256e-02,1.33591e+02
1.54678e-02,1.26339e+02
1.58178e-02,1.19467e+02
1.61757e-02,1.12956e+02
1.65418e-02,1.06788e+02
1.69161e-02,1.00944e+02
1.72988e-02,9.54075e+01
1.76903e-02,9.01637e+01
1.80905e-02,8.51971e+01
1.84999e-02,8.04934e+01
1.89185e-02,7.60392e+01
1.93466e-02,7.18216e+01
1.97843e-02,6.78284e+01
2.02320e-02,6.40480e+01
2.06898e-02,6.04694e+01
2.11579e-02,5.70822e+01
2.16367e-02,5.38765e+01
2.21263e-02,5.08429e+01
2.26269e-02,4.79725e+01
2.31389e-02,4.52568e+01
2.36625e-02,4.26877e+01
2.41979e-02,4.02577e+01
2.47455e-02,3.79595e+01
2.53054e-02,3.57862e+01
2.58780e-02,3.37312e+01
2.64635e-02,3.17885e+01
2.70623e-02,2.99521e+01
2.76747e-02,2.82165e+01
2.83009e-02,2.65763e+01
2.89413e-02,2.50265e+01
2.95961e-02,2.35624e+01
3.02658e-02,2.21795e+01
3.09506e-02,2.08734e+01
3.16510e-02,1.96401e+01
3.23672e-02,1.84757e+01
3.30995e-02,1.73766e+01
3.38485e-02,1.63393e+01
3.46144e-02,1.53604e+01
3.53976e-02,1.44369e+01
3.61986e-02,1.35658e+01
3.70177e-02,1.27443e+01
3.78553e-02,1.19697e+01
3.87119e-02,1.12394e+01
3.95878e-02,1.05511e+01
4.04836e-02,9.90256e+00
4.13996e-02,9.29151e+00
4.23364e-02,8.71595e+00
4.32943e-02,8.17394e+00
4.42740e-02,7.66364e+00
4.52758e-02,7.18331e+00
4.63003e-02,6.73128e+00
4.73479e-02,6.30600e+00
4.84193e-02,5.90598e+00
4.95149e-02,5.52982e+00
5.06353e-02,5.17618e+00
5.17810e-02,4.84380e+00
5.29527e-02,4.53148e+00
5.41509e-02,4.23809e+00
5.53762e-02,3.96255e+00
5.66292e-02,3.70386e+00
5.79105e-02,3.46105e+00
5.92209e-02,3.23320e+00
6.05609e-02,3.01947e+00
6.19313e-02,2.81903e+00
6.33326e-02,2.63111e+00
6.47657e-02,2.45498e+00
6.62311e-02,2.28995e+00
6.77298e-02,2.13537e+00
6.92623e-02,1.99062e+00
7.08296e-02,1.85512e+00
7.24322e-02,1.72832e+00
7.40712e-02,1.60969e+00
7.57472e-02,1.49875e+00
7.74612e-02,1.39503e+00
7.92139e-02,1.29809e+00
8.10064e-02,1.20752e+00
8.28393e-02,1.12292e+00
8.47138e-02,1.04394e+00
8.66306e-02,9.70212e-01
8.85908e-02,9.01421e-01
9.05954e-02,8.37254e-01
9.26454e-02,7.77421e-01
9.47417e-02,7.21647e-01
9.68854e-02,6.69675e-01
9.90777e-02,6.21262e-01
1.01320e-01,5.76178e-01
1.03612e-01,5.34209e-01
1.05957e-01,4.95153e-01
1.08354e-01,4.58820e-01
1.10806e-01,4.25030e-01
1.13313e-01,3.93617e-01
1.15877e-01,3.64423e-01
1.18499e-01,3.37299e-01
1.21181e-01,3.12108e-01
1.23923e-01,2.88719e-01
1.26727e-01,2.67009e-01
1.29594e-01,2.46866e-01
1.32526e-01,2.28181e-01
1.35525e-01,2.10855e-01
1.38592e-01,1.94794e-01
1.41728e-01,1.79910e-01
1.44935e-01,1.66120e-01
1.48214e-01,1.53349e-01
1.51568e-01,1.41525e-01
1.54997e-01,1.30579e-01
1.58505e-01,1.20451e-01
1.62091e-01,1.11082e-01
1.65759e-01,1.02417e-01
1.69510e-01,9.44060e-02
1.73345e-01,8.70010e-02
1.77267e-01,8.01582e-02
1.81279e-01,7.38367e-02
1.85380e-01,6.79982e-02
1.89575e-01,6.26071e-02
1.93865e-01,5.76306e-02
1.98251e-01,5.30377e-02
2.02737e-01,4.88000e-02
2.07325e-01,4.48908e-02
2.12016e-01,4.12856e-02
2.16813e-01,3.79615e-02
2.21719e-01,3.48972e-02
2.26736e-01,3.20730e-02
2.31867e-01,2.94707e-02
2.37113e-01,2.70734e-02
2.42478e-01,2.48653e-02
2.47965e-01,2.28318e-02
2.53576e-01,2.09596e-02
2.59314e-01,1.92362e-02
2.65181e-01,1.76501e-02
2.71182e-01,1.61905e-02
2.77318e-01,1.48477e-02
2.83593e-01,1.36124e-02
2.90010e-01,1.24763e-02
2.96572e-01,1.14315e-02
3.03282e-01,1.04710e-02
3.10145e-01,9.58791e-03
3.17163e-01,8.77624e-03
3.24339e-01,8.03030e-03
3.31678e-01,7.34486e-03
3.39183e-01,6.71510e-03
3.46858e-01,6.13657e-03
3.54707e-01,5.60518e-03
3.62733e-01,5.11713e-03
3.70940e-01,4.66896e-03
3.79334e-01,4.25745e-03
3.87917e-01,3.87965e-03
3.96695e-01,3.53284e-03
4.05671e-01,3.21450e-03
4.14850e-01,2.92233e-03
4.24237e-01,2.65421e-03
4.33837e-01,2.40818e-03
4.43653e-01,2.18244e-03
4.53692e-01,1.97533e-03
4.63958e-01,1.78535e-03
4.74456e-01,1.61108e-03
4.85192e-01,1.45124e-03
4.96170e-01,1.30465e-03
5.07397e-01,1.17021e-03
5.18878e-01,1.04694e-03
5.30619e-01,9.33908e-04
5.42626e-01,8.30275e-04
5.54904e-01,7.35267e-04
5.67460e-01,6.48170e-04
5.80300e-01,5.68331e-04
5.93431e-01,4.95150e-04
6.06859e-01,4.28076e-04
6.20590e-01,3.66602e-04
6.34633e-01,3.10264e-04
6.48993e-01,2.58637e-04
6.63678e-01,2.11328e-04
6.78695e-01,1.67978e-04
6.94052e-01,1.28259e-04
7.09757e-01,9.18675e-05
7.25817e-01,5.85266e-05
7.42240e-01,2.79818e-05
7.59035e-01,0.00000e+00
