m1=68340.686, m2=10.392, gsp=2.054, rhosp=4923.906
fGW[Hz],dPh[rad]
3.27251e-03,8.58745e+02
3.32186e-03,8.18886e+02
3.37195e-03,7.80770e+02
3.42281e-03,7.44328e+02
3.47443e-03,7.09490e+02
3.52682e-03,6.76190e+02
3.58001e-03,6.44365e+02
3.63400e-03,6.13955e+02
3.68881e-03,5.84901e+02
3.74444e-03,5.57146e+02
3.80091e-03,5.30636e+02
3.85823e-03,5.05319e+02
3.91641e-03,4.81145e+02
3.97548e-03,4.58066e+02
4.03543e-03,4.36035e+02
4.09629e-03,4.15008e+02
4.15806e-03,3.94943e+02
4.22077e-03,3.75797e+02
4.28442e-03,3.57532e+02
4.34904e-03,3.40110e+02
4.41463e-03,3.23495e+02
4.48120e-03,3.07650e+02
4.54878e-03,2.92544e+02
4.61738e-03,2.78143e+02
4.68702e-03,2.64417e+02
4.75770e-03,2.51336e+02
4.82945e-03,2.38872e+02
4.90228e-03,2.26996e+02
4.97622e-03,2.15684e+02
5.05126e-03,2.04910e+02
5.12744e-03,1.94650e+02
5.20477e-03,1.84881e+02
5.28326e-03,1.75580e+02
5.36294e-03,1.66727e+02
5.44381e-03,1.58301e+02
5.52591e-03,1.50283e+02
5.60925e-03,1.42654e+02
5.69384e-03,1.35396e+02
5.77971e-03,1.28492e+02
5.86687e-03,1.21926e+02
5.95535e-03,1.15683e+02
6.04516e-03,1.09746e+02
6.13633e-03,1.04102e+02
6.22887e-03,9.87380e+01
6.32281e-03,9.36395e+01
6.41816e-03,8.87945e+01
6.51495e-03,8.41911e+01
6.61321e-03,7.98177e+01
6.71294e-03,7.56634e+01
6.81418e-03,7.17178e+01
6.91694e-03,6.79708e+01
7.02125e-03,6.44130e+01
7.12714e-03,6.10352e+01
7.23463e-03,5.78286e+01
7.34373e-03,5.47851e+01
7.45448e-03,5.18967e+01
7.56690e-03,4.91558e+01
7.68102e-03,4.65551e+01
7.79685e-03,4.40879e+01
7.91444e-03,4.17475e+01
8.03380e-03,3.95277e+01
8.15495e-03,3.74226e+01
8.27794e-03,3.54263e+01
8.40278e-03,3.35336e+01
8.52950e-03,3.17392e+01
8.65813e-03,3.00382e+01
8.78870e-03,2.84260e+01
8.92124e-03,2.68980e+01
9.05579e-03,2.54501e+01
9.19236e-03,2.40781e+01
9.33098e-03,2.27783e+01
9.47170e-03,2.15469e+01
9.61455e-03,2.03805e+01
9.75954e-03,1.92757e+01
9.90673e-03,1.82295e+01
1.00561e-02,1.72387e+01
1.02078e-02,1.63006e+01
1.03617e-02,1.54124e+01
1.05180e-02,1.45715e+01
1.06766e-02,1.37756e+01
1.08376e-02,1.30222e+01
1.10011e-02,1.23091e+01
1.11670e-02,1.16343e+01
1.13354e-02,1.09958e+01
1.15063e-02,1.03916e+01
1.16799e-02,9.82003e+00
1.18560e-02,9.27925e+00
1.20348e-02,8.76770e+00
1.22163e-02,8.28383e+00
1.24005e-02,7.82618e+00
1.25875e-02,7.39336e+00
1.27774e-02,6.98405e+00
1.29701e-02,6.59701e+00
1.31657e-02,6.23105e+00
1.33642e-02,5.88504e+00
1.35658e-02,5.55793e+00
1.37703e-02,5.24869e+00
1.39780e-02,4.95638e+00
1.41888e-02,4.68009e+00
1.44028e-02,4.41894e+00
1.46200e-02,4.17214e+00
1.48405e-02,3.93890e+00
1.50643e-02,3.71850e+00
1.52915e-02,3.51024e+00
1.55221e-02,3.31346e+00
1.57562e-02,3.12754e+00
1.59938e-02,2.95189e+00
1.62350e-02,2.78596e+00
1.64798e-02,2.62921e+00
1.67284e-02,2.48114e+00
1.69807e-02,2.34128e+00
1.72367e-02,2.20919e+00
1.74967e-02,2.08443e+00
1.77606e-02,1.96660e+00
1.80284e-02,1.85533e+00
1.83003e-02,1.75026e+00
1.85763e-02,1.65104e+00
1.88564e-02,1.55736e+00
1.91408e-02,1.46890e+00
1.94294e-02,1.38539e+00
1.97225e-02,1.30654e+00
2.00199e-02,1.23210e+00
2.03218e-02,1.16183e+00
2.06283e-02,1.09549e+00
2.09394e-02,1.03287e+00
2.12552e-02,9.73762e-01
2.15757e-02,9.17971e-01
2.19011e-02,8.65312e-01
2.22314e-02,8.15611e-01
2.25667e-02,7.68705e-01
2.29070e-02,7.24436e-01
2.32524e-02,6.82659e-01
2.36031e-02,6.43235e-01
2.39591e-02,6.06031e-01
2.43204e-02,5.70925e-01
2.46872e-02,5.37799e-01
2.50595e-02,5.06541e-01
2.54374e-02,4.77049e-01
2.58210e-02,4.49222e-01
2.62104e-02,4.22967e-01
2.66057e-02,3.98197e-01
2.70069e-02,3.74828e-01
2.74142e-02,3.52781e-01
2.78277e-02,3.31982e-01
2.82473e-02,3.12360e-01
2.86733e-02,2.93851e-01
2.91057e-02,2.76390e-01
2.95447e-02,2.59920e-01
2.99902e-02,2.44384e-01
3.04425e-02,2.29729e-01
3.09016e-02,2.15906e-01
3.13676e-02,2.02868e-01
3.18407e-02,1.90570e-01
3.23209e-02,1.78972e-01
3.28083e-02,1.68032e-01
3.33031e-02,1.57715e-01
3.38053e-02,1.47984e-01
3.43152e-02,1.38807e-01
3.48327e-02,1.30152e-01
3.53580e-02,1.21990e-01
3.58912e-02,1.14293e-01
3.64325e-02,1.07034e-01
3.69819e-02,1.00189e-01
3.75396e-02,9.37336e-02
3.81058e-02,8.76464e-02
3.86804e-02,8.19062e-02
3.92638e-02,7.64935e-02
3.98559e-02,7.13895e-02
4.04570e-02,6.65768e-02
4.10671e-02,6.20388e-02
4.16864e-02,5.77598e-02
4.23151e-02,5.37252e-02
4.29533e-02,4.99209e-02
4.36010e-02,4.63340e-02
4.42586e-02,4.29521e-02
4.49260e-02,3.97634e-02
4.56036e-02,3.67569e-02
4.62913e-02,3.39224e-02
4.69894e-02,3.12499e-02
4.76981e-02,2.87302e-02
4.84174e-02,2.63547e-02
4.91476e-02,2.41151e-02
4.98888e-02,2.20036e-02
5.06411e-02,2.00130e-02
5.14049e-02,1.81363e-02
5.21801e-02,1.63671e-02
5.29670e-02,1.46991e-02
5.37658e-02,1.31267e-02
5.45767e-02,1.16443e-02
5.53997e-02,1.02468e-02
5.62352e-02,8.92944e-03
5.70833e-02,7.68752e-03
5.79441e-02,6.51677e-03
5.88180e-02,5.41312e-03
5.97050e-02,4.37272e-03
6.06054e-02,3.39197e-03
6.15194e-02,2.46745e-03
6.24472e-02,1.59594e-03
6.33890e-02,7.74413e-04
6.43449e-02,0.00000e+00
