m1=2351.894, m2=27.614, gsp=2.151, rhosp=8621.561
fGW[Hz],dPh[rad]
5.27432e-03,3.26967e+02
5.43239e-03,3.06083e+02
5.59520e-03,2.86532e+02
5.76289e-03,2.68229e+02
5.93561e-03,2.51094e+02
6.11350e-03,2.35052e+02
6.29672e-03,2.20035e+02
6.48544e-03,2.05976e+02
6.67981e-03,1.92815e+02
6.88000e-03,1.80493e+02
7.08620e-03,1.68959e+02
7.29857e-03,1.58160e+02
7.51731e-03,1.48051e+02
7.74261e-03,1.38588e+02
7.97466e-03,1.29728e+02
8.21366e-03,1.21435e+02
8.45983e-03,1.13670e+02
8.71337e-03,1.06402e+02
8.97451e-03,9.95975e+01
9.24348e-03,9.32276e+01
9.52051e-03,8.72645e+01
9.80584e-03,8.16822e+01
1.00997e-02,7.64564e+01
1.04024e-02,7.15643e+01
1.07142e-02,6.69847e+01
1.10353e-02,6.26976e+01
1.13660e-02,5.86843e+01
1.17067e-02,5.49274e+01
1.20575e-02,5.14105e+01
1.24189e-02,4.81183e+01
1.27911e-02,4.50364e+01
1.31744e-02,4.21515e+01
1.35693e-02,3.94508e+01
1.39759e-02,3.69228e+01
1.43948e-02,3.45563e+01
1.48262e-02,3.23411e+01
1.52706e-02,3.02674e+01
1.57282e-02,2.83263e+01
1.61996e-02,2.65094e+01
1.66851e-02,2.48085e+01
1.71852e-02,2.32164e+01
1.77002e-02,2.17262e+01
1.82307e-02,2.03312e+01
1.87771e-02,1.90255e+01
1.93398e-02,1.78033e+01
1.99194e-02,1.66592e+01
2.05164e-02,1.55884e+01
2.11313e-02,1.45861e+01
2.17646e-02,1.36479e+01
2.24169e-02,1.27698e+01
2.30888e-02,1.19479e+01
2.37807e-02,1.11787e+01
2.44934e-02,1.04587e+01
2.52275e-02,9.78478e+00
2.59836e-02,9.15405e+00
2.67623e-02,8.56374e+00
2.75644e-02,8.01126e+00
2.83905e-02,7.49418e+00
2.92414e-02,7.01026e+00
3.01178e-02,6.55736e+00
3.10204e-02,6.13351e+00
3.19501e-02,5.73685e+00
3.29076e-02,5.36564e+00
3.38939e-02,5.01826e+00
3.49097e-02,4.69318e+00
3.59559e-02,4.38897e+00
3.70336e-02,4.10431e+00
3.81435e-02,3.83793e+00
3.92866e-02,3.58868e+00
4.04641e-02,3.35545e+00
4.16768e-02,3.13722e+00
4.29258e-02,2.93303e+00
4.42123e-02,2.74198e+00
4.55374e-02,2.56324e+00
4.69022e-02,2.39600e+00
4.83078e-02,2.23955e+00
4.97556e-02,2.09318e+00
5.12468e-02,1.95624e+00
5.27827e-02,1.82815e+00
5.43646e-02,1.70832e+00
5.59939e-02,1.59623e+00
5.76721e-02,1.49139e+00
5.94005e-02,1.39332e+00
6.11808e-02,1.30160e+00
6.30144e-02,1.21582e+00
6.49029e-02,1.13559e+00
6.68481e-02,1.06056e+00
6.88515e-02,9.90402e-01
7.09150e-02,9.24794e-01
7.30404e-02,8.63447e-01
7.52294e-02,8.06088e-01
7.74841e-02,7.52459e-01
7.98063e-02,7.02323e-01
8.21981e-02,6.55453e-01
8.46616e-02,6.11639e-01
8.71989e-02,5.70686e-01
8.98123e-02,5.32408e-01
9.25040e-02,4.96634e-01
9.52763e-02,4.63203e-01
9.81318e-02,4.31962e-01
1.01073e-01,4.02771e-01
1.04102e-01,3.75498e-01
1.07222e-01,3.50019e-01
1.10435e-01,3.26217e-01
1.13745e-01,3.03985e-01
1.17154e-01,2.83221e-01
1.20665e-01,2.63830e-01
1.24282e-01,2.45723e-01
1.28006e-01,2.28817e-01
1.31843e-01,2.13034e-01
1.35794e-01,1.98301e-01
1.39864e-01,1.84549e-01
1.44056e-01,1.71716e-01
1.48373e-01,1.59742e-01
1.52820e-01,1.48569e-01
1.57400e-01,1.38147e-01
1.62117e-01,1.28426e-01
1.66976e-01,1.19361e-01
1.71980e-01,1.10908e-01
1.77135e-01,1.03028e-01
1.82443e-01,9.56820e-02
1.87911e-01,8.88364e-02
1.93543e-01,8.24577e-02
1.99343e-01,7.65153e-02
2.05318e-01,7.09805e-02
2.11471e-01,6.58263e-02
2.17809e-01,6.10275e-02
2.24337e-01,5.65607e-02
2.31060e-01,5.24038e-02
2.37985e-01,4.85363e-02
2.45118e-01,4.49388e-02
2.52464e-01,4.15934e-02
2.60030e-01,3.84831e-02
2.67824e-01,3.55923e-02
2.75850e-01,3.29063e-02
2.84118e-01,3.04111e-02
2.92633e-01,2.80941e-02
3.01403e-01,2.59430e-02
3.10436e-01,2.39467e-02
3.19740e-01,2.20945e-02
3.29323e-01,2.03768e-02
3.39193e-01,1.87842e-02
3.49358e-01,1.73083e-02
3.59829e-01,1.59408e-02
3.70613e-01,1.46745e-02
3.81720e-01,1.35021e-02
3.93160e-01,1.24172e-02
4.04943e-01,1.14137e-02
4.17080e-01,1.04859e-02
4.29580e-01,9.62832e-03
4.42454e-01,8.83611e-03
4.55715e-01,8.10459e-03
4.69373e-01,7.42941e-03
4.83440e-01,6.80654e-03
4.97929e-01,6.23218e-03
5.12852e-01,5.70283e-03
5.28222e-01,5.21519e-03
5.44053e-01,4.76622e-03
5.60358e-01,4.35305e-03
5.77152e-01,3.97302e-03
5.94450e-01,3.62368e-03
6.12266e-01,3.30270e-03
6.30615e-01,3.00796e-03
6.49515e-01,2.73744e-03
6.68981e-01,2.48931e-03
6.89031e-01,2.26184e-03
7.09681e-01,2.05342e-03
7.30950e-01,1.86256e-03
7.52857e-01,1.68790e-03
7.75420e-01,1.52814e-03
7.98660e-01,1.38210e-03
8.22596e-01,1.24868e-03
8.47249e-01,1.12687e-03
8.72642e-01,1.01570e-03
8.98795e-01,9.14323e-04
9.25732e-01,8.21919e-04
9.53477e-01,7.37745e-04
9.82052e-01,6.61113e-04
1.01148e+00,5.91386e-04
1.04180e+00,5.27980e-04
1.07302e+00,4.70353e-04
1.10518e+00,4.18008e-04
1.13830e+00,3.70488e-04
1.17242e+00,3.27371e-04
1.20756e+00,2.88271e-04
1.24375e+00,2.52832e-04
1.28102e+00,2.20730e-04
1.31942e+00,1.91664e-04
1.35896e+00,1.65361e-04
1.39969e+00,1.41571e-04
1.44164e+00,1.20063e-04
1.48484e+00,1.00629e-04
1.52934e+00,8.30773e-05
1.57518e+00,6.72321e-05
1.62239e+00,5.29344e-05
1.67101e+00,4.00387e-05
1.72109e+00,2.84127e-05
1.77267e+00,1.79356e-05
1.82580e+00,8.49800e-06
1.88052e+00,0.00000e+00
