m1=1632.068, m2=13.198, gsp=2.100, rhosp=5072.321
fGW[Hz],dPh[rad]
7.61856e-03,1.91765e+02
7.84672e-03,1.79339e+02
8.08172e-03,1.67717e+02
8.32376e-03,1.56847e+02
8.57304e-03,1.46682e+02
8.82979e-03,1.37174e+02
9.09424e-03,1.28282e+02
9.36660e-03,1.19966e+02
9.64711e-03,1.12188e+02
9.93603e-03,1.04914e+02
1.02336e-02,9.81115e+01
1.05401e-02,9.17490e+01
1.08557e-02,8.57987e+01
1.11809e-02,8.02337e+01
1.15157e-02,7.50291e+01
1.18606e-02,7.01616e+01
1.22158e-02,6.56094e+01
1.25816e-02,6.13521e+01
1.29584e-02,5.73705e+01
1.33465e-02,5.36469e+01
1.37462e-02,5.01645e+01
1.41579e-02,4.69077e+01
1.45819e-02,4.38619e+01
1.50186e-02,4.10135e+01
1.54684e-02,3.83497e+01
1.59317e-02,3.58585e+01
1.64088e-02,3.35287e+01
1.69003e-02,3.13499e+01
1.74064e-02,2.93124e+01
1.79277e-02,2.74069e+01
1.84646e-02,2.56249e+01
1.90176e-02,2.39585e+01
1.95871e-02,2.24001e+01
2.01737e-02,2.09428e+01
2.07779e-02,1.95800e+01
2.14002e-02,1.83055e+01
2.20411e-02,1.71138e+01
2.27012e-02,1.59993e+01
2.33811e-02,1.49571e+01
2.40813e-02,1.39826e+01
2.48025e-02,1.30713e+01
2.55453e-02,1.22191e+01
2.63104e-02,1.14223e+01
2.70983e-02,1.06771e+01
2.79099e-02,9.98040e+00
2.87457e-02,9.32890e+00
2.96066e-02,8.71971e+00
3.04933e-02,8.15009e+00
3.14065e-02,7.61747e+00
3.23471e-02,7.11946e+00
3.33159e-02,6.65382e+00
3.43136e-02,6.21845e+00
3.53413e-02,5.81138e+00
3.63997e-02,5.43078e+00
3.74898e-02,5.07493e+00
3.86126e-02,4.74224e+00
3.97690e-02,4.43120e+00
4.09600e-02,4.14040e+00
4.21867e-02,3.86853e+00
4.34502e-02,3.61436e+00
4.47514e-02,3.37676e+00
4.60917e-02,3.15463e+00
4.74721e-02,2.94698e+00
4.88938e-02,2.75288e+00
5.03581e-02,2.57143e+00
5.18663e-02,2.40181e+00
5.34196e-02,2.24327e+00
5.50194e-02,2.09508e+00
5.66672e-02,1.95657e+00
5.83643e-02,1.82711e+00
6.01122e-02,1.70611e+00
6.19125e-02,1.59302e+00
6.37667e-02,1.48733e+00
6.56764e-02,1.38856e+00
6.76433e-02,1.29626e+00
6.96692e-02,1.21001e+00
7.17557e-02,1.12941e+00
7.39046e-02,1.05410e+00
7.61180e-02,9.83725e-01
7.83976e-02,9.17976e-01
8.07455e-02,8.56548e-01
8.31637e-02,7.99158e-01
8.56544e-02,7.45545e-01
8.82196e-02,6.95462e-01
9.08617e-02,6.48679e-01
9.35829e-02,6.04981e-01
9.63855e-02,5.64167e-01
9.92721e-02,5.26048e-01
1.02245e-01,4.90450e-01
1.05307e-01,4.57207e-01
1.08461e-01,4.26165e-01
1.11709e-01,3.97181e-01
1.15055e-01,3.70121e-01
1.18501e-01,3.44858e-01
1.22050e-01,3.21275e-01
1.25705e-01,2.99262e-01
1.29470e-01,2.78716e-01
1.33347e-01,2.59541e-01
1.37341e-01,2.41647e-01
1.41454e-01,2.24951e-01
1.45690e-01,2.09373e-01
1.50053e-01,1.94840e-01
1.54547e-01,1.81284e-01
1.59176e-01,1.68640e-01
1.63943e-01,1.56848e-01
1.68853e-01,1.45852e-01
1.73909e-01,1.35600e-01
1.79118e-01,1.26042e-01
1.84482e-01,1.17133e-01
1.90007e-01,1.08830e-01
1.95698e-01,1.01092e-01
2.01558e-01,9.38829e-02
2.07595e-01,8.71668e-02
2.13812e-01,8.09111e-02
2.20215e-01,7.50854e-02
2.26811e-01,6.96609e-02
2.33603e-01,6.46109e-02
2.40599e-01,5.99106e-02
2.47805e-01,5.55364e-02
2.55226e-01,5.14666e-02
2.62870e-01,4.76808e-02
2.70743e-01,4.41599e-02
2.78851e-01,4.08862e-02
2.87202e-01,3.78429e-02
2.95804e-01,3.50145e-02
3.04663e-01,3.23865e-02
3.13787e-01,2.99454e-02
3.23184e-01,2.76784e-02
3.32863e-01,2.55736e-02
3.42832e-01,2.36201e-02
3.53099e-01,2.18075e-02
3.63674e-01,2.01261e-02
3.74566e-01,1.85669e-02
3.85784e-01,1.71215e-02
3.97337e-01,1.57821e-02
4.09237e-01,1.45412e-02
4.21493e-01,1.33920e-02
4.34116e-01,1.23282e-02
4.47117e-01,1.13438e-02
4.60508e-01,1.04331e-02
4.74300e-01,9.59099e-03
4.88504e-01,8.81264e-03
5.03134e-01,8.09348e-03
5.18202e-01,7.42931e-03
5.33722e-01,6.81617e-03
5.49706e-01,6.25041e-03
5.66169e-01,5.72859e-03
5.83125e-01,5.24752e-03
6.00589e-01,4.80423e-03
6.18576e-01,4.39596e-03
6.37101e-01,4.02011e-03
6.56181e-01,3.67428e-03
6.75833e-01,3.35625e-03
6.96073e-01,3.06392e-03
7.16920e-01,2.79536e-03
7.38391e-01,2.54876e-03
7.60505e-01,2.32246e-03
7.83281e-01,2.11490e-03
8.06739e-01,1.92463e-03
8.30900e-01,1.75030e-03
8.55784e-01,1.59067e-03
8.81413e-01,1.44459e-03
9.07811e-01,1.31097e-03
9.34998e-01,1.18884e-03
9.63000e-01,1.07726e-03
9.91841e-01,9.75376e-04
1.02155e+00,8.82408e-04
1.05214e+00,7.97622e-04
1.08365e+00,7.20343e-04
1.11610e+00,6.49947e-04
1.14953e+00,5.85859e-04
1.18396e+00,5.27546e-04
1.21941e+00,4.74519e-04
1.25593e+00,4.26326e-04
1.29355e+00,3.82552e-04
1.33229e+00,3.42814e-04
1.37219e+00,3.06759e-04
1.41328e+00,2.74064e-04
1.45561e+00,2.44434e-04
1.49920e+00,2.17594e-04
1.54410e+00,1.93294e-04
1.59034e+00,1.71307e-04
1.63797e+00,1.51422e-04
1.68703e+00,1.33448e-04
1.73755e+00,1.17208e-04
1.78959e+00,1.02544e-04
1.84319e+00,8.93071e-05
1.89839e+00,7.73654e-05
1.95524e+00,6.65970e-05
2.01380e+00,5.68907e-05
2.07411e+00,4.81458e-05
2.13622e+00,4.02704e-05
2.20020e+00,3.31810e-05
2.26609e+00,2.68017e-05
2.33396e+00,2.10638e-05
2.40386e+00,1.59046e-05
2.47585e+00,1.12676e-05
2.55000e+00,7.10141e-06
2.62637e+00,3.35957e-06
2.70503e+00,0.00000e+00
