m1=4861.918, m2=3.823, gsp=2.209, rhosp=8229.029
fGW[Hz],dPh[rad]
9.22054e-03,1.27824e+04
9.43551e-03,1.21292e+04
9.65548e-03,1.15088e+04
9.88059e-03,1.09194e+04
1.01109e-02,1.03597e+04
1.03467e-02,9.82801e+03
1.05879e-02,9.32306e+03
1.08347e-02,8.84348e+03
1.10873e-02,8.38803e+03
1.13458e-02,7.95551e+03
1.16103e-02,7.54477e+03
1.18810e-02,7.15473e+03
1.21580e-02,6.78437e+03
1.24415e-02,6.43270e+03
1.27315e-02,6.09879e+03
1.30284e-02,5.78177e+03
1.33321e-02,5.48078e+03
1.36429e-02,5.19504e+03
1.39610e-02,4.92378e+03
1.42865e-02,4.66628e+03
1.46195e-02,4.42186e+03
1.49604e-02,4.18986e+03
1.53092e-02,3.96966e+03
1.56661e-02,3.76067e+03
1.60313e-02,3.56234e+03
1.64051e-02,3.37413e+03
1.67875e-02,3.19554e+03
1.71789e-02,3.02608e+03
1.75794e-02,2.86530e+03
1.79893e-02,2.71276e+03
1.84087e-02,2.56805e+03
1.88379e-02,2.43078e+03
1.92770e-02,2.30058e+03
1.97265e-02,2.17708e+03
2.01864e-02,2.05996e+03
2.06570e-02,1.94889e+03
2.11386e-02,1.84357e+03
2.16314e-02,1.74371e+03
2.21357e-02,1.64904e+03
2.26518e-02,1.55929e+03
2.31799e-02,1.47421e+03
2.37203e-02,1.39357e+03
2.42733e-02,1.31715e+03
2.48392e-02,1.24473e+03
2.54183e-02,1.17611e+03
2.60109e-02,1.11110e+03
2.66174e-02,1.04951e+03
2.72379e-02,9.91165e+02
2.78729e-02,9.35910e+02
2.85228e-02,8.83583e+02
2.91877e-02,8.34034e+02
2.98682e-02,7.87123e+02
3.05646e-02,7.42714e+02
3.12771e-02,7.00680e+02
3.20063e-02,6.60899e+02
3.27525e-02,6.23256e+02
3.35161e-02,5.87640e+02
3.42975e-02,5.53948e+02
3.50971e-02,5.22080e+02
3.59154e-02,4.91943e+02
3.67527e-02,4.63446e+02
3.76095e-02,4.36506e+02
3.84864e-02,4.11041e+02
3.93836e-02,3.86975e+02
4.03018e-02,3.64234e+02
4.12414e-02,3.42751e+02
4.22029e-02,3.22458e+02
4.31868e-02,3.03294e+02
4.41937e-02,2.85200e+02
4.52240e-02,2.68118e+02
4.62784e-02,2.51997e+02
4.73573e-02,2.36785e+02
4.84614e-02,2.22433e+02
4.95912e-02,2.08897e+02
5.07474e-02,1.96132e+02
5.19305e-02,1.84098e+02
5.31412e-02,1.72755e+02
5.43801e-02,1.62066e+02
5.56479e-02,1.51996e+02
5.69453e-02,1.42511e+02
5.82729e-02,1.33581e+02
5.96315e-02,1.25173e+02
6.10217e-02,1.17261e+02
6.24444e-02,1.09816e+02
6.39002e-02,1.02814e+02
6.53900e-02,9.62287e+01
6.69145e-02,9.00382e+01
6.84745e-02,8.42203e+01
7.00709e-02,7.87540e+01
7.17046e-02,7.36198e+01
7.33763e-02,6.87988e+01
7.50870e-02,6.42733e+01
7.68375e-02,6.00266e+01
7.86289e-02,5.60427e+01
8.04621e-02,5.23065e+01
8.23379e-02,4.88038e+01
8.42576e-02,4.55210e+01
8.62219e-02,4.24454e+01
8.82321e-02,3.95648e+01
9.02891e-02,3.68678e+01
9.23941e-02,3.43434e+01
9.45482e-02,3.19816e+01
9.67525e-02,2.97725e+01
9.90082e-02,2.77071e+01
1.01316e-01,2.57765e+01
1.03679e-01,2.39727e+01
1.06096e-01,2.22880e+01
1.08569e-01,2.07149e+01
1.11100e-01,1.92467e+01
1.13691e-01,1.78769e+01
1.16341e-01,1.65992e+01
1.19053e-01,1.54080e+01
1.21829e-01,1.42977e+01
1.24669e-01,1.32633e+01
1.27576e-01,1.22998e+01
1.30550e-01,1.14029e+01
1.33594e-01,1.05680e+01
1.36708e-01,9.79131e+00
1.39896e-01,9.06893e+00
1.43157e-01,8.39733e+00
1.46495e-01,7.77313e+00
1.49910e-01,7.19321e+00
1.53405e-01,6.65461e+00
1.56982e-01,6.15454e+00
1.60641e-01,5.69042e+00
1.64387e-01,5.25980e+00
1.68219e-01,4.86040e+00
1.72141e-01,4.49008e+00
1.76154e-01,4.14683e+00
1.80261e-01,3.82877e+00
1.84464e-01,3.53416e+00
1.88764e-01,3.26134e+00
1.93165e-01,3.00879e+00
1.97669e-01,2.77507e+00
2.02277e-01,2.55884e+00
2.06993e-01,2.35885e+00
2.11819e-01,2.17393e+00
2.16757e-01,2.00301e+00
2.21810e-01,1.84506e+00
2.26982e-01,1.69914e+00
2.32273e-01,1.56437e+00
2.37689e-01,1.43994e+00
2.43230e-01,1.32507e+00
2.48901e-01,1.21907e+00
2.54704e-01,1.12127e+00
2.60642e-01,1.03106e+00
2.66718e-01,9.47869e-01
2.72937e-01,8.71173e-01
2.79300e-01,8.00479e-01
2.85811e-01,7.35332e-01
2.92475e-01,6.75312e-01
2.99294e-01,6.20025e-01
3.06271e-01,5.69110e-01
3.13412e-01,5.22230e-01
3.20718e-01,4.79074e-01
3.28196e-01,4.39355e-01
3.35847e-01,4.02805e-01
3.43677e-01,3.69177e-01
3.51690e-01,3.38245e-01
3.59889e-01,3.09796e-01
3.68279e-01,2.83636e-01
3.76865e-01,2.59585e-01
3.85652e-01,2.37476e-01
3.94643e-01,2.17156e-01
4.03843e-01,1.98482e-01
4.13258e-01,1.81324e-01
4.22893e-01,1.65561e-01
4.32752e-01,1.51082e-01
4.42842e-01,1.37784e-01
4.53166e-01,1.25572e-01
4.63731e-01,1.14359e-01
4.74542e-01,1.04064e-01
4.85606e-01,9.46143e-02
4.96927e-01,8.59403e-02
5.08512e-01,7.79796e-02
5.20368e-01,7.06743e-02
5.32500e-01,6.39712e-02
5.44914e-01,5.78213e-02
5.57618e-01,5.21794e-02
5.70619e-01,4.70042e-02
5.83922e-01,4.22574e-02
5.97536e-01,3.79039e-02
6.11466e-01,3.39116e-02
6.25722e-01,3.02508e-02
6.40310e-01,2.68941e-02
6.55238e-01,2.38167e-02
6.70514e-01,2.09954e-02
6.86147e-01,1.84092e-02
7.02144e-01,1.60386e-02
7.18513e-01,1.38658e-02
7.35265e-01,1.18744e-02
7.52407e-01,1.00495e-02
7.69948e-01,8.37707e-03
7.87899e-01,6.84461e-03
8.06268e-01,5.44045e-03
8.25065e-01,4.15392e-03
8.44300e-01,2.97523e-03
8.63984e-01,1.89539e-03
8.84127e-01,9.06169e-04
9.04740e-01,0.00000e+00
