m1=251452.567, m2=54.770, gsp=2.457, rhosp=10.592
fGW[Hz],dPh[rad]
1.26694e-03,7.09754e+04
1.28376e-03,6.81473e+04
1.30080e-03,6.54253e+04
1.31808e-03,6.28056e+04
1.33558e-03,6.02847e+04
1.35331e-03,5.78592e+04
1.37128e-03,5.55257e+04
1.38949e-03,5.32810e+04
1.40794e-03,5.11221e+04
1.42663e-03,4.90457e+04
1.44558e-03,4.70491e+04
1.46477e-03,4.51294e+04
1.48422e-03,4.32838e+04
1.50393e-03,4.15097e+04
1.52390e-03,3.98045e+04
1.54413e-03,3.81657e+04
1.56463e-03,3.65909e+04
1.58541e-03,3.50778e+04
1.60646e-03,3.36242e+04
1.62779e-03,3.22278e+04
1.64941e-03,3.08865e+04
1.67131e-03,2.95984e+04
1.69350e-03,2.83614e+04
1.71598e-03,2.71737e+04
1.73877e-03,2.60334e+04
1.76186e-03,2.49388e+04
1.78525e-03,2.38880e+04
1.80896e-03,2.28796e+04
1.83297e-03,2.19118e+04
1.85731e-03,2.09832e+04
1.88197e-03,2.00922e+04
1.90696e-03,1.92375e+04
1.93228e-03,1.84176e+04
1.95794e-03,1.76311e+04
1.98394e-03,1.68769e+04
2.01028e-03,1.61536e+04
2.03697e-03,1.54601e+04
2.06402e-03,1.47952e+04
2.09143e-03,1.41578e+04
2.11920e-03,1.35468e+04
2.14734e-03,1.29611e+04
2.17585e-03,1.23999e+04
2.20474e-03,1.18620e+04
2.23401e-03,1.13466e+04
2.26368e-03,1.08528e+04
2.29373e-03,1.03798e+04
2.32419e-03,9.92664e+03
2.35505e-03,9.49260e+03
2.38632e-03,9.07689e+03
2.41801e-03,8.67879e+03
2.45011e-03,8.29757e+03
2.48265e-03,7.93255e+03
2.51561e-03,7.58308e+03
2.54901e-03,7.24853e+03
2.58286e-03,6.92827e+03
2.61715e-03,6.62174e+03
2.65191e-03,6.32836e+03
2.68712e-03,6.04759e+03
2.72280e-03,5.77891e+03
2.75895e-03,5.52183e+03
2.79558e-03,5.27586e+03
2.83270e-03,5.04053e+03
2.87032e-03,4.81542e+03
2.90843e-03,4.60008e+03
2.94705e-03,4.39412e+03
2.98618e-03,4.19713e+03
3.02583e-03,4.00875e+03
3.06601e-03,3.82860e+03
3.10672e-03,3.65634e+03
3.14797e-03,3.49163e+03
3.18977e-03,3.33417e+03
3.23212e-03,3.18363e+03
3.27504e-03,3.03972e+03
3.31852e-03,2.90216e+03
3.36259e-03,2.77068e+03
3.40723e-03,2.64502e+03
3.45248e-03,2.52492e+03
3.49832e-03,2.41016e+03
3.54477e-03,2.30049e+03
3.59184e-03,2.19570e+03
3.63953e-03,2.09558e+03
3.68785e-03,1.99993e+03
3.73682e-03,1.90854e+03
3.78644e-03,1.82125e+03
3.83672e-03,1.73786e+03
3.88766e-03,1.65820e+03
3.93928e-03,1.58212e+03
3.99159e-03,1.50946e+03
4.04459e-03,1.44007e+03
4.09829e-03,1.37380e+03
4.15271e-03,1.31052e+03
4.20785e-03,1.25009e+03
4.26372e-03,1.19239e+03
4.32033e-03,1.13730e+03
4.37770e-03,1.08470e+03
4.43583e-03,1.03449e+03
4.49473e-03,9.86553e+02
4.55441e-03,9.40792e+02
4.61488e-03,8.97109e+02
4.67616e-03,8.55413e+02
4.73825e-03,8.15615e+02
4.80116e-03,7.77630e+02
4.86491e-03,7.41377e+02
4.92951e-03,7.06778e+02
4.99496e-03,6.73760e+02
5.06129e-03,6.42250e+02
5.12849e-03,6.12182e+02
5.19659e-03,5.83491e+02
5.26559e-03,5.56115e+02
5.33550e-03,5.29993e+02
5.40635e-03,5.05071e+02
5.47813e-03,4.81292e+02
5.55087e-03,4.58607e+02
5.62458e-03,4.36965e+02
5.69926e-03,4.16319e+02
5.77493e-03,3.96623e+02
5.85161e-03,3.77836e+02
5.92931e-03,3.59914e+02
6.00804e-03,3.42820e+02
6.08782e-03,3.26514e+02
6.16865e-03,3.10962e+02
6.25056e-03,2.96129e+02
6.33355e-03,2.81983e+02
6.41765e-03,2.68490e+02
6.50286e-03,2.55623e+02
6.58921e-03,2.43352e+02
6.67670e-03,2.31650e+02
6.76536e-03,2.20490e+02
6.85519e-03,2.09849e+02
6.94621e-03,1.99701e+02
7.03844e-03,1.90025e+02
7.13190e-03,1.80799e+02
7.22660e-03,1.72002e+02
7.32255e-03,1.63614e+02
7.41978e-03,1.55616e+02
7.51830e-03,1.47991e+02
7.61813e-03,1.40722e+02
7.71928e-03,1.33791e+02
7.82178e-03,1.27183e+02
7.92564e-03,1.20883e+02
8.03087e-03,1.14878e+02
8.13751e-03,1.09153e+02
8.24556e-03,1.03695e+02
8.35504e-03,9.84921e+01
8.46598e-03,9.35325e+01
8.57839e-03,8.88049e+01
8.69230e-03,8.42984e+01
8.80771e-03,8.00027e+01
8.92466e-03,7.59082e+01
9.04316e-03,7.20053e+01
9.16324e-03,6.82853e+01
9.28491e-03,6.47396e+01
9.40820e-03,6.13601e+01
9.53312e-03,5.81391e+01
9.65970e-03,5.50691e+01
9.78796e-03,5.21432e+01
9.91793e-03,4.93545e+01
1.00496e-02,4.66968e+01
1.01831e-02,4.41639e+01
1.03183e-02,4.17500e+01
1.04553e-02,3.94494e+01
1.05941e-02,3.72570e+01
1.07348e-02,3.51677e+01
1.08773e-02,3.31765e+01
1.10217e-02,3.12791e+01
1.11681e-02,2.94709e+01
1.13164e-02,2.77478e+01
1.14666e-02,2.61057e+01
1.16189e-02,2.45410e+01
1.17732e-02,2.30500e+01
1.19295e-02,2.16292e+01
1.20879e-02,2.02753e+01
1.22484e-02,1.89852e+01
1.24110e-02,1.77559e+01
1.25758e-02,1.65846e+01
1.27428e-02,1.54684e+01
1.29120e-02,1.44050e+01
1.30834e-02,1.33916e+01
1.32572e-02,1.24261e+01
1.34332e-02,1.15061e+01
1.36116e-02,1.06296e+01
1.37923e-02,9.79439e+00
1.39754e-02,8.99864e+00
1.41610e-02,8.24046e+00
1.43490e-02,7.51808e+00
1.45396e-02,6.82982e+00
1.47326e-02,6.17407e+00
1.49282e-02,5.54930e+00
1.51264e-02,4.95406e+00
1.53273e-02,4.38695e+00
1.55308e-02,3.84664e+00
1.57370e-02,3.33187e+00
1.59460e-02,2.84144e+00
1.61577e-02,2.37421e+00
1.63723e-02,1.92906e+00
1.65897e-02,1.50498e+00
1.68099e-02,1.10095e+00
1.70331e-02,7.16043e-01
1.72593e-02,3.49345e-01
1.74885e-02,0.00000e+00
