m1=378058.599, m2=7.401, gsp=2.403, rhosp=138.846
fGW[Hz],dPh[rad]
2.42352e-03,2.45401e+04
2.44270e-03,2.38328e+04
2.46202e-03,2.31457e+04
2.48151e-03,2.24783e+04
2.50114e-03,2.18300e+04
2.52093e-03,2.12003e+04
2.54088e-03,2.05887e+04
2.56098e-03,1.99945e+04
2.58125e-03,1.94174e+04
2.60167e-03,1.88569e+04
2.62226e-03,1.83124e+04
2.64301e-03,1.77835e+04
2.66392e-03,1.72698e+04
2.68500e-03,1.67708e+04
2.70625e-03,1.62861e+04
2.72766e-03,1.58154e+04
2.74924e-03,1.53581e+04
2.77100e-03,1.49140e+04
2.79292e-03,1.44826e+04
2.81502e-03,1.40636e+04
2.83730e-03,1.36566e+04
2.85975e-03,1.32613e+04
2.88238e-03,1.28774e+04
2.90518e-03,1.25045e+04
2.92817e-03,1.21423e+04
2.95134e-03,1.17905e+04
2.97469e-03,1.14488e+04
2.99823e-03,1.11169e+04
3.02196e-03,1.07946e+04
3.04587e-03,1.04815e+04
3.06997e-03,1.01774e+04
3.09426e-03,9.88204e+03
3.11874e-03,9.59519e+03
3.14342e-03,9.31659e+03
3.16829e-03,9.04599e+03
3.19336e-03,8.78317e+03
3.21863e-03,8.52792e+03
3.24410e-03,8.28000e+03
3.26977e-03,8.03921e+03
3.29564e-03,7.80535e+03
3.32172e-03,7.57822e+03
3.34800e-03,7.35763e+03
3.37450e-03,7.14338e+03
3.40120e-03,6.93529e+03
3.42811e-03,6.73320e+03
3.45523e-03,6.53692e+03
3.48257e-03,6.34629e+03
3.51013e-03,6.16114e+03
3.53791e-03,5.98133e+03
3.56590e-03,5.80670e+03
3.59412e-03,5.63709e+03
3.62256e-03,5.47237e+03
3.65122e-03,5.31239e+03
3.68011e-03,5.15702e+03
3.70923e-03,5.00612e+03
3.73858e-03,4.85957e+03
3.76816e-03,4.71724e+03
3.79798e-03,4.57901e+03
3.82803e-03,4.44477e+03
3.85832e-03,4.31439e+03
3.88885e-03,4.18777e+03
3.91962e-03,4.06480e+03
3.95064e-03,3.94537e+03
3.98190e-03,3.82939e+03
4.01340e-03,3.71675e+03
4.04516e-03,3.60735e+03
4.07717e-03,3.50111e+03
4.10943e-03,3.39793e+03
4.14195e-03,3.29773e+03
4.17472e-03,3.20042e+03
4.20775e-03,3.10591e+03
4.24105e-03,3.01413e+03
4.27461e-03,2.92499e+03
4.30843e-03,2.83842e+03
4.34252e-03,2.75436e+03
4.37688e-03,2.67271e+03
4.41152e-03,2.59343e+03
4.44642e-03,2.51642e+03
4.48161e-03,2.44165e+03
4.51707e-03,2.36902e+03
4.55281e-03,2.29850e+03
4.58883e-03,2.23001e+03
4.62514e-03,2.16349e+03
4.66174e-03,2.09890e+03
4.69863e-03,2.03616e+03
4.73581e-03,1.97524e+03
4.77328e-03,1.91608e+03
4.81105e-03,1.85863e+03
4.84912e-03,1.80283e+03
4.88749e-03,1.74864e+03
4.92616e-03,1.69602e+03
4.96514e-03,1.64492e+03
5.00443e-03,1.59529e+03
5.04403e-03,1.54710e+03
5.08394e-03,1.50030e+03
5.12416e-03,1.45484e+03
5.16471e-03,1.41071e+03
5.20558e-03,1.36784e+03
5.24677e-03,1.32622e+03
5.28828e-03,1.28579e+03
5.33013e-03,1.24653e+03
5.37230e-03,1.20841e+03
5.41481e-03,1.17139e+03
5.45766e-03,1.13544e+03
5.50084e-03,1.10053e+03
5.54437e-03,1.06662e+03
5.58824e-03,1.03369e+03
5.63246e-03,1.00172e+03
5.67703e-03,9.70670e+02
5.72195e-03,9.40516e+02
5.76722e-03,9.11234e+02
5.81286e-03,8.82798e+02
5.85885e-03,8.55184e+02
5.90521e-03,8.28367e+02
5.95194e-03,8.02326e+02
5.99903e-03,7.77037e+02
6.04650e-03,7.52479e+02
6.09435e-03,7.28630e+02
6.14257e-03,7.05471e+02
6.19117e-03,6.82981e+02
6.24016e-03,6.61142e+02
6.28954e-03,6.39933e+02
6.33930e-03,6.19338e+02
6.38947e-03,5.99338e+02
6.44002e-03,5.79916e+02
6.49098e-03,5.61056e+02
6.54234e-03,5.42740e+02
6.59411e-03,5.24955e+02
6.64629e-03,5.07683e+02
6.69888e-03,4.90911e+02
6.75188e-03,4.74624e+02
6.80531e-03,4.58808e+02
6.85916e-03,4.43449e+02
6.91343e-03,4.28534e+02
6.96814e-03,4.14050e+02
7.02327e-03,3.99986e+02
7.07884e-03,3.86328e+02
7.13486e-03,3.73065e+02
7.19131e-03,3.60185e+02
7.24822e-03,3.47678e+02
7.30557e-03,3.35533e+02
7.36338e-03,3.23739e+02
7.42164e-03,3.12286e+02
7.48036e-03,3.01164e+02
7.53955e-03,2.90364e+02
7.59921e-03,2.79876e+02
7.65934e-03,2.69692e+02
7.71995e-03,2.59803e+02
7.78103e-03,2.50199e+02
7.84260e-03,2.40873e+02
7.90466e-03,2.31817e+02
7.96721e-03,2.23023e+02
8.03025e-03,2.14483e+02
8.09379e-03,2.06191e+02
8.15783e-03,1.98138e+02
8.22238e-03,1.90318e+02
8.28744e-03,1.82725e+02
8.35302e-03,1.75351e+02
8.41911e-03,1.68191e+02
8.48573e-03,1.61238e+02
8.55288e-03,1.54485e+02
8.62055e-03,1.47929e+02
8.68876e-03,1.41562e+02
8.75752e-03,1.35379e+02
8.82681e-03,1.29375e+02
8.89666e-03,1.23545e+02
8.96705e-03,1.17884e+02
9.03801e-03,1.12386e+02
9.10952e-03,1.07048e+02
9.18160e-03,1.01864e+02
9.25425e-03,9.68297e+01
9.32748e-03,9.19414e+01
9.40128e-03,8.71946e+01
9.47567e-03,8.25851e+01
9.55065e-03,7.81091e+01
9.62622e-03,7.37626e+01
9.70239e-03,6.95419e+01
9.77916e-03,6.54433e+01
9.85654e-03,6.14634e+01
9.93453e-03,5.75987e+01
1.00131e-02,5.38458e+01
1.00924e-02,5.02016e+01
1.01722e-02,4.66629e+01
1.02527e-02,4.32265e+01
1.03338e-02,3.98897e+01
1.04156e-02,3.66494e+01
1.04980e-02,3.35029e+01
1.05811e-02,3.04475e+01
1.06648e-02,2.74806e+01
1.07492e-02,2.45995e+01
1.08343e-02,2.18019e+01
1.09200e-02,1.90852e+01
1.10064e-02,1.64472e+01
1.10935e-02,1.38855e+01
1.11813e-02,1.13981e+01
1.12697e-02,8.98257e+00
1.13589e-02,6.63702e+00
1.14488e-02,4.35938e+00
1.15394e-02,2.14767e+00
1.16307e-02,0.00000e+00
