m1=5298.953, m2=53.276, gsp=2.213, rhosp=103.739
fGW[Hz],dPh[rad]
3.36401e-03,2.68664e+02
3.45850e-03,2.52802e+02
3.55566e-03,2.37875e+02
3.65554e-03,2.23828e+02
3.75823e-03,2.10609e+02
3.86380e-03,1.98170e+02
3.97234e-03,1.86465e+02
4.08393e-03,1.75449e+02
4.19865e-03,1.65083e+02
4.31659e-03,1.55329e+02
4.43785e-03,1.46149e+02
4.56251e-03,1.37511e+02
4.69068e-03,1.29383e+02
4.82245e-03,1.21734e+02
4.95791e-03,1.14536e+02
5.09719e-03,1.07763e+02
5.24037e-03,1.01389e+02
5.38758e-03,9.53916e+01
5.53892e-03,8.97478e+01
5.69452e-03,8.44371e+01
5.85448e-03,7.94397e+01
6.01894e-03,7.47372e+01
6.18802e-03,7.03123e+01
6.36185e-03,6.61486e+01
6.54056e-03,6.22306e+01
6.72429e-03,5.85439e+01
6.91318e-03,5.50748e+01
7.10738e-03,5.18106e+01
7.30703e-03,4.87391e+01
7.51230e-03,4.58489e+01
7.72333e-03,4.31295e+01
7.94028e-03,4.05707e+01
8.16333e-03,3.81631e+01
8.39265e-03,3.58976e+01
8.62841e-03,3.37661e+01
8.87079e-03,3.17605e+01
9.11998e-03,2.98734e+01
9.37617e-03,2.80979e+01
9.63956e-03,2.64273e+01
9.91034e-03,2.48555e+01
1.01887e-02,2.33767e+01
1.04749e-02,2.19853e+01
1.07692e-02,2.06762e+01
1.10717e-02,1.94446e+01
1.13827e-02,1.82858e+01
1.17025e-02,1.71957e+01
1.20312e-02,1.61700e+01
1.23692e-02,1.52051e+01
1.27167e-02,1.42973e+01
1.30739e-02,1.34433e+01
1.34411e-02,1.26399e+01
1.38187e-02,1.18841e+01
1.42069e-02,1.11732e+01
1.46060e-02,1.05043e+01
1.50163e-02,9.87513e+00
1.54381e-02,9.28328e+00
1.58718e-02,8.72655e+00
1.63176e-02,8.20286e+00
1.67760e-02,7.71026e+00
1.72473e-02,7.24692e+00
1.77318e-02,6.81111e+00
1.82299e-02,6.40120e+00
1.87420e-02,6.01566e+00
1.92684e-02,5.65306e+00
1.98097e-02,5.31202e+00
2.03662e-02,4.99129e+00
2.09383e-02,4.68966e+00
2.15265e-02,4.40599e+00
2.21312e-02,4.13923e+00
2.27529e-02,3.88838e+00
2.33920e-02,3.65250e+00
2.40491e-02,3.43069e+00
2.47247e-02,3.22213e+00
2.54192e-02,3.02603e+00
2.61333e-02,2.84166e+00
2.68674e-02,2.66832e+00
2.76221e-02,2.50535e+00
2.83981e-02,2.35214e+00
2.91958e-02,2.20812e+00
3.00160e-02,2.07274e+00
3.08591e-02,1.94548e+00
3.17260e-02,1.82586e+00
3.26172e-02,1.71344e+00
3.35335e-02,1.60778e+00
3.44755e-02,1.50848e+00
3.54439e-02,1.41517e+00
3.64396e-02,1.32748e+00
3.74632e-02,1.24509e+00
3.85156e-02,1.16768e+00
3.95975e-02,1.09495e+00
4.07099e-02,1.02662e+00
4.18534e-02,9.62436e-01
4.30292e-02,9.02147e-01
4.42379e-02,8.45521e-01
4.54806e-02,7.92340e-01
4.67582e-02,7.42399e-01
4.80717e-02,6.95502e-01
4.94221e-02,6.51470e-01
5.08104e-02,6.10131e-01
5.22377e-02,5.71323e-01
5.37051e-02,5.34895e-01
5.52137e-02,5.00705e-01
5.67647e-02,4.68619e-01
5.83593e-02,4.38509e-01
5.99987e-02,4.10259e-01
6.16841e-02,3.83756e-01
6.34169e-02,3.58894e-01
6.51984e-02,3.35576e-01
6.70298e-02,3.13708e-01
6.89128e-02,2.93203e-01
7.08486e-02,2.73979e-01
7.28388e-02,2.55957e-01
7.48850e-02,2.39066e-01
7.69886e-02,2.23238e-01
7.91512e-02,2.08406e-01
8.13747e-02,1.94512e-01
8.36606e-02,1.81498e-01
8.60107e-02,1.69310e-01
8.84268e-02,1.57898e-01
9.09108e-02,1.47215e-01
9.34646e-02,1.37217e-01
9.60902e-02,1.27860e-01
9.87894e-02,1.19106e-01
1.01565e-01,1.10918e-01
1.04418e-01,1.03261e-01
1.07351e-01,9.61024e-02
1.10366e-01,8.94109e-02
1.13467e-01,8.31576e-02
1.16654e-01,7.73156e-02
1.19931e-01,7.18590e-02
1.23300e-01,6.67639e-02
1.26764e-01,6.20076e-02
1.30325e-01,5.75689e-02
1.33986e-01,5.34278e-02
1.37749e-01,4.95655e-02
1.41619e-01,4.59643e-02
1.45597e-01,4.26077e-02
1.49687e-01,3.94801e-02
1.53892e-01,3.65668e-02
1.58215e-01,3.38541e-02
1.62659e-01,3.13290e-02
1.67229e-01,2.89795e-02
1.71926e-01,2.67942e-02
1.76756e-01,2.47623e-02
1.81721e-01,2.28738e-02
1.86826e-01,2.11192e-02
1.92074e-01,1.94899e-02
1.97470e-01,1.79773e-02
2.03017e-01,1.65738e-02
2.08720e-01,1.52720e-02
2.14583e-01,1.40652e-02
2.20611e-01,1.29468e-02
2.26808e-01,1.19108e-02
2.33179e-01,1.09517e-02
2.39729e-01,1.00641e-02
2.46464e-01,9.24312e-03
2.53387e-01,8.48406e-03
2.60505e-01,7.78262e-03
2.67823e-01,7.13473e-03
2.75346e-01,6.53661e-03
2.83081e-01,5.98471e-03
2.91033e-01,5.47570e-03
2.99209e-01,5.00649e-03
3.07614e-01,4.57419e-03
3.16255e-01,4.17610e-03
3.25139e-01,3.80970e-03
3.34272e-01,3.47264e-03
3.43662e-01,3.16272e-03
3.53316e-01,2.87792e-03
3.63241e-01,2.61632e-03
3.73445e-01,2.37617e-03
3.83936e-01,2.15581e-03
3.94721e-01,1.95372e-03
4.05809e-01,1.76848e-03
4.17208e-01,1.59877e-03
4.28928e-01,1.44337e-03
4.40977e-01,1.30113e-03
4.53365e-01,1.17102e-03
4.66100e-01,1.05205e-03
4.79194e-01,9.43320e-04
4.92655e-01,8.44003e-04
5.06494e-01,7.53323e-04
5.20722e-01,6.70568e-04
5.35349e-01,5.95081e-04
5.50388e-01,5.26255e-04
5.65849e-01,4.63529e-04
5.81744e-01,4.06389e-04
5.98086e-01,3.54359e-04
6.14887e-01,3.07002e-04
6.32160e-01,2.63917e-04
6.49918e-01,2.24735e-04
6.68175e-01,1.89115e-04
6.86945e-01,1.56747e-04
7.06242e-01,1.27345e-04
7.26081e-01,1.00647e-04
7.46477e-01,7.64138e-05
7.67446e-01,5.44249e-05
7.89005e-01,3.44795e-05
8.11169e-01,1.63939e-05
8.33955e-01,0.00000e+00
