m1=76035.349, m2=57.589, gsp=2.064, rhosp=424.110
fGW[Hz],dPh[rad]
1.67676e-03,1.78143e+02
1.70686e-03,1.70219e+02
1.73750e-03,1.62631e+02
1.76870e-03,1.55367e+02
1.80045e-03,1.48413e+02
1.83278e-03,1.41757e+02
1.86568e-03,1.35385e+02
1.89917e-03,1.29286e+02
1.93327e-03,1.23450e+02
1.96798e-03,1.17864e+02
2.00331e-03,1.12519e+02
2.03928e-03,1.07405e+02
2.07589e-03,1.02512e+02
2.11316e-03,9.78307e+01
2.15110e-03,9.33527e+01
2.18971e-03,8.90694e+01
2.22903e-03,8.49726e+01
2.26905e-03,8.10547e+01
2.30978e-03,7.73080e+01
2.35125e-03,7.37255e+01
2.39346e-03,7.03003e+01
2.43643e-03,6.70258e+01
2.48018e-03,6.38957e+01
2.52470e-03,6.09038e+01
2.57003e-03,5.80445e+01
2.61617e-03,5.53120e+01
2.66314e-03,5.27010e+01
2.71095e-03,5.02065e+01
2.75962e-03,4.78234e+01
2.80916e-03,4.55471e+01
2.85960e-03,4.33729e+01
2.91094e-03,4.12967e+01
2.96320e-03,3.93141e+01
3.01640e-03,3.74211e+01
3.07055e-03,3.56141e+01
3.12568e-03,3.38892e+01
3.18179e-03,3.22429e+01
3.23892e-03,3.06719e+01
3.29707e-03,2.91729e+01
3.35626e-03,2.77428e+01
3.41652e-03,2.63787e+01
3.47785e-03,2.50775e+01
3.54029e-03,2.38367e+01
3.60385e-03,2.26536e+01
3.66855e-03,2.15257e+01
3.73442e-03,2.04505e+01
3.80146e-03,1.94258e+01
3.86971e-03,1.84492e+01
3.93918e-03,1.75188e+01
4.00990e-03,1.66324e+01
4.08189e-03,1.57881e+01
4.15518e-03,1.49841e+01
4.22978e-03,1.42185e+01
4.30572e-03,1.34896e+01
4.38302e-03,1.27958e+01
4.46171e-03,1.21355e+01
4.54181e-03,1.15072e+01
4.62335e-03,1.09094e+01
4.70635e-03,1.03407e+01
4.79085e-03,9.79995e+00
4.87686e-03,9.28571e+00
4.96441e-03,8.79682e+00
5.05354e-03,8.33211e+00
5.14427e-03,7.89046e+00
5.23663e-03,7.47081e+00
5.33064e-03,7.07214e+00
5.42634e-03,6.69347e+00
5.52376e-03,6.33387e+00
5.62293e-03,5.99244e+00
5.72388e-03,5.66833e+00
5.82664e-03,5.36072e+00
5.93125e-03,5.06883e+00
6.03774e-03,4.79190e+00
6.14613e-03,4.52923e+00
6.25648e-03,4.28013e+00
6.36880e-03,4.04395e+00
6.48314e-03,3.82007e+00
6.59954e-03,3.60788e+00
6.71802e-03,3.40681e+00
6.83863e-03,3.21633e+00
6.96141e-03,3.03592e+00
7.08638e-03,2.86507e+00
7.21361e-03,2.70332e+00
7.34312e-03,2.55021e+00
7.47495e-03,2.40531e+00
7.60915e-03,2.26821e+00
7.74576e-03,2.13852e+00
7.88482e-03,2.01586e+00
8.02638e-03,1.89988e+00
8.17048e-03,1.79023e+00
8.31716e-03,1.68659e+00
8.46648e-03,1.58866e+00
8.61849e-03,1.49613e+00
8.77322e-03,1.40873e+00
8.93072e-03,1.32620e+00
9.09106e-03,1.24827e+00
9.25427e-03,1.17470e+00
9.42042e-03,1.10528e+00
9.58954e-03,1.03976e+00
9.76171e-03,9.77961e-01
9.93696e-03,9.19667e-01
1.01154e-02,8.64696e-01
1.02970e-02,8.12869e-01
1.04818e-02,7.64015e-01
1.06700e-02,7.17973e-01
1.08616e-02,6.74590e-01
1.10566e-02,6.33721e-01
1.12551e-02,5.95228e-01
1.14571e-02,5.58979e-01
1.16628e-02,5.24851e-01
1.18722e-02,4.92725e-01
1.20854e-02,4.62489e-01
1.23023e-02,4.34039e-01
1.25232e-02,4.07273e-01
1.27480e-02,3.82097e-01
1.29769e-02,3.58419e-01
1.32099e-02,3.36156e-01
1.34470e-02,3.15227e-01
1.36885e-02,2.95554e-01
1.39342e-02,2.77066e-01
1.41844e-02,2.59695e-01
1.44390e-02,2.43376e-01
1.46983e-02,2.28047e-01
1.49621e-02,2.13651e-01
1.52308e-02,2.00133e-01
1.55042e-02,1.87443e-01
1.57826e-02,1.75530e-01
1.60659e-02,1.64350e-01
1.63543e-02,1.53858e-01
1.66480e-02,1.44015e-01
1.69468e-02,1.34781e-01
1.72511e-02,1.26119e-01
1.75608e-02,1.17996e-01
1.78761e-02,1.10379e-01
1.81970e-02,1.03238e-01
1.85237e-02,9.65435e-02
1.88563e-02,9.02687e-02
1.91948e-02,8.43880e-02
1.95394e-02,7.88775e-02
1.98902e-02,7.37145e-02
2.02473e-02,6.88776e-02
2.06108e-02,6.43469e-02
2.09808e-02,6.01035e-02
2.13575e-02,5.61296e-02
2.17409e-02,5.24086e-02
2.21313e-02,4.89248e-02
2.25286e-02,4.56633e-02
2.29331e-02,4.26105e-02
2.33448e-02,3.97531e-02
2.37639e-02,3.70790e-02
2.41905e-02,3.45767e-02
2.46248e-02,3.22354e-02
2.50669e-02,3.00450e-02
2.55170e-02,2.79958e-02
2.59751e-02,2.60791e-02
2.64414e-02,2.42863e-02
2.69161e-02,2.26097e-02
2.73994e-02,2.10419e-02
2.78913e-02,1.95758e-02
2.83920e-02,1.82051e-02
2.89017e-02,1.69236e-02
2.94206e-02,1.57257e-02
2.99488e-02,1.46059e-02
3.04865e-02,1.35593e-02
3.10338e-02,1.25811e-02
3.15910e-02,1.16669e-02
3.21581e-02,1.08126e-02
3.27355e-02,1.00144e-02
3.33232e-02,9.26858e-03
3.39214e-02,8.57178e-03
3.45304e-02,7.92081e-03
3.51504e-02,7.31271e-03
3.57814e-02,6.74467e-03
3.64238e-02,6.21411e-03
3.70778e-02,5.71857e-03
3.77434e-02,5.25576e-03
3.84210e-02,4.82355e-03
3.91108e-02,4.41995e-03
3.98130e-02,4.04307e-03
4.05278e-02,3.69116e-03
4.12554e-02,3.36259e-03
4.19960e-02,3.05582e-03
4.27500e-02,2.76943e-03
4.35175e-02,2.50206e-03
4.42988e-02,2.25247e-03
4.50941e-02,2.01949e-03
4.59037e-02,1.80202e-03
4.67278e-02,1.59904e-03
4.75667e-02,1.40958e-03
4.84207e-02,1.23276e-03
4.92900e-02,1.06774e-03
5.01749e-02,9.13734e-04
5.10757e-02,7.70016e-04
5.19927e-02,6.35902e-04
5.29261e-02,5.10755e-04
5.38763e-02,3.93979e-04
5.48436e-02,2.85019e-04
5.58282e-02,1.83354e-04
5.68305e-02,8.84988e-05
5.78508e-02,0.00000e+00
