m1=7444.988, m2=27.248, gsp=2.162, rhosp=2087.376
fGW[Hz],dPh[rad]
3.97002e-03,6.80431e+02
4.07112e-03,6.43097e+02
4.17479e-03,6.07802e+02
4.28111e-03,5.74434e+02
4.39013e-03,5.42889e+02
4.50193e-03,5.13066e+02
4.61657e-03,4.84873e+02
4.73413e-03,4.58220e+02
4.85469e-03,4.33024e+02
4.97832e-03,4.09204e+02
5.10509e-03,3.86687e+02
5.23510e-03,3.65401e+02
5.36841e-03,3.45278e+02
5.50512e-03,3.26257e+02
5.64531e-03,3.08275e+02
5.78908e-03,2.91278e+02
5.93650e-03,2.75210e+02
6.08767e-03,2.60022e+02
6.24270e-03,2.45665e+02
6.40167e-03,2.32095e+02
6.56470e-03,2.19267e+02
6.73187e-03,2.07143e+02
6.90330e-03,1.95682e+02
7.07910e-03,1.84850e+02
7.25937e-03,1.74612e+02
7.44424e-03,1.64935e+02
7.63381e-03,1.55789e+02
7.82821e-03,1.47144e+02
8.02756e-03,1.38974e+02
8.23198e-03,1.31253e+02
8.44162e-03,1.23956e+02
8.65659e-03,1.17059e+02
8.87703e-03,1.10542e+02
9.10309e-03,1.04383e+02
9.33491e-03,9.85623e+01
9.57263e-03,9.30621e+01
9.81640e-03,8.78646e+01
1.00664e-02,8.29532e+01
1.03227e-02,7.83124e+01
1.05856e-02,7.39274e+01
1.08552e-02,6.97841e+01
1.11316e-02,6.58693e+01
1.14151e-02,6.21706e+01
1.17058e-02,5.86761e+01
1.20039e-02,5.53746e+01
1.23095e-02,5.22556e+01
1.26230e-02,4.93091e+01
1.29445e-02,4.65257e+01
1.32741e-02,4.38964e+01
1.36121e-02,4.14127e+01
1.39588e-02,3.90667e+01
1.43142e-02,3.68509e+01
1.46788e-02,3.47580e+01
1.50526e-02,3.27814e+01
1.54359e-02,3.09147e+01
1.58290e-02,2.91519e+01
1.62321e-02,2.74872e+01
1.66454e-02,2.59153e+01
1.70693e-02,2.44310e+01
1.75040e-02,2.30296e+01
1.79497e-02,2.17065e+01
1.84068e-02,2.04573e+01
1.88756e-02,1.92781e+01
1.93563e-02,1.81650e+01
1.98492e-02,1.71143e+01
2.03547e-02,1.61225e+01
2.08730e-02,1.51866e+01
2.14045e-02,1.43032e+01
2.19496e-02,1.34697e+01
2.25086e-02,1.26832e+01
2.30818e-02,1.19410e+01
2.36696e-02,1.12409e+01
2.42723e-02,1.05804e+01
2.48904e-02,9.95732e+00
2.55243e-02,9.36964e+00
2.61743e-02,8.81537e+00
2.68408e-02,8.29266e+00
2.75243e-02,7.79977e+00
2.82253e-02,7.33504e+00
2.89440e-02,6.89690e+00
2.96811e-02,6.48387e+00
3.04370e-02,6.09456e+00
3.12121e-02,5.72764e+00
3.20069e-02,5.38187e+00
3.28220e-02,5.05606e+00
3.36578e-02,4.74910e+00
3.45149e-02,4.45994e+00
3.53938e-02,4.18758e+00
3.62952e-02,3.93107e+00
3.72194e-02,3.68953e+00
3.81673e-02,3.46212e+00
3.91392e-02,3.24804e+00
4.01359e-02,3.04654e+00
4.11580e-02,2.85690e+00
4.22061e-02,2.67847e+00
4.32809e-02,2.51061e+00
4.43831e-02,2.35271e+00
4.55133e-02,2.20421e+00
4.66724e-02,2.06458e+00
4.78609e-02,1.93331e+00
4.90797e-02,1.80992e+00
5.03295e-02,1.69397e+00
5.16112e-02,1.58503e+00
5.29255e-02,1.48269e+00
5.42733e-02,1.38658e+00
5.56554e-02,1.29633e+00
5.70727e-02,1.21162e+00
5.85261e-02,1.13210e+00
6.00165e-02,1.05750e+00
6.15449e-02,9.87513e-01
6.31121e-02,9.21877e-01
6.47193e-02,8.60336e-01
6.63674e-02,8.02651e-01
6.80575e-02,7.48593e-01
6.97906e-02,6.97948e-01
7.15679e-02,6.50516e-01
7.33904e-02,6.06104e-01
7.52594e-02,5.64532e-01
7.71759e-02,5.25631e-01
7.91412e-02,4.89240e-01
8.11566e-02,4.55209e-01
8.32233e-02,4.23393e-01
8.53426e-02,3.93659e-01
8.75159e-02,3.65879e-01
8.97446e-02,3.39934e-01
9.20300e-02,3.15711e-01
9.43735e-02,2.93104e-01
9.67768e-02,2.72013e-01
9.92413e-02,2.52342e-01
1.01769e-01,2.34003e-01
1.04360e-01,2.16913e-01
1.07018e-01,2.00991e-01
1.09743e-01,1.86165e-01
1.12538e-01,1.72363e-01
1.15404e-01,1.59521e-01
1.18342e-01,1.47575e-01
1.21356e-01,1.36469e-01
1.24446e-01,1.26147e-01
1.27615e-01,1.16557e-01
1.30865e-01,1.07652e-01
1.34198e-01,9.93860e-02
1.37615e-01,9.17161e-02
1.41120e-01,8.46025e-02
1.44713e-01,7.80076e-02
1.48399e-01,7.18960e-02
1.52178e-01,6.62349e-02
1.56053e-01,6.09931e-02
1.60027e-01,5.61417e-02
1.64102e-01,5.16536e-02
1.68281e-01,4.75032e-02
1.72566e-01,4.36668e-02
1.76961e-01,4.01221e-02
1.81467e-01,3.68483e-02
1.86089e-01,3.38260e-02
1.90827e-01,3.10370e-02
1.95687e-01,2.84643e-02
2.00670e-01,2.60923e-02
2.05780e-01,2.39060e-02
2.11021e-01,2.18919e-02
2.16395e-01,2.00370e-02
2.21905e-01,1.83294e-02
2.27556e-01,1.67582e-02
2.33351e-01,1.53128e-02
2.39293e-01,1.39839e-02
2.45387e-01,1.27624e-02
2.51636e-01,1.16402e-02
2.58044e-01,1.06094e-02
2.64615e-01,9.66306e-03
2.71354e-01,8.79451e-03
2.78264e-01,7.99764e-03
2.85350e-01,7.26678e-03
2.92617e-01,6.59671e-03
3.00069e-01,5.98256e-03
3.07710e-01,5.41985e-03
3.15546e-01,4.90444e-03
3.23582e-01,4.43250e-03
3.31822e-01,4.00050e-03
3.40272e-01,3.60518e-03
3.48937e-01,3.24352e-03
3.57823e-01,2.91275e-03
3.66935e-01,2.61033e-03
3.76279e-01,2.33389e-03
3.85861e-01,2.08128e-03
3.95688e-01,1.85049e-03
4.05764e-01,1.63970e-03
4.16097e-01,1.44722e-03
4.26693e-01,1.27150e-03
4.37559e-01,1.11111e-03
4.48702e-01,9.64767e-04
4.60128e-01,8.31255e-04
4.71846e-01,7.09477e-04
4.83862e-01,5.98426e-04
4.96183e-01,4.97177e-04
5.08819e-01,4.04883e-04
5.21776e-01,3.20768e-04
5.35064e-01,2.44121e-04
5.48689e-01,1.74291e-04
5.62662e-01,1.10683e-04
5.76991e-01,5.27519e-05
5.91684e-01,0.00000e+00
