m1=226176.632, m2=21.520, gsp=2.178, rhosp=73.450
fGW[Hz],dPh[rad]
1.84666e-03,9.71313e+02
1.86864e-03,9.31295e+02
1.89087e-03,8.92874e+02
1.91337e-03,8.55989e+02
1.93614e-03,8.20581e+02
1.95918e-03,7.86594e+02
1.98249e-03,7.53972e+02
2.00608e-03,7.22664e+02
2.02996e-03,6.92619e+02
2.05411e-03,6.63786e+02
2.07856e-03,6.36121e+02
2.10329e-03,6.09576e+02
2.12832e-03,5.84109e+02
2.15364e-03,5.59677e+02
2.17927e-03,5.36239e+02
2.20520e-03,5.13758e+02
2.23144e-03,4.92194e+02
2.25800e-03,4.71513e+02
2.28487e-03,4.51678e+02
2.31206e-03,4.32658e+02
2.33957e-03,4.14419e+02
2.36741e-03,3.96930e+02
2.39558e-03,3.80161e+02
2.42409e-03,3.64085e+02
2.45293e-03,3.48673e+02
2.48212e-03,3.33898e+02
2.51166e-03,3.19735e+02
2.54154e-03,3.06160e+02
2.57179e-03,2.93149e+02
2.60239e-03,2.80678e+02
2.63336e-03,2.68727e+02
2.66469e-03,2.57275e+02
2.69640e-03,2.46300e+02
2.72849e-03,2.35784e+02
2.76096e-03,2.25708e+02
2.79381e-03,2.16054e+02
2.82706e-03,2.06805e+02
2.86070e-03,1.97945e+02
2.89474e-03,1.89456e+02
2.92918e-03,1.81326e+02
2.96404e-03,1.73537e+02
2.99931e-03,1.66077e+02
3.03500e-03,1.58933e+02
3.07112e-03,1.52090e+02
3.10766e-03,1.45536e+02
3.14464e-03,1.39261e+02
3.18206e-03,1.33251e+02
3.21993e-03,1.27496e+02
3.25824e-03,1.21986e+02
3.29701e-03,1.16710e+02
3.33625e-03,1.11659e+02
3.37595e-03,1.06822e+02
3.41612e-03,1.02192e+02
3.45677e-03,9.77600e+01
3.49790e-03,9.35169e+01
3.53953e-03,8.94552e+01
3.58165e-03,8.55673e+01
3.62427e-03,8.18459e+01
3.66739e-03,7.82840e+01
3.71103e-03,7.48749e+01
3.75519e-03,7.16121e+01
3.79988e-03,6.84895e+01
3.84510e-03,6.55012e+01
3.89085e-03,6.26415e+01
3.93715e-03,5.99049e+01
3.98400e-03,5.72862e+01
4.03141e-03,5.47805e+01
4.07938e-03,5.23829e+01
4.12793e-03,5.00888e+01
4.17705e-03,4.78939e+01
4.22675e-03,4.57939e+01
4.27705e-03,4.37848e+01
4.32794e-03,4.18627e+01
4.37944e-03,4.00239e+01
4.43156e-03,3.82648e+01
4.48429e-03,3.65820e+01
4.53765e-03,3.49723e+01
4.59165e-03,3.34325e+01
4.64629e-03,3.19596e+01
4.70158e-03,3.05508e+01
4.75752e-03,2.92033e+01
4.81413e-03,2.79144e+01
4.87142e-03,2.66817e+01
4.92939e-03,2.55028e+01
4.98805e-03,2.43752e+01
5.04740e-03,2.32969e+01
5.10746e-03,2.22656e+01
5.16824e-03,2.12794e+01
5.22974e-03,2.03362e+01
5.29197e-03,1.94344e+01
5.35494e-03,1.85719e+01
5.41867e-03,1.77472e+01
5.48315e-03,1.69586e+01
5.54839e-03,1.62046e+01
5.61442e-03,1.54836e+01
5.68123e-03,1.47942e+01
5.74883e-03,1.41350e+01
5.81724e-03,1.35048e+01
5.88646e-03,1.29022e+01
5.95651e-03,1.23261e+01
6.02739e-03,1.17754e+01
6.09911e-03,1.12488e+01
6.17169e-03,1.07454e+01
6.24513e-03,1.02641e+01
6.31944e-03,9.80397e+00
6.39464e-03,9.36412e+00
6.47074e-03,8.94363e+00
6.54773e-03,8.54167e+00
6.62565e-03,8.15742e+00
6.70449e-03,7.79011e+00
6.78427e-03,7.43900e+00
6.86500e-03,7.10338e+00
6.94669e-03,6.78256e+00
7.02936e-03,6.47590e+00
7.11300e-03,6.18279e+00
7.19765e-03,5.90261e+00
7.28329e-03,5.63482e+00
7.36996e-03,5.37886e+00
7.45766e-03,5.13422e+00
7.54640e-03,4.90039e+00
7.63620e-03,4.67690e+00
7.72707e-03,4.46331e+00
7.81902e-03,4.25916e+00
7.91206e-03,4.06405e+00
8.00621e-03,3.87758e+00
8.10148e-03,3.69937e+00
8.19789e-03,3.52905e+00
8.29544e-03,3.36628e+00
8.39415e-03,3.21073e+00
8.49404e-03,3.06207e+00
8.59512e-03,2.92000e+00
8.69739e-03,2.78423e+00
8.80089e-03,2.65448e+00
8.90562e-03,2.53050e+00
9.01159e-03,2.41201e+00
9.11882e-03,2.29879e+00
9.22733e-03,2.19059e+00
9.33713e-03,2.08719e+00
9.44824e-03,1.98839e+00
9.56067e-03,1.89398e+00
9.67444e-03,1.80376e+00
9.78956e-03,1.71756e+00
9.90605e-03,1.63518e+00
1.00239e-02,1.55647e+00
1.01432e-02,1.48125e+00
1.02639e-02,1.40939e+00
1.03860e-02,1.34072e+00
1.05096e-02,1.27510e+00
1.06347e-02,1.21240e+00
1.07612e-02,1.15250e+00
1.08893e-02,1.09526e+00
1.10189e-02,1.04057e+00
1.11500e-02,9.88310e-01
1.12827e-02,9.38381e-01
1.14169e-02,8.90675e-01
1.15528e-02,8.45095e-01
1.16903e-02,8.01545e-01
1.18294e-02,7.59936e-01
1.19701e-02,7.20181e-01
1.21126e-02,6.82197e-01
1.22567e-02,6.45907e-01
1.24026e-02,6.11235e-01
1.25502e-02,5.78108e-01
1.26995e-02,5.46459e-01
1.28506e-02,5.16221e-01
1.30035e-02,4.87332e-01
1.31583e-02,4.59731e-01
1.33148e-02,4.33362e-01
1.34733e-02,4.08169e-01
1.36336e-02,3.84101e-01
1.37958e-02,3.61107e-01
1.39600e-02,3.39138e-01
1.41261e-02,3.18151e-01
1.42942e-02,2.98100e-01
1.44643e-02,2.78945e-01
1.46364e-02,2.60645e-01
1.48106e-02,2.43162e-01
1.49868e-02,2.26460e-01
1.51652e-02,2.10503e-01
1.53456e-02,1.95260e-01
1.55283e-02,1.80697e-01
1.57130e-02,1.66785e-01
1.59000e-02,1.53495e-01
1.60892e-02,1.40798e-01
1.62807e-02,1.28669e-01
1.64744e-02,1.17082e-01
1.66704e-02,1.06012e-01
1.68688e-02,9.54378e-02
1.70695e-02,8.53359e-02
1.72727e-02,7.56856e-02
1.74782e-02,6.64667e-02
1.76862e-02,5.76600e-02
1.78966e-02,4.92471e-02
1.81096e-02,4.12104e-02
1.83251e-02,3.35331e-02
1.85432e-02,2.61991e-02
1.87638e-02,1.91931e-02
1.89871e-02,1.25005e-02
1.92130e-02,6.10726e-03
1.94417e-02,0.00000e+00
