m1=433739.994, m2=6.652, gsp=2.029, rhosp=1820.140
fGW[Hz],dPh[rad]
2.43729e-03,6.87968e+01
2.45481e-03,6.68680e+01
2.47246e-03,6.49929e+01
2.49023e-03,6.31701e+01
2.50813e-03,6.13981e+01
2.52616e-03,5.96755e+01
2.54432e-03,5.80009e+01
2.56261e-03,5.63730e+01
2.58103e-03,5.47905e+01
2.59959e-03,5.32521e+01
2.61827e-03,5.17567e+01
2.63709e-03,5.03030e+01
2.65605e-03,4.88898e+01
2.67514e-03,4.75160e+01
2.69437e-03,4.61806e+01
2.71374e-03,4.48824e+01
2.73325e-03,4.36205e+01
2.75290e-03,4.23938e+01
2.77268e-03,4.12013e+01
2.79261e-03,4.00421e+01
2.81269e-03,3.89152e+01
2.83291e-03,3.78199e+01
2.85327e-03,3.67551e+01
2.87378e-03,3.57200e+01
2.89444e-03,3.47138e+01
2.91525e-03,3.37358e+01
2.93620e-03,3.27850e+01
2.95731e-03,3.18608e+01
2.97857e-03,3.09625e+01
2.99998e-03,3.00892e+01
3.02154e-03,2.92403e+01
3.04326e-03,2.84151e+01
3.06514e-03,2.76130e+01
3.08717e-03,2.68333e+01
3.10936e-03,2.60754e+01
3.13171e-03,2.53387e+01
3.15423e-03,2.46226e+01
3.17690e-03,2.39264e+01
3.19974e-03,2.32498e+01
3.22274e-03,2.25920e+01
3.24590e-03,2.19527e+01
3.26923e-03,2.13312e+01
3.29274e-03,2.07271e+01
3.31640e-03,2.01399e+01
3.34024e-03,1.95691e+01
3.36425e-03,1.90142e+01
3.38844e-03,1.84749e+01
3.41280e-03,1.79507e+01
3.43733e-03,1.74411e+01
3.46204e-03,1.69458e+01
3.48692e-03,1.64644e+01
3.51199e-03,1.59964e+01
3.53723e-03,1.55415e+01
3.56266e-03,1.50993e+01
3.58827e-03,1.46695e+01
3.61406e-03,1.42517e+01
3.64004e-03,1.38457e+01
3.66621e-03,1.34509e+01
3.69256e-03,1.30673e+01
3.71911e-03,1.26943e+01
3.74584e-03,1.23318e+01
3.77277e-03,1.19795e+01
3.79989e-03,1.16370e+01
3.82720e-03,1.13041e+01
3.85471e-03,1.09805e+01
3.88242e-03,1.06660e+01
3.91033e-03,1.03603e+01
3.93844e-03,1.00631e+01
3.96675e-03,9.77431e+00
3.99526e-03,9.49356e+00
4.02398e-03,9.22067e+00
4.05291e-03,8.95543e+00
4.08204e-03,8.69761e+00
4.11138e-03,8.44702e+00
4.14094e-03,8.20344e+00
4.17070e-03,7.96669e+00
4.20069e-03,7.73656e+00
4.23088e-03,7.51289e+00
4.26129e-03,7.29548e+00
4.29193e-03,7.08416e+00
4.32278e-03,6.87875e+00
4.35385e-03,6.67911e+00
4.38515e-03,6.48506e+00
4.41667e-03,6.29644e+00
4.44842e-03,6.11311e+00
4.48039e-03,5.93491e+00
4.51260e-03,5.76171e+00
4.54504e-03,5.59336e+00
4.57771e-03,5.42973e+00
4.61062e-03,5.27069e+00
4.64376e-03,5.11610e+00
4.67714e-03,4.96585e+00
4.71076e-03,4.81981e+00
4.74462e-03,4.67786e+00
4.77873e-03,4.53988e+00
4.81308e-03,4.40578e+00
4.84768e-03,4.27543e+00
4.88253e-03,4.14874e+00
4.91762e-03,4.02560e+00
4.95297e-03,3.90592e+00
4.98858e-03,3.78958e+00
5.02444e-03,3.67651e+00
5.06055e-03,3.56661e+00
5.09693e-03,3.45979e+00
5.13357e-03,3.35597e+00
5.17047e-03,3.25506e+00
5.20764e-03,3.15697e+00
5.24507e-03,3.06164e+00
5.28277e-03,2.96898e+00
5.32075e-03,2.87892e+00
5.35900e-03,2.79138e+00
5.39752e-03,2.70630e+00
5.43632e-03,2.62361e+00
5.47540e-03,2.54323e+00
5.51475e-03,2.46511e+00
5.55440e-03,2.38918e+00
5.59432e-03,2.31538e+00
5.63454e-03,2.24365e+00
5.67504e-03,2.17393e+00
5.71583e-03,2.10617e+00
5.75692e-03,2.04031e+00
5.79830e-03,1.97629e+00
5.83998e-03,1.91407e+00
5.88196e-03,1.85360e+00
5.92425e-03,1.79482e+00
5.96683e-03,1.73770e+00
6.00972e-03,1.68217e+00
6.05292e-03,1.62820e+00
6.09643e-03,1.57575e+00
6.14026e-03,1.52477e+00
6.18439e-03,1.47522e+00
6.22885e-03,1.42706e+00
6.27362e-03,1.38025e+00
6.31872e-03,1.33475e+00
6.36414e-03,1.29053e+00
6.40989e-03,1.24755e+00
6.45597e-03,1.20578e+00
6.50237e-03,1.16518e+00
6.54912e-03,1.12572e+00
6.59619e-03,1.08736e+00
6.64361e-03,1.05009e+00
6.69136e-03,1.01386e+00
6.73946e-03,9.78642e-01
6.78791e-03,9.44416e-01
6.83670e-03,9.11150e-01
6.88585e-03,8.78818e-01
6.93535e-03,8.47394e-01
6.98520e-03,8.16851e-01
7.03541e-03,7.87166e-01
7.08598e-03,7.58314e-01
7.13692e-03,7.30272e-01
7.18822e-03,7.03017e-01
7.23989e-03,6.76528e-01
7.29194e-03,6.50781e-01
7.34435e-03,6.25758e-01
7.39715e-03,6.01436e-01
7.45032e-03,5.77798e-01
7.50388e-03,5.54823e-01
7.55782e-03,5.32493e-01
7.61214e-03,5.10790e-01
7.66686e-03,4.89697e-01
7.72198e-03,4.69195e-01
7.77748e-03,4.49269e-01
7.83339e-03,4.29902e-01
7.88970e-03,4.11080e-01
7.94641e-03,3.92785e-01
8.00353e-03,3.75005e-01
8.06107e-03,3.57723e-01
8.11901e-03,3.40927e-01
8.17737e-03,3.24602e-01
8.23616e-03,3.08736e-01
8.29536e-03,2.93315e-01
8.35499e-03,2.78327e-01
8.41505e-03,2.63760e-01
8.47554e-03,2.49602e-01
8.53646e-03,2.35842e-01
8.59783e-03,2.22467e-01
8.65963e-03,2.09469e-01
8.72188e-03,1.96836e-01
8.78457e-03,1.84557e-01
8.84772e-03,1.72623e-01
8.91132e-03,1.61024e-01
8.97538e-03,1.49751e-01
9.03990e-03,1.38795e-01
9.10488e-03,1.28146e-01
9.17033e-03,1.17796e-01
9.23625e-03,1.07737e-01
9.30264e-03,9.79603e-02
9.36951e-03,8.84583e-02
9.43686e-03,7.92231e-02
9.50470e-03,7.02473e-02
9.57302e-03,6.15236e-02
9.64183e-03,5.30449e-02
9.71114e-03,4.48043e-02
9.78095e-03,3.67952e-02
9.85126e-03,2.90110e-02
9.92207e-03,2.14454e-02
9.99340e-03,1.40923e-02
1.00652e-02,6.94581e-03
1.01376e-02,0.00000e+00
