m1=2472.489, m2=47.334, gsp=2.381, rhosp=27.949
fGW[Hz],dPh[rad]
4.25957e-03,2.62960e+03
4.39093e-03,2.46853e+03
4.52633e-03,2.31732e+03
4.66590e-03,2.17537e+03
4.80978e-03,2.04211e+03
4.95810e-03,1.91700e+03
5.11099e-03,1.79956e+03
5.26860e-03,1.68930e+03
5.43106e-03,1.58580e+03
5.59854e-03,1.48863e+03
5.77118e-03,1.39742e+03
5.94914e-03,1.31178e+03
6.13260e-03,1.23139e+03
6.32170e-03,1.15593e+03
6.51664e-03,1.08508e+03
6.71759e-03,1.01857e+03
6.92474e-03,9.56134e+02
7.13828e-03,8.97522e+02
7.35840e-03,8.42498e+02
7.58531e-03,7.90844e+02
7.81921e-03,7.42353e+02
8.06033e-03,6.96832e+02
8.30888e-03,6.54098e+02
8.56510e-03,6.13982e+02
8.82922e-03,5.76323e+02
9.10148e-03,5.40970e+02
9.38214e-03,5.07782e+02
9.67146e-03,4.76628e+02
9.96969e-03,4.47381e+02
1.02771e-02,4.19926e+02
1.05940e-02,3.94153e+02
1.09207e-02,3.69959e+02
1.12575e-02,3.47247e+02
1.16046e-02,3.25927e+02
1.19625e-02,3.05913e+02
1.23313e-02,2.87125e+02
1.27116e-02,2.69488e+02
1.31036e-02,2.52932e+02
1.35077e-02,2.37391e+02
1.39242e-02,2.22802e+02
1.43536e-02,2.09107e+02
1.47962e-02,1.96252e+02
1.52524e-02,1.84185e+02
1.57228e-02,1.72857e+02
1.62076e-02,1.62224e+02
1.67074e-02,1.52243e+02
1.72226e-02,1.42874e+02
1.77537e-02,1.34079e+02
1.83012e-02,1.25824e+02
1.88655e-02,1.18075e+02
1.94472e-02,1.10801e+02
2.00469e-02,1.03973e+02
2.06651e-02,9.75646e+01
2.13024e-02,9.15492e+01
2.19592e-02,8.59029e+01
2.26364e-02,8.06031e+01
2.33344e-02,7.56286e+01
2.40540e-02,7.09595e+01
2.47957e-02,6.65770e+01
2.55603e-02,6.24637e+01
2.63485e-02,5.86029e+01
2.71610e-02,5.49793e+01
2.79986e-02,5.15783e+01
2.88620e-02,4.83863e+01
2.97520e-02,4.53905e+01
3.06694e-02,4.25788e+01
3.16152e-02,3.99399e+01
3.25901e-02,3.74633e+01
3.35950e-02,3.51390e+01
3.46310e-02,3.29578e+01
3.56989e-02,3.09107e+01
3.67997e-02,2.89896e+01
3.79345e-02,2.71868e+01
3.91043e-02,2.54950e+01
4.03101e-02,2.39074e+01
4.15532e-02,2.24177e+01
4.28345e-02,2.10197e+01
4.41554e-02,1.97080e+01
4.55170e-02,1.84771e+01
4.69206e-02,1.73222e+01
4.83675e-02,1.62385e+01
4.98589e-02,1.52218e+01
5.13964e-02,1.42678e+01
5.29813e-02,1.33728e+01
5.46151e-02,1.25332e+01
5.62992e-02,1.17454e+01
5.80353e-02,1.10064e+01
5.98249e-02,1.03132e+01
6.16697e-02,9.66283e+00
6.35714e-02,9.05281e+00
6.55317e-02,8.48061e+00
6.75525e-02,7.94391e+00
6.96356e-02,7.44052e+00
7.17829e-02,6.96840e+00
7.39965e-02,6.52563e+00
7.62783e-02,6.11040e+00
7.86304e-02,5.72101e+00
8.10551e-02,5.35588e+00
8.35546e-02,5.01351e+00
8.61311e-02,4.69250e+00
8.87871e-02,4.39154e+00
9.15250e-02,4.10939e+00
9.43474e-02,3.84488e+00
9.72567e-02,3.59694e+00
1.00256e-01,3.36454e+00
1.03347e-01,3.14672e+00
1.06534e-01,2.94259e+00
1.09819e-01,2.75129e+00
1.13206e-01,2.57204e+00
1.16697e-01,2.40408e+00
1.20295e-01,2.24673e+00
1.24005e-01,2.09932e+00
1.27829e-01,1.96124e+00
1.31770e-01,1.83192e+00
1.35834e-01,1.71080e+00
1.40022e-01,1.59739e+00
1.44340e-01,1.49119e+00
1.48791e-01,1.39178e+00
1.53379e-01,1.29871e+00
1.58109e-01,1.21161e+00
1.62985e-01,1.13009e+00
1.68011e-01,1.05381e+00
1.73191e-01,9.82444e-01
1.78532e-01,9.15685e-01
1.84037e-01,8.53244e-01
1.89713e-01,7.94853e-01
1.95563e-01,7.40256e-01
2.01593e-01,6.89218e-01
2.07810e-01,6.41513e-01
2.14218e-01,5.96934e-01
2.20823e-01,5.55282e-01
2.27633e-01,5.16375e-01
2.34652e-01,4.80038e-01
2.41888e-01,4.46110e-01
2.49347e-01,4.14437e-01
2.57036e-01,3.84878e-01
2.64962e-01,3.57297e-01
2.73133e-01,3.31568e-01
2.81555e-01,3.07575e-01
2.90238e-01,2.85205e-01
2.99188e-01,2.64355e-01
3.08414e-01,2.44927e-01
3.17924e-01,2.26830e-01
3.27728e-01,2.09977e-01
3.37834e-01,1.94289e-01
3.48251e-01,1.79690e-01
3.58990e-01,1.66108e-01
3.70060e-01,1.53478e-01
3.81472e-01,1.41736e-01
3.93235e-01,1.30826e-01
4.05361e-01,1.20691e-01
4.17861e-01,1.11281e-01
4.30746e-01,1.02546e-01
4.44029e-01,9.44433e-02
4.57721e-01,8.69290e-02
4.71836e-01,7.99638e-02
4.86386e-01,7.35106e-02
5.01384e-01,6.75345e-02
5.16845e-01,6.20030e-02
5.32783e-01,5.68854e-02
5.49212e-01,5.21532e-02
5.66148e-01,4.77796e-02
5.83606e-01,4.37396e-02
6.01603e-01,4.00097e-02
6.20154e-01,3.65680e-02
6.39278e-01,3.33940e-02
6.58991e-01,3.04685e-02
6.79312e-01,2.77735e-02
7.00260e-01,2.52925e-02
7.21853e-01,2.30096e-02
7.44113e-01,2.09104e-02
7.67059e-01,1.89811e-02
7.90712e-01,1.72092e-02
8.15095e-01,1.55828e-02
8.40230e-01,1.40908e-02
8.66140e-01,1.27230e-02
8.92848e-01,1.14698e-02
9.20381e-01,1.03224e-02
9.48762e-01,9.27238e-03
9.78019e-01,8.31217e-03
1.00818e+00,7.43460e-03
1.03927e+00,6.63306e-03
1.07131e+00,5.90142e-03
1.10435e+00,5.23400e-03
1.13840e+00,4.62553e-03
1.17351e+00,4.07114e-03
1.20970e+00,3.56633e-03
1.24700e+00,3.10694e-03
1.28545e+00,2.68912e-03
1.32509e+00,2.30935e-03
1.36595e+00,1.96436e-03
1.40807e+00,1.65113e-03
1.45149e+00,1.36691e-03
1.49625e+00,1.10914e-03
1.54239e+00,8.75499e-04
1.58995e+00,6.63835e-04
1.63898e+00,4.72182e-04
1.68952e+00,2.98735e-04
1.74162e+00,1.41845e-04
1.79533e+00,0.00000e+00
