m1=222260.854, m2=45.050, gsp=2.247, rhosp=6107.724
fGW[Hz],dPh[rad]
1.40596e-03,9.46273e+03
1.42476e-03,9.06927e+03
1.44382e-03,8.69126e+03
1.46313e-03,8.32814e+03
1.48270e-03,7.97936e+03
1.50254e-03,7.64440e+03
1.52264e-03,7.32275e+03
1.54300e-03,7.01391e+03
1.56364e-03,6.71741e+03
1.58456e-03,6.43280e+03
1.60575e-03,6.15962e+03
1.62723e-03,5.89744e+03
1.64900e-03,5.64587e+03
1.67106e-03,5.40448e+03
1.69341e-03,5.17291e+03
1.71606e-03,4.95077e+03
1.73901e-03,4.73770e+03
1.76228e-03,4.53337e+03
1.78585e-03,4.33742e+03
1.80974e-03,4.14955e+03
1.83394e-03,3.96944e+03
1.85847e-03,3.79679e+03
1.88333e-03,3.63130e+03
1.90853e-03,3.47271e+03
1.93405e-03,3.32073e+03
1.95992e-03,3.17511e+03
1.98614e-03,3.03560e+03
2.01271e-03,2.90196e+03
2.03963e-03,2.77395e+03
2.06691e-03,2.65135e+03
2.09456e-03,2.53395e+03
2.12258e-03,2.42153e+03
2.15097e-03,2.31390e+03
2.17974e-03,2.21087e+03
2.20890e-03,2.11224e+03
2.23845e-03,2.01784e+03
2.26839e-03,1.92750e+03
2.29873e-03,1.84105e+03
2.32948e-03,1.75833e+03
2.36064e-03,1.67920e+03
2.39221e-03,1.60349e+03
2.42421e-03,1.53108e+03
2.45664e-03,1.46183e+03
2.48950e-03,1.39559e+03
2.52280e-03,1.33226e+03
2.55655e-03,1.27170e+03
2.59074e-03,1.21380e+03
2.62540e-03,1.15845e+03
2.66051e-03,1.10555e+03
2.69610e-03,1.05498e+03
2.73217e-03,1.00666e+03
2.76871e-03,9.60475e+02
2.80575e-03,9.16347e+02
2.84328e-03,8.74186e+02
2.88131e-03,8.33907e+02
2.91985e-03,7.95430e+02
2.95891e-03,7.58677e+02
2.99849e-03,7.23574e+02
3.03859e-03,6.90049e+02
3.07924e-03,6.58035e+02
3.12043e-03,6.27466e+02
3.16217e-03,5.98279e+02
3.20446e-03,5.70413e+02
3.24733e-03,5.43812e+02
3.29076e-03,5.18419e+02
3.33478e-03,4.94182e+02
3.37939e-03,4.71050e+02
3.42459e-03,4.48974e+02
3.47040e-03,4.27907e+02
3.51682e-03,4.07805e+02
3.56386e-03,3.88626e+02
3.61153e-03,3.70327e+02
3.65984e-03,3.52870e+02
3.70880e-03,3.36217e+02
3.75841e-03,3.20333e+02
3.80868e-03,3.05182e+02
3.85963e-03,2.90733e+02
3.91125e-03,2.76952e+02
3.96357e-03,2.63811e+02
4.01659e-03,2.51280e+02
4.07032e-03,2.39332e+02
4.12476e-03,2.27941e+02
4.17993e-03,2.17081e+02
4.23585e-03,2.06727e+02
4.29251e-03,1.96858e+02
4.34992e-03,1.87450e+02
4.40811e-03,1.78483e+02
4.46707e-03,1.69936e+02
4.52682e-03,1.61791e+02
4.58738e-03,1.54029e+02
4.64874e-03,1.46632e+02
4.71092e-03,1.39584e+02
4.77393e-03,1.32867e+02
4.83779e-03,1.26468e+02
4.90250e-03,1.20372e+02
4.96808e-03,1.14563e+02
5.03453e-03,1.09030e+02
5.10188e-03,1.03759e+02
5.17012e-03,9.87378e+01
5.23928e-03,9.39551e+01
5.30936e-03,8.93998e+01
5.38038e-03,8.50611e+01
5.45235e-03,8.09290e+01
5.52528e-03,7.69938e+01
5.59919e-03,7.32462e+01
5.67408e-03,6.96776e+01
5.74998e-03,6.62793e+01
5.82689e-03,6.30436e+01
5.90483e-03,5.99626e+01
5.98382e-03,5.70292e+01
6.06386e-03,5.42363e+01
6.14497e-03,5.15774e+01
6.22717e-03,4.90460e+01
6.31046e-03,4.66362e+01
6.39487e-03,4.43422e+01
6.48041e-03,4.21585e+01
6.56710e-03,4.00799e+01
6.65494e-03,3.81014e+01
6.74396e-03,3.62182e+01
6.83416e-03,3.44258e+01
6.92558e-03,3.27199e+01
7.01822e-03,3.10963e+01
7.11210e-03,2.95511e+01
7.20723e-03,2.80806e+01
7.30363e-03,2.66813e+01
7.40133e-03,2.53496e+01
7.50033e-03,2.40824e+01
7.60066e-03,2.28766e+01
7.70232e-03,2.17292e+01
7.80535e-03,2.06374e+01
7.90976e-03,1.95986e+01
8.01556e-03,1.86103e+01
8.12278e-03,1.76699e+01
8.23143e-03,1.67752e+01
8.34154e-03,1.59240e+01
8.45311e-03,1.51142e+01
8.56618e-03,1.43438e+01
8.68077e-03,1.36109e+01
8.79688e-03,1.29137e+01
8.91455e-03,1.22504e+01
9.03379e-03,1.16195e+01
9.15463e-03,1.10193e+01
9.27709e-03,1.04484e+01
9.40118e-03,9.90540e+00
9.52693e-03,9.38886e+00
9.65436e-03,8.89755e+00
9.78350e-03,8.43023e+00
9.91437e-03,7.98576e+00
1.00470e-02,7.56300e+00
1.01814e-02,7.16093e+00
1.03176e-02,6.77852e+00
1.04556e-02,6.41482e+00
1.05954e-02,6.06892e+00
1.07372e-02,5.73996e+00
1.08808e-02,5.42712e+00
1.10263e-02,5.12960e+00
1.11738e-02,4.84666e+00
1.13233e-02,4.57759e+00
1.14747e-02,4.32172e+00
1.16282e-02,4.07840e+00
1.17838e-02,3.84701e+00
1.19414e-02,3.62698e+00
1.21011e-02,3.41776e+00
1.22630e-02,3.21880e+00
1.24270e-02,3.02962e+00
1.25932e-02,2.84973e+00
1.27617e-02,2.67869e+00
1.29324e-02,2.51605e+00
1.31054e-02,2.36140e+00
1.32807e-02,2.21436e+00
1.34583e-02,2.07455e+00
1.36384e-02,1.94162e+00
1.38208e-02,1.81523e+00
1.40057e-02,1.69506e+00
1.41930e-02,1.58081e+00
1.43828e-02,1.47218e+00
1.45752e-02,1.36890e+00
1.47702e-02,1.27071e+00
1.49678e-02,1.17735e+00
1.51680e-02,1.08860e+00
1.53709e-02,1.00422e+00
1.55765e-02,9.23997e-01
1.57848e-02,8.47730e-01
1.59960e-02,7.75224e-01
1.62099e-02,7.06293e-01
1.64268e-02,6.40763e-01
1.66465e-02,5.78465e-01
1.68691e-02,5.19240e-01
1.70948e-02,4.62939e-01
1.73235e-02,4.09416e-01
1.75552e-02,3.58534e-01
1.77900e-02,3.10165e-01
1.80280e-02,2.64184e-01
1.82691e-02,2.20474e-01
1.85135e-02,1.78922e-01
1.87611e-02,1.39423e-01
1.90121e-02,1.01875e-01
1.92664e-02,6.61817e-02
1.95241e-02,3.22525e-02
1.97853e-02,0.00000e+00
