m1=187661.113, m2=54.927, gsp=2.483, rhosp=344.533
fGW[Hz],dPh[rad]
1.36164e-03,2.31941e+05
1.38125e-03,2.22651e+05
1.40114e-03,2.13708e+05
1.42132e-03,2.05098e+05
1.44179e-03,1.96810e+05
1.46256e-03,1.88834e+05
1.48362e-03,1.81159e+05
1.50499e-03,1.73773e+05
1.52666e-03,1.66669e+05
1.54865e-03,1.59835e+05
1.57095e-03,1.53262e+05
1.59357e-03,1.46941e+05
1.61652e-03,1.40863e+05
1.63980e-03,1.35020e+05
1.66342e-03,1.29403e+05
1.68738e-03,1.24005e+05
1.71168e-03,1.18817e+05
1.73633e-03,1.13832e+05
1.76134e-03,1.09043e+05
1.78670e-03,1.04443e+05
1.81243e-03,1.00024e+05
1.83854e-03,9.57811e+04
1.86501e-03,9.17068e+04
1.89187e-03,8.77951e+04
1.91912e-03,8.40401e+04
1.94676e-03,8.04361e+04
1.97480e-03,7.69774e+04
2.00324e-03,7.36586e+04
2.03209e-03,7.04746e+04
2.06135e-03,6.74203e+04
2.09104e-03,6.44907e+04
2.12115e-03,6.16813e+04
2.15170e-03,5.89874e+04
2.18269e-03,5.64046e+04
2.21412e-03,5.39287e+04
2.24601e-03,5.15556e+04
2.27836e-03,4.92813e+04
2.31117e-03,4.71021e+04
2.34445e-03,4.50142e+04
2.37822e-03,4.30140e+04
2.41247e-03,4.10982e+04
2.44721e-03,3.92634e+04
2.48246e-03,3.75065e+04
2.51821e-03,3.58243e+04
2.55448e-03,3.42139e+04
2.59126e-03,3.26724e+04
2.62858e-03,3.11970e+04
2.66644e-03,2.97852e+04
2.70484e-03,2.84343e+04
2.74380e-03,2.71419e+04
2.78331e-03,2.59056e+04
2.82340e-03,2.47232e+04
2.86406e-03,2.35923e+04
2.90530e-03,2.25110e+04
2.94715e-03,2.14771e+04
2.98959e-03,2.04887e+04
3.03265e-03,1.95439e+04
3.07632e-03,1.86409e+04
3.12063e-03,1.77780e+04
3.16557e-03,1.69534e+04
3.21116e-03,1.61656e+04
3.25740e-03,1.54130e+04
3.30432e-03,1.46941e+04
3.35190e-03,1.40074e+04
3.40018e-03,1.33517e+04
3.44915e-03,1.27256e+04
3.49882e-03,1.21278e+04
3.54921e-03,1.15571e+04
3.60032e-03,1.10123e+04
3.65217e-03,1.04923e+04
3.70477e-03,9.99605e+03
3.75813e-03,9.52249e+03
3.81225e-03,9.07063e+03
3.86715e-03,8.63952e+03
3.92285e-03,8.22826e+03
3.97934e-03,7.83596e+03
4.03665e-03,7.46178e+03
4.09479e-03,7.10494e+03
4.15376e-03,6.76464e+03
4.21358e-03,6.44017e+03
4.27426e-03,6.13080e+03
4.33582e-03,5.83587e+03
4.39826e-03,5.55473e+03
4.46161e-03,5.28675e+03
4.52586e-03,5.03134e+03
4.59104e-03,4.78794e+03
4.65716e-03,4.55599e+03
4.72423e-03,4.33499e+03
4.79227e-03,4.12442e+03
4.86129e-03,3.92381e+03
4.93130e-03,3.73271e+03
5.00232e-03,3.55068e+03
5.07436e-03,3.37730e+03
5.14744e-03,3.21218e+03
5.22157e-03,3.05493e+03
5.29677e-03,2.90519e+03
5.37305e-03,2.76261e+03
5.45043e-03,2.62686e+03
5.52893e-03,2.49762e+03
5.60856e-03,2.37459e+03
5.68933e-03,2.25747e+03
5.77127e-03,2.14600e+03
5.85438e-03,2.03989e+03
5.93870e-03,1.93891e+03
6.02422e-03,1.84281e+03
6.11098e-03,1.75136e+03
6.19899e-03,1.66435e+03
6.28827e-03,1.58155e+03
6.37883e-03,1.50278e+03
6.47070e-03,1.42783e+03
6.56389e-03,1.35654e+03
6.65842e-03,1.28872e+03
6.75431e-03,1.22420e+03
6.85158e-03,1.16284e+03
6.95026e-03,1.10448e+03
7.05035e-03,1.04897e+03
7.15189e-03,9.96184e+02
7.25489e-03,9.45985e+02
7.35937e-03,8.98249e+02
7.46536e-03,8.52859e+02
7.57288e-03,8.09701e+02
7.68194e-03,7.68666e+02
7.79257e-03,7.29653e+02
7.90480e-03,6.92563e+02
8.01864e-03,6.57304e+02
8.13412e-03,6.23785e+02
8.25127e-03,5.91923e+02
8.37010e-03,5.61638e+02
8.49065e-03,5.32851e+02
8.61293e-03,5.05490e+02
8.73697e-03,4.79486e+02
8.86280e-03,4.54772e+02
8.99043e-03,4.31285e+02
9.11991e-03,4.08965e+02
9.25126e-03,3.87754e+02
9.38449e-03,3.67599e+02
9.51964e-03,3.48447e+02
9.65674e-03,3.30249e+02
9.79582e-03,3.12958e+02
9.93689e-03,2.96530e+02
1.00800e-02,2.80921e+02
1.02252e-02,2.66092e+02
1.03724e-02,2.52004e+02
1.05218e-02,2.38620e+02
1.06733e-02,2.25906e+02
1.08271e-02,2.13828e+02
1.09830e-02,2.02355e+02
1.11412e-02,1.91456e+02
1.13016e-02,1.81104e+02
1.14644e-02,1.71271e+02
1.16295e-02,1.61932e+02
1.17970e-02,1.53061e+02
1.19669e-02,1.44635e+02
1.21392e-02,1.36634e+02
1.23140e-02,1.29034e+02
1.24914e-02,1.21816e+02
1.26713e-02,1.14962e+02
1.28538e-02,1.08453e+02
1.30389e-02,1.02271e+02
1.32267e-02,9.64006e+01
1.34172e-02,9.08261e+01
1.36104e-02,8.55327e+01
1.38064e-02,8.05062e+01
1.40052e-02,7.57332e+01
1.42069e-02,7.12012e+01
1.44115e-02,6.68979e+01
1.46191e-02,6.28119e+01
1.48296e-02,5.89324e+01
1.50432e-02,5.52489e+01
1.52598e-02,5.17516e+01
1.54796e-02,4.84311e+01
1.57026e-02,4.52786e+01
1.59287e-02,4.22856e+01
1.61581e-02,3.94440e+01
1.63908e-02,3.67463e+01
1.66269e-02,3.41853e+01
1.68663e-02,3.17539e+01
1.71092e-02,2.94457e+01
1.73556e-02,2.72545e+01
1.76056e-02,2.51744e+01
1.78591e-02,2.31997e+01
1.81163e-02,2.13252e+01
1.83772e-02,1.95458e+01
1.86419e-02,1.78567e+01
1.89104e-02,1.62533e+01
1.91827e-02,1.47312e+01
1.94590e-02,1.32865e+01
1.97392e-02,1.19151e+01
2.00235e-02,1.06134e+01
2.03119e-02,9.37784e+00
2.06044e-02,8.20504e+00
2.09011e-02,7.09185e+00
2.12022e-02,6.03525e+00
2.15075e-02,5.03237e+00
2.18172e-02,4.08048e+00
2.21315e-02,3.17701e+00
2.24502e-02,2.31950e+00
2.27735e-02,1.50562e+00
2.31015e-02,7.33153e-01
2.34342e-02,0.00000e+00
