m1=8074.678, m2=8.442, gsp=2.171, rhosp=427.096
fGW[Hz],dPh[rad]
6.03500e-03,1.84038e+03
6.17312e-03,1.74723e+03
6.31439e-03,1.65870e+03
6.45890e-03,1.57458e+03
6.60672e-03,1.49465e+03
6.75792e-03,1.41870e+03
6.91258e-03,1.34653e+03
7.07077e-03,1.27796e+03
7.23259e-03,1.21282e+03
7.39811e-03,1.15092e+03
7.56743e-03,1.09212e+03
7.74061e-03,1.03625e+03
7.91776e-03,9.83183e+02
8.09896e-03,9.32769e+02
8.28431e-03,8.84879e+02
8.47390e-03,8.39390e+02
8.66783e-03,7.96182e+02
8.86620e-03,7.55142e+02
9.06911e-03,7.16164e+02
9.27666e-03,6.79146e+02
9.48896e-03,6.43990e+02
9.70612e-03,6.10604e+02
9.92825e-03,5.78901e+02
1.01555e-02,5.48797e+02
1.03879e-02,5.20213e+02
1.06256e-02,4.93074e+02
1.08688e-02,4.67308e+02
1.11175e-02,4.42847e+02
1.13720e-02,4.19625e+02
1.16322e-02,3.97582e+02
1.18984e-02,3.76659e+02
1.21707e-02,3.56800e+02
1.24493e-02,3.37953e+02
1.27342e-02,3.20066e+02
1.30256e-02,3.03092e+02
1.33237e-02,2.86986e+02
1.36286e-02,2.71705e+02
1.39405e-02,2.57206e+02
1.42595e-02,2.43451e+02
1.45859e-02,2.30404e+02
1.49197e-02,2.18028e+02
1.52611e-02,2.06290e+02
1.56104e-02,1.95158e+02
1.59677e-02,1.84601e+02
1.63331e-02,1.74592e+02
1.67069e-02,1.65101e+02
1.70892e-02,1.56104e+02
1.74803e-02,1.47575e+02
1.78804e-02,1.39492e+02
1.82896e-02,1.31830e+02
1.87081e-02,1.24570e+02
1.91363e-02,1.17691e+02
1.95742e-02,1.11173e+02
2.00222e-02,1.04999e+02
2.04804e-02,9.91505e+01
2.09491e-02,9.36116e+01
2.14286e-02,8.83663e+01
2.19190e-02,8.33999e+01
2.24206e-02,7.86980e+01
2.29337e-02,7.42473e+01
2.34585e-02,7.00348e+01
2.39954e-02,6.60484e+01
2.45446e-02,6.22765e+01
2.51063e-02,5.87082e+01
2.56808e-02,5.53328e+01
2.62686e-02,5.21407e+01
2.68697e-02,4.91221e+01
2.74847e-02,4.62683e+01
2.81137e-02,4.35707e+01
2.87571e-02,4.10212e+01
2.94152e-02,3.86120e+01
3.00884e-02,3.63359e+01
3.07770e-02,3.41860e+01
3.14813e-02,3.21556e+01
3.22018e-02,3.02384e+01
3.29387e-02,2.84286e+01
3.36926e-02,2.67205e+01
3.44636e-02,2.51086e+01
3.52524e-02,2.35879e+01
3.60591e-02,2.21536e+01
3.68844e-02,2.08011e+01
3.77285e-02,1.95259e+01
3.85919e-02,1.83239e+01
3.94751e-02,1.71913e+01
4.03785e-02,1.61243e+01
4.13026e-02,1.51192e+01
4.22478e-02,1.41729e+01
4.32147e-02,1.32820e+01
4.42037e-02,1.24435e+01
4.52153e-02,1.16546e+01
4.62501e-02,1.09126e+01
4.73086e-02,1.02147e+01
4.83913e-02,9.55870e+00
4.94987e-02,8.94214e+00
5.06315e-02,8.36283e+00
5.17903e-02,7.81869e+00
5.29755e-02,7.30773e+00
5.41879e-02,6.82808e+00
5.54280e-02,6.37795e+00
5.66965e-02,5.95565e+00
5.79940e-02,5.55960e+00
5.93213e-02,5.18827e+00
6.06789e-02,4.84023e+00
6.20676e-02,4.51413e+00
6.34880e-02,4.20869e+00
6.49410e-02,3.92268e+00
6.64272e-02,3.65496e+00
6.79474e-02,3.40444e+00
6.95024e-02,3.17010e+00
7.10930e-02,2.95097e+00
7.27200e-02,2.74612e+00
7.43843e-02,2.55469e+00
7.60866e-02,2.37587e+00
7.78279e-02,2.20887e+00
7.96090e-02,2.05298e+00
8.14309e-02,1.90750e+00
8.32945e-02,1.77178e+00
8.52008e-02,1.64521e+00
8.71506e-02,1.52722e+00
8.91451e-02,1.41726e+00
9.11853e-02,1.31482e+00
9.32721e-02,1.21942e+00
9.54067e-02,1.13061e+00
9.75901e-02,1.04795e+00
9.98235e-02,9.71046e-01
1.02108e-01,8.99525e-01
1.04445e-01,8.33030e-01
1.06835e-01,7.71228e-01
1.09280e-01,7.13807e-01
1.11781e-01,6.60474e-01
1.14339e-01,6.10954e-01
1.16956e-01,5.64988e-01
1.19633e-01,5.22336e-01
1.22370e-01,4.82771e-01
1.25171e-01,4.46080e-01
1.28036e-01,4.12066e-01
1.30966e-01,3.80543e-01
1.33963e-01,3.51337e-01
1.37029e-01,3.24285e-01
1.40165e-01,2.99237e-01
1.43372e-01,2.76049e-01
1.46654e-01,2.54591e-01
1.50010e-01,2.34739e-01
1.53443e-01,2.16377e-01
1.56955e-01,1.99399e-01
1.60547e-01,1.83703e-01
1.64221e-01,1.69198e-01
1.67979e-01,1.55796e-01
1.71823e-01,1.43416e-01
1.75756e-01,1.31983e-01
1.79778e-01,1.21427e-01
1.83892e-01,1.11684e-01
1.88101e-01,1.02692e-01
1.92406e-01,9.43958e-02
1.96809e-01,8.67432e-02
2.01313e-01,7.96857e-02
2.05920e-01,7.31784e-02
2.10633e-01,6.71796e-02
2.15453e-01,6.16507e-02
2.20384e-01,5.65558e-02
2.25428e-01,5.18619e-02
2.30587e-01,4.75381e-02
2.35864e-01,4.35560e-02
2.41262e-01,3.98892e-02
2.46783e-01,3.65134e-02
2.52431e-01,3.34060e-02
2.58208e-01,3.05460e-02
2.64117e-01,2.79143e-02
2.70161e-01,2.54929e-02
2.76344e-01,2.32654e-02
2.82669e-01,2.12166e-02
2.89138e-01,1.93324e-02
2.95755e-01,1.75998e-02
3.02523e-01,1.60068e-02
3.09447e-01,1.45424e-02
3.16529e-01,1.31964e-02
3.23772e-01,1.19593e-02
3.31182e-01,1.08224e-02
3.38761e-01,9.77786e-03
3.46514e-01,8.81815e-03
3.54444e-01,7.93651e-03
3.62556e-01,7.12668e-03
3.70853e-01,6.38289e-03
3.79341e-01,5.69981e-03
3.88022e-01,5.07255e-03
3.96902e-01,4.49661e-03
4.05985e-01,3.96783e-03
4.15277e-01,3.48238e-03
4.24781e-01,3.03677e-03
4.34502e-01,2.62775e-03
4.44446e-01,2.25234e-03
4.54617e-01,1.90781e-03
4.65021e-01,1.59165e-03
4.75664e-01,1.30154e-03
4.86549e-01,1.03534e-03
4.97684e-01,7.91115e-04
5.09074e-01,5.67053e-04
5.20725e-01,3.61505e-04
5.32642e-01,1.72952e-04
5.44832e-01,0.00000e+00
