m1=1439.103, m2=40.527, gsp=2.370, rhosp=822.372
fGW[Hz],dPh[rad]
5.17479e-03,3.37529e+03
5.34378e-03,3.15630e+03
5.51828e-03,2.95152e+03
5.69849e-03,2.76003e+03
5.88458e-03,2.58095e+03
6.07675e-03,2.41349e+03
6.27520e-03,2.25689e+03
6.48012e-03,2.11045e+03
6.69174e-03,1.97351e+03
6.91027e-03,1.84545e+03
7.13593e-03,1.72570e+03
7.36896e-03,1.61371e+03
7.60961e-03,1.50899e+03
7.85811e-03,1.41106e+03
8.11472e-03,1.31949e+03
8.37972e-03,1.23385e+03
8.65337e-03,1.15377e+03
8.93596e-03,1.07889e+03
9.22778e-03,1.00886e+03
9.52912e-03,9.43373e+02
9.84031e-03,8.82136e+02
1.01617e-02,8.24872e+02
1.04935e-02,7.71323e+02
1.08362e-02,7.21247e+02
1.11900e-02,6.74421e+02
1.15555e-02,6.30632e+02
1.19328e-02,5.89684e+02
1.23225e-02,5.51393e+02
1.27249e-02,5.15586e+02
1.31405e-02,4.82103e+02
1.35696e-02,4.50792e+02
1.40127e-02,4.21512e+02
1.44703e-02,3.94133e+02
1.49429e-02,3.68530e+02
1.54309e-02,3.44588e+02
1.59348e-02,3.22200e+02
1.64551e-02,3.01264e+02
1.69925e-02,2.81688e+02
1.75474e-02,2.63381e+02
1.81205e-02,2.46263e+02
1.87122e-02,2.30256e+02
1.93233e-02,2.15287e+02
1.99543e-02,2.01291e+02
2.06059e-02,1.88202e+02
2.12789e-02,1.75963e+02
2.19737e-02,1.64519e+02
2.26913e-02,1.53818e+02
2.34323e-02,1.43811e+02
2.41976e-02,1.34454e+02
2.49878e-02,1.25704e+02
2.58038e-02,1.17523e+02
2.66464e-02,1.09873e+02
2.75166e-02,1.02719e+02
2.84152e-02,9.60303e+01
2.93431e-02,8.97758e+01
3.03014e-02,8.39275e+01
3.12909e-02,7.84591e+01
3.23127e-02,7.33459e+01
3.33680e-02,6.85649e+01
3.44576e-02,6.40945e+01
3.55829e-02,5.99146e+01
3.67449e-02,5.60062e+01
3.79449e-02,5.23519e+01
3.91840e-02,4.89350e+01
4.04636e-02,4.57403e+01
4.17850e-02,4.27532e+01
4.31495e-02,3.99603e+01
4.45586e-02,3.73491e+01
4.60138e-02,3.49076e+01
4.75164e-02,3.26249e+01
4.90681e-02,3.04907e+01
5.06705e-02,2.84954e+01
5.23252e-02,2.66299e+01
5.40340e-02,2.48857e+01
5.57985e-02,2.32551e+01
5.76207e-02,2.17307e+01
5.95024e-02,2.03055e+01
6.14455e-02,1.89731e+01
6.34521e-02,1.77275e+01
6.55242e-02,1.65631e+01
6.76640e-02,1.54746e+01
6.98736e-02,1.44570e+01
7.21555e-02,1.35057e+01
7.45118e-02,1.26165e+01
7.69451e-02,1.17852e+01
7.94578e-02,1.10083e+01
8.20526e-02,1.02820e+01
8.47322e-02,9.60312e+00
8.74992e-02,8.96860e+00
9.03566e-02,8.37553e+00
9.33073e-02,7.82122e+00
9.63544e-02,7.30314e+00
9.95010e-02,6.81895e+00
1.02750e-01,6.36644e+00
1.06106e-01,5.94355e+00
1.09571e-01,5.54836e+00
1.13149e-01,5.17905e+00
1.16844e-01,4.83395e+00
1.20660e-01,4.51148e+00
1.24600e-01,4.21017e+00
1.28669e-01,3.92865e+00
1.32871e-01,3.66561e+00
1.37210e-01,3.41987e+00
1.41691e-01,3.19029e+00
1.46318e-01,2.97581e+00
1.51096e-01,2.77547e+00
1.56030e-01,2.58832e+00
1.61126e-01,2.41353e+00
1.66387e-01,2.25027e+00
1.71821e-01,2.09779e+00
1.77432e-01,1.95540e+00
1.83226e-01,1.82243e+00
1.89210e-01,1.69827e+00
1.95389e-01,1.58235e+00
2.01769e-01,1.47412e+00
2.08358e-01,1.37308e+00
2.15163e-01,1.27877e+00
2.22189e-01,1.19073e+00
2.29445e-01,1.10857e+00
2.36938e-01,1.03189e+00
2.44675e-01,9.60344e-01
2.52665e-01,8.93586e-01
2.60917e-01,8.31305e-01
2.69437e-01,7.73206e-01
2.78236e-01,7.19016e-01
2.87322e-01,6.68478e-01
2.96705e-01,6.21350e-01
3.06394e-01,5.77410e-01
3.16400e-01,5.36446e-01
3.26733e-01,4.98264e-01
3.37402e-01,4.62678e-01
3.48421e-01,4.29518e-01
3.59799e-01,3.98624e-01
3.71549e-01,3.69846e-01
3.83682e-01,3.43042e-01
3.96212e-01,3.18084e-01
4.09151e-01,2.94847e-01
4.22512e-01,2.73218e-01
4.36310e-01,2.53089e-01
4.50558e-01,2.34361e-01
4.65271e-01,2.16940e-01
4.80465e-01,2.00739e-01
4.96156e-01,1.85676e-01
5.12358e-01,1.71674e-01
5.29090e-01,1.58662e-01
5.46368e-01,1.46575e-01
5.64211e-01,1.35348e-01
5.82636e-01,1.24925e-01
6.01662e-01,1.15250e-01
6.21311e-01,1.06272e-01
6.41600e-01,9.79451e-02
6.62553e-01,9.02238e-02
6.84189e-01,8.30667e-02
7.06532e-01,7.64351e-02
7.29605e-01,7.02927e-02
7.53431e-01,6.46058e-02
7.78036e-01,5.93426e-02
8.03443e-01,5.44738e-02
8.29681e-01,4.99717e-02
8.56775e-01,4.58106e-02
8.84754e-01,4.19664e-02
9.13647e-01,3.84167e-02
9.43484e-01,3.51406e-02
9.74294e-01,3.21185e-02
1.00611e+00,2.93321e-02
1.03897e+00,2.67645e-02
1.07290e+00,2.43997e-02
1.10793e+00,2.22229e-02
1.14411e+00,2.02204e-02
1.18148e+00,1.83792e-02
1.22006e+00,1.66874e-02
1.25990e+00,1.51338e-02
1.30105e+00,1.37080e-02
1.34353e+00,1.24003e-02
1.38741e+00,1.12016e-02
1.43272e+00,1.01037e-02
1.47950e+00,9.09864e-03
1.52782e+00,8.17924e-03
1.57771e+00,7.33875e-03
1.62923e+00,6.57092e-03
1.68244e+00,5.86995e-03
1.73738e+00,5.23046e-03
1.79412e+00,4.64745e-03
1.85271e+00,4.11631e-03
1.91321e+00,3.63276e-03
1.97569e+00,3.19284e-03
2.04021e+00,2.79289e-03
2.10683e+00,2.42954e-03
2.17563e+00,2.09966e-03
2.24668e+00,1.80038e-03
2.32005e+00,1.52904e-03
2.39581e+00,1.28321e-03
2.47405e+00,1.06063e-03
2.55484e+00,8.59241e-04
2.63828e+00,6.77148e-04
2.72443e+00,5.12608e-04
2.81340e+00,3.64025e-04
2.90528e+00,2.29935e-04
3.00015e+00,1.09002e-04
3.09813e+00,0.00000e+00
