m1=15307.206, m2=68.667, gsp=2.092, rhosp=2640.331
fGW[Hz],dPh[rad]
2.34449e-03,1.43704e+02
2.40185e-03,1.35957e+02
2.46062e-03,1.28624e+02
2.52083e-03,1.21686e+02
2.58251e-03,1.15119e+02
2.64570e-03,1.08905e+02
2.71043e-03,1.03024e+02
2.77675e-03,9.74592e+01
2.84469e-03,9.21929e+01
2.91430e-03,8.72094e+01
2.98561e-03,8.24935e+01
3.05866e-03,7.80309e+01
3.13350e-03,7.38080e+01
3.21017e-03,6.98120e+01
3.28871e-03,6.60308e+01
3.36918e-03,6.24528e+01
3.45162e-03,5.90672e+01
3.53608e-03,5.58636e+01
3.62260e-03,5.28324e+01
3.71123e-03,4.99642e+01
3.80204e-03,4.72503e+01
3.89507e-03,4.46826e+01
3.99037e-03,4.22530e+01
4.08801e-03,3.99543e+01
4.18804e-03,3.77794e+01
4.29051e-03,3.57217e+01
4.39549e-03,3.37749e+01
4.50304e-03,3.19331e+01
4.61322e-03,3.01906e+01
4.72610e-03,2.85421e+01
4.84174e-03,2.69825e+01
4.96020e-03,2.55071e+01
5.08157e-03,2.41114e+01
5.20591e-03,2.27911e+01
5.33329e-03,2.15422e+01
5.46378e-03,2.03608e+01
5.59747e-03,1.92432e+01
5.73443e-03,1.81861e+01
5.87474e-03,1.71863e+01
6.01848e-03,1.62406e+01
6.16574e-03,1.53461e+01
6.31661e-03,1.45001e+01
6.47116e-03,1.37000e+01
6.62950e-03,1.29433e+01
6.79171e-03,1.22277e+01
6.95789e-03,1.15510e+01
7.12814e-03,1.09110e+01
7.30255e-03,1.03058e+01
7.48123e-03,9.73359e+00
7.66428e-03,9.19250e+00
7.85181e-03,8.68089e+00
8.04393e-03,8.19717e+00
8.24075e-03,7.73983e+00
8.44239e-03,7.30747e+00
8.64895e-03,6.89872e+00
8.86058e-03,6.51231e+00
9.07738e-03,6.14705e+00
9.29948e-03,5.80179e+00
9.52703e-03,5.47545e+00
9.76013e-03,5.16701e+00
9.99895e-03,4.87550e+00
1.02436e-02,4.60000e+00
1.04942e-02,4.33966e+00
1.07510e-02,4.09365e+00
1.10141e-02,3.86120e+00
1.12836e-02,3.64156e+00
1.15597e-02,3.43406e+00
1.18425e-02,3.23802e+00
1.21323e-02,3.05284e+00
1.24291e-02,2.87791e+00
1.27332e-02,2.71269e+00
1.30448e-02,2.55665e+00
1.33640e-02,2.40928e+00
1.36910e-02,2.27012e+00
1.40259e-02,2.13872e+00
1.43691e-02,2.01465e+00
1.47207e-02,1.89752e+00
1.50809e-02,1.78696e+00
1.54499e-02,1.68259e+00
1.58279e-02,1.58408e+00
1.62152e-02,1.49112e+00
1.66120e-02,1.40340e+00
1.70184e-02,1.32063e+00
1.74348e-02,1.24254e+00
1.78614e-02,1.16887e+00
1.82985e-02,1.09939e+00
1.87462e-02,1.03386e+00
1.92049e-02,9.72058e-01
1.96748e-02,9.13788e-01
2.01562e-02,8.58853e-01
2.06494e-02,8.07067e-01
2.11546e-02,7.58258e-01
2.16723e-02,7.12259e-01
2.22025e-02,6.68917e-01
2.27458e-02,6.28082e-01
2.33023e-02,5.89616e-01
2.38725e-02,5.53388e-01
2.44566e-02,5.19271e-01
2.50550e-02,4.87149e-01
2.56681e-02,4.56910e-01
2.62961e-02,4.28449e-01
2.69395e-02,4.01665e-01
2.75987e-02,3.76465e-01
2.82740e-02,3.52759e-01
2.89658e-02,3.30463e-01
2.96745e-02,3.09497e-01
3.04006e-02,2.89787e-01
3.11444e-02,2.71260e-01
3.19065e-02,2.53849e-01
3.26872e-02,2.37491e-01
3.34870e-02,2.22125e-01
3.43063e-02,2.07695e-01
3.51457e-02,1.94146e-01
3.60057e-02,1.81429e-01
3.68867e-02,1.69494e-01
3.77892e-02,1.58297e-01
3.87139e-02,1.47795e-01
3.96611e-02,1.37946e-01
4.06316e-02,1.28714e-01
4.16257e-02,1.20062e-01
4.26442e-02,1.11955e-01
4.36877e-02,1.04361e-01
4.47566e-02,9.72509e-02
4.58517e-02,9.05946e-02
4.69736e-02,8.43654e-02
4.81230e-02,7.85377e-02
4.93004e-02,7.30873e-02
5.05067e-02,6.79915e-02
5.17425e-02,6.32286e-02
5.30086e-02,5.87785e-02
5.43056e-02,5.46219e-02
5.56344e-02,5.07408e-02
5.69956e-02,4.71182e-02
5.83902e-02,4.37381e-02
5.98189e-02,4.05853e-02
6.12825e-02,3.76456e-02
6.27820e-02,3.49056e-02
6.43182e-02,3.23526e-02
6.58919e-02,2.99748e-02
6.75042e-02,2.77610e-02
6.91559e-02,2.57006e-02
7.08480e-02,2.37836e-02
7.25815e-02,2.20009e-02
7.43574e-02,2.03437e-02
7.61768e-02,1.88036e-02
7.80407e-02,1.73730e-02
7.99502e-02,1.60446e-02
8.19064e-02,1.48115e-02
8.39105e-02,1.36674e-02
8.59637e-02,1.26064e-02
8.80670e-02,1.16226e-02
9.02219e-02,1.07109e-02
9.24294e-02,9.86628e-03
9.46910e-02,9.08415e-03
9.70079e-02,8.36015e-03
9.93815e-02,7.69023e-03
1.01813e-01,7.07057e-03
1.04304e-01,6.49764e-03
1.06856e-01,5.96810e-03
1.09471e-01,5.47886e-03
1.12150e-01,5.02702e-03
1.14894e-01,4.60988e-03
1.17705e-01,4.22491e-03
1.20585e-01,3.86977e-03
1.23535e-01,3.54226e-03
1.26558e-01,3.24035e-03
1.29655e-01,2.96212e-03
1.32827e-01,2.70582e-03
1.36077e-01,2.46979e-03
1.39407e-01,2.25251e-03
1.42818e-01,2.05255e-03
1.46312e-01,1.86860e-03
1.49892e-01,1.69943e-03
1.53560e-01,1.54390e-03
1.57317e-01,1.40096e-03
1.61166e-01,1.26962e-03
1.65110e-01,1.14899e-03
1.69150e-01,1.03822e-03
1.73288e-01,9.36544e-04
1.77528e-01,8.43232e-04
1.81872e-01,7.57625e-04
1.86322e-01,6.79107e-04
1.90881e-01,6.07110e-04
1.95552e-01,5.41112e-04
2.00336e-01,4.80626e-04
2.05238e-01,4.25208e-04
2.10260e-01,3.74445e-04
2.15405e-01,3.27956e-04
2.20675e-01,2.85392e-04
2.26075e-01,2.46431e-04
2.31606e-01,2.10776e-04
2.37273e-01,1.78152e-04
2.43079e-01,1.48309e-04
2.49027e-01,1.21015e-04
2.55120e-01,9.60576e-05
2.61362e-01,7.32408e-05
2.67757e-01,5.23850e-05
2.74309e-01,3.33253e-05
2.81021e-01,1.59100e-05
2.87897e-01,0.00000e+00
