m1=49148.410, m2=61.012, gsp=2.331, rhosp=45.155
fGW[Hz],dPh[rad]
1.83008e-03,8.05312e+03
1.86621e-03,7.70441e+03
1.90305e-03,7.37029e+03
1.94062e-03,7.05015e+03
1.97893e-03,6.74343e+03
2.01799e-03,6.44957e+03
2.05783e-03,6.16806e+03
2.09845e-03,5.89837e+03
2.13987e-03,5.64003e+03
2.18212e-03,5.39258e+03
2.22519e-03,5.15555e+03
2.26912e-03,4.92853e+03
2.31391e-03,4.71111e+03
2.35959e-03,4.50288e+03
2.40617e-03,4.30348e+03
2.45367e-03,4.11253e+03
2.50211e-03,3.92969e+03
2.55150e-03,3.75463e+03
2.60187e-03,3.58702e+03
2.65323e-03,3.42656e+03
2.70561e-03,3.27294e+03
2.75902e-03,3.12590e+03
2.81348e-03,2.98516e+03
2.86902e-03,2.85044e+03
2.92566e-03,2.72152e+03
2.98341e-03,2.59814e+03
3.04231e-03,2.48008e+03
3.10236e-03,2.36711e+03
3.16360e-03,2.25903e+03
3.22606e-03,2.15563e+03
3.28974e-03,2.05672e+03
3.35468e-03,1.96210e+03
3.42091e-03,1.87160e+03
3.48844e-03,1.78506e+03
3.55730e-03,1.70229e+03
3.62752e-03,1.62315e+03
3.69913e-03,1.54749e+03
3.77215e-03,1.47515e+03
3.84662e-03,1.40600e+03
3.92255e-03,1.33990e+03
3.99999e-03,1.27673e+03
4.07895e-03,1.21637e+03
4.15947e-03,1.15868e+03
4.24158e-03,1.10357e+03
4.32531e-03,1.05092e+03
4.41070e-03,1.00063e+03
4.49777e-03,9.52596e+02
4.58655e-03,9.06725e+02
4.67709e-03,8.62924e+02
4.76942e-03,8.21105e+02
4.86357e-03,7.81183e+02
4.95958e-03,7.43078e+02
5.05749e-03,7.06712e+02
5.15733e-03,6.72009e+02
5.25914e-03,6.38899e+02
5.36295e-03,6.07313e+02
5.46882e-03,5.77185e+02
5.57678e-03,5.48452e+02
5.68687e-03,5.21054e+02
5.79913e-03,4.94932e+02
5.91361e-03,4.70032e+02
6.03035e-03,4.46299e+02
6.14939e-03,4.23683e+02
6.27078e-03,4.02135e+02
6.39457e-03,3.81607e+02
6.52080e-03,3.62055e+02
6.64953e-03,3.43436e+02
6.78079e-03,3.25709e+02
6.91465e-03,3.08833e+02
7.05115e-03,2.92771e+02
7.19034e-03,2.77486e+02
7.33228e-03,2.62944e+02
7.47703e-03,2.49111e+02
7.62463e-03,2.35955e+02
7.77514e-03,2.23446e+02
7.92863e-03,2.11554e+02
8.08514e-03,2.00251e+02
8.24475e-03,1.89510e+02
8.40750e-03,1.79306e+02
8.57347e-03,1.69613e+02
8.74272e-03,1.60407e+02
8.91530e-03,1.51668e+02
9.09130e-03,1.43372e+02
9.27077e-03,1.35498e+02
9.45378e-03,1.28028e+02
9.64040e-03,1.20942e+02
9.83071e-03,1.14221e+02
1.00248e-02,1.07849e+02
1.02227e-02,1.01809e+02
1.04245e-02,9.60848e+01
1.06303e-02,9.06611e+01
1.08401e-02,8.55236e+01
1.10541e-02,8.06583e+01
1.12723e-02,7.60519e+01
1.14948e-02,7.16917e+01
1.17217e-02,6.75657e+01
1.19531e-02,6.36621e+01
1.21891e-02,5.99700e+01
1.24297e-02,5.64787e+01
1.26751e-02,5.31782e+01
1.29253e-02,5.00588e+01
1.31804e-02,4.71114e+01
1.34406e-02,4.43271e+01
1.37060e-02,4.16977e+01
1.39765e-02,3.92152e+01
1.42524e-02,3.68719e+01
1.45338e-02,3.46606e+01
1.48207e-02,3.25745e+01
1.51133e-02,3.06068e+01
1.54116e-02,2.87515e+01
1.57158e-02,2.70025e+01
1.60261e-02,2.53541e+01
1.63424e-02,2.38010e+01
1.66650e-02,2.23380e+01
1.69940e-02,2.09603e+01
1.73295e-02,1.96631e+01
1.76716e-02,1.84422e+01
1.80204e-02,1.72933e+01
1.83762e-02,1.62124e+01
1.87389e-02,1.51957e+01
1.91088e-02,1.42397e+01
1.94861e-02,1.33410e+01
1.98707e-02,1.24963e+01
2.02630e-02,1.17026e+01
2.06630e-02,1.09570e+01
2.10709e-02,1.02568e+01
2.14868e-02,9.59922e+00
2.19110e-02,8.98195e+00
2.23435e-02,8.40261e+00
2.27846e-02,7.85899e+00
2.32344e-02,7.34901e+00
2.36931e-02,6.87070e+00
2.41608e-02,6.42217e+00
2.46377e-02,6.00168e+00
2.51241e-02,5.60754e+00
2.56200e-02,5.23819e+00
2.61258e-02,4.89214e+00
2.66415e-02,4.56798e+00
2.71675e-02,4.26440e+00
2.77038e-02,3.98014e+00
2.82506e-02,3.71402e+00
2.88083e-02,3.46493e+00
2.93770e-02,3.23183e+00
2.99569e-02,3.01373e+00
3.05483e-02,2.80971e+00
3.11513e-02,2.61888e+00
3.17663e-02,2.44043e+00
3.23934e-02,2.27359e+00
3.30328e-02,2.11762e+00
3.36849e-02,1.97183e+00
3.43499e-02,1.83560e+00
3.50280e-02,1.70831e+00
3.57194e-02,1.58939e+00
3.64246e-02,1.47831e+00
3.71436e-02,1.37457e+00
3.78768e-02,1.27769e+00
3.86246e-02,1.18724e+00
3.93870e-02,1.10281e+00
4.01646e-02,1.02399e+00
4.09574e-02,9.50441e-01
4.17659e-02,8.81803e-01
4.25904e-02,8.17762e-01
4.34312e-02,7.58016e-01
4.42885e-02,7.02286e-01
4.51628e-02,6.50306e-01
4.60544e-02,6.01831e-01
4.69635e-02,5.56629e-01
4.78906e-02,5.14485e-01
4.88360e-02,4.75194e-01
4.98000e-02,4.38569e-01
5.07831e-02,4.04431e-01
5.17856e-02,3.72616e-01
5.28079e-02,3.42967e-01
5.38503e-02,3.15341e-01
5.49134e-02,2.89601e-01
5.59974e-02,2.65621e-01
5.71028e-02,2.43283e-01
5.82301e-02,2.22476e-01
5.93795e-02,2.03096e-01
6.05517e-02,1.85047e-01
6.17471e-02,1.68240e-01
6.29660e-02,1.52590e-01
6.42090e-02,1.38018e-01
6.54765e-02,1.24451e-01
6.67690e-02,1.11821e-01
6.80871e-02,1.00064e-01
6.94312e-02,8.91202e-02
7.08018e-02,7.89340e-02
7.21994e-02,6.94536e-02
7.36247e-02,6.06306e-02
7.50781e-02,5.24201e-02
7.65602e-02,4.47798e-02
7.80715e-02,3.76707e-02
7.96127e-02,3.10561e-02
8.11843e-02,2.49020e-02
8.27869e-02,1.91767e-02
8.44212e-02,1.38504e-02
8.60877e-02,8.89576e-03
8.77871e-02,4.28692e-03
8.95201e-02,0.00000e+00
