m1=1563.971, m2=4.029, gsp=2.307, rhosp=225.271
fGW[Hz],dPh[rad]
1.20070e-02,1.27697e+04
1.23408e-02,1.20411e+04
1.26839e-02,1.13539e+04
1.30365e-02,1.07058e+04
1.33990e-02,1.00945e+04
1.37715e-02,9.51802e+03
1.41544e-02,8.97428e+03
1.45480e-02,8.46146e+03
1.49524e-02,7.97780e+03
1.53681e-02,7.52165e+03
1.57954e-02,7.09144e+03
1.62346e-02,6.68571e+03
1.66860e-02,6.30307e+03
1.71499e-02,5.94219e+03
1.76267e-02,5.60186e+03
1.81168e-02,5.28090e+03
1.86205e-02,4.97821e+03
1.91382e-02,4.69275e+03
1.96703e-02,4.42355e+03
2.02171e-02,4.16969e+03
2.07792e-02,3.93028e+03
2.13570e-02,3.70452e+03
2.19508e-02,3.49162e+03
2.25610e-02,3.29086e+03
2.31883e-02,3.10155e+03
2.38330e-02,2.92303e+03
2.44956e-02,2.75470e+03
2.51767e-02,2.59597e+03
2.58767e-02,2.44630e+03
2.65961e-02,2.30517e+03
2.73356e-02,2.17210e+03
2.80956e-02,2.04663e+03
2.88767e-02,1.92833e+03
2.96796e-02,1.81679e+03
3.05047e-02,1.71162e+03
3.13529e-02,1.61247e+03
3.22246e-02,1.51900e+03
3.31205e-02,1.43087e+03
3.40414e-02,1.34778e+03
3.49878e-02,1.26946e+03
3.59606e-02,1.19562e+03
3.69604e-02,1.12602e+03
3.79880e-02,1.06040e+03
3.90442e-02,9.98551e+02
4.01297e-02,9.40250e+02
4.12454e-02,8.85298e+02
4.23922e-02,8.33502e+02
4.35708e-02,7.84684e+02
4.47822e-02,7.38673e+02
4.60273e-02,6.95310e+02
4.73069e-02,6.54444e+02
4.86222e-02,6.15932e+02
4.99741e-02,5.79640e+02
5.13635e-02,5.45442e+02
5.27915e-02,5.13218e+02
5.42593e-02,4.82856e+02
5.57678e-02,4.54249e+02
5.73184e-02,4.27297e+02
5.89120e-02,4.01905e+02
6.05499e-02,3.77985e+02
6.22334e-02,3.55452e+02
6.39636e-02,3.34228e+02
6.57420e-02,3.14236e+02
6.75698e-02,2.95408e+02
6.94485e-02,2.77675e+02
7.13793e-02,2.60976e+02
7.33639e-02,2.45251e+02
7.54036e-02,2.30444e+02
7.75000e-02,2.16504e+02
7.96548e-02,2.03379e+02
8.18694e-02,1.91023e+02
8.41456e-02,1.79393e+02
8.64851e-02,1.68446e+02
8.88896e-02,1.58144e+02
9.13610e-02,1.48448e+02
9.39011e-02,1.39325e+02
9.65119e-02,1.30741e+02
9.91952e-02,1.22666e+02
1.01953e-01,1.15069e+02
1.04788e-01,1.07923e+02
1.07701e-01,1.01203e+02
1.10695e-01,9.48831e+01
1.13773e-01,8.89408e+01
1.16936e-01,8.33542e+01
1.20188e-01,7.81025e+01
1.23529e-01,7.31665e+01
1.26964e-01,6.85276e+01
1.30493e-01,6.41688e+01
1.34122e-01,6.00736e+01
1.37851e-01,5.62268e+01
1.41683e-01,5.26138e+01
1.45622e-01,4.92210e+01
1.49671e-01,4.60355e+01
1.53832e-01,4.30451e+01
1.58109e-01,4.02385e+01
1.62505e-01,3.76047e+01
1.67023e-01,3.51338e+01
1.71667e-01,3.28160e+01
1.76440e-01,3.06423e+01
1.81346e-01,2.86042e+01
1.86387e-01,2.66937e+01
1.91570e-01,2.49031e+01
1.96896e-01,2.32254e+01
2.02370e-01,2.16538e+01
2.07997e-01,2.01820e+01
2.13779e-01,1.88040e+01
2.19723e-01,1.75141e+01
2.25832e-01,1.63071e+01
2.32111e-01,1.51779e+01
2.38564e-01,1.41219e+01
2.45197e-01,1.31346e+01
2.52014e-01,1.22117e+01
2.59021e-01,1.13494e+01
2.66222e-01,1.05440e+01
2.73624e-01,9.79195e+00
2.81232e-01,9.08993e+00
2.89051e-01,8.43486e+00
2.97087e-01,7.82382e+00
3.05347e-01,7.25406e+00
3.13837e-01,6.72299e+00
3.22562e-01,6.22817e+00
3.31530e-01,5.76731e+00
3.40748e-01,5.33824e+00
3.50222e-01,4.93894e+00
3.59959e-01,4.56749e+00
3.69967e-01,4.22210e+00
3.80253e-01,3.90108e+00
3.90825e-01,3.60283e+00
4.01691e-01,3.32588e+00
4.12859e-01,3.06880e+00
4.24338e-01,2.83028e+00
4.36136e-01,2.60910e+00
4.48262e-01,2.40407e+00
4.60725e-01,2.21412e+00
4.73534e-01,2.03821e+00
4.86700e-01,1.87540e+00
5.00231e-01,1.72477e+00
5.14139e-01,1.58549e+00
5.28434e-01,1.45676e+00
5.43126e-01,1.33784e+00
5.58226e-01,1.22804e+00
5.73747e-01,1.12672e+00
5.89698e-01,1.03326e+00
6.06094e-01,9.47098e-01
6.22945e-01,8.67706e-01
6.40265e-01,7.94588e-01
6.58066e-01,7.27281e-01
6.76362e-01,6.65356e-01
6.95167e-01,6.08411e-01
7.14494e-01,5.56071e-01
7.34359e-01,5.07988e-01
7.54777e-01,4.63838e-01
7.75762e-01,4.23318e-01
7.97330e-01,3.86149e-01
8.19498e-01,3.52070e-01
8.42283e-01,3.20839e-01
8.65701e-01,2.92231e-01
8.89770e-01,2.66039e-01
9.14508e-01,2.42069e-01
9.39934e-01,2.20143e-01
9.66067e-01,2.00096e-01
9.92926e-01,1.81775e-01
1.02053e+00,1.65038e-01
1.04891e+00,1.49754e-01
1.07807e+00,1.35805e-01
1.10804e+00,1.23077e-01
1.13885e+00,1.11470e-01
1.17051e+00,1.00888e-01
1.20306e+00,9.12452e-02
1.23650e+00,8.24608e-02
1.27088e+00,7.44615e-02
1.30622e+00,6.71800e-02
1.34253e+00,6.05540e-02
1.37986e+00,5.45266e-02
1.41822e+00,4.90455e-02
1.45765e+00,4.40630e-02
1.49818e+00,3.95349e-02
1.53984e+00,3.54213e-02
1.58265e+00,3.16852e-02
1.62665e+00,2.82929e-02
1.67188e+00,2.52138e-02
1.71836e+00,2.24196e-02
1.76613e+00,1.98846e-02
1.81524e+00,1.75855e-02
1.86571e+00,1.55007e-02
1.91758e+00,1.36107e-02
1.97089e+00,1.18978e-02
2.02569e+00,1.03457e-02
2.08201e+00,8.93955e-03
2.13989e+00,7.66596e-03
2.19939e+00,6.51265e-03
2.26054e+00,5.46845e-03
2.32339e+00,4.52323e-03
2.38799e+00,3.66776e-03
2.45438e+00,2.89365e-03
2.52262e+00,2.19328e-03
2.59275e+00,1.55974e-03
2.66484e+00,9.86722e-04
2.73893e+00,4.68536e-04
2.81508e+00,0.00000e+00
