m1=20963.430, m2=4.598, gsp=2.214, rhosp=71.398
fGW[Hz],dPh[rad]
5.97032e-03,6.68219e+03
6.07806e-03,6.36876e+03
6.18775e-03,6.06910e+03
6.29942e-03,5.78264e+03
6.41310e-03,5.50885e+03
6.52883e-03,5.24719e+03
6.64665e-03,4.99716e+03
6.76660e-03,4.75828e+03
6.88871e-03,4.53008e+03
7.01303e-03,4.31211e+03
7.13959e-03,4.10395e+03
7.26844e-03,3.90519e+03
7.39960e-03,3.71542e+03
7.53314e-03,3.53428e+03
7.66909e-03,3.36138e+03
7.80749e-03,3.19639e+03
7.94838e-03,3.03897e+03
8.09182e-03,2.88879e+03
8.23785e-03,2.74554e+03
8.38652e-03,2.60894e+03
8.53786e-03,2.47868e+03
8.69194e-03,2.35449e+03
8.84880e-03,2.23613e+03
9.00849e-03,2.12332e+03
9.17106e-03,2.01583e+03
9.33656e-03,1.91343e+03
9.50505e-03,1.81589e+03
9.67659e-03,1.72299e+03
9.85121e-03,1.63455e+03
1.00290e-02,1.55035e+03
1.02100e-02,1.47020e+03
1.03942e-02,1.39394e+03
1.05818e-02,1.32137e+03
1.07728e-02,1.25235e+03
1.09672e-02,1.18670e+03
1.11651e-02,1.12427e+03
1.13666e-02,1.06493e+03
1.15717e-02,1.00852e+03
1.17805e-02,9.54912e+02
1.19931e-02,9.03979e+02
1.22096e-02,8.55596e+02
1.24299e-02,8.09645e+02
1.26542e-02,7.66014e+02
1.28826e-02,7.24592e+02
1.31151e-02,6.85278e+02
1.33518e-02,6.47970e+02
1.35927e-02,6.12575e+02
1.38380e-02,5.79002e+02
1.40877e-02,5.47162e+02
1.43420e-02,5.16974e+02
1.46008e-02,4.88358e+02
1.48643e-02,4.61237e+02
1.51325e-02,4.35540e+02
1.54056e-02,4.11196e+02
1.56836e-02,3.88139e+02
1.59667e-02,3.66306e+02
1.62548e-02,3.45636e+02
1.65482e-02,3.26072e+02
1.68468e-02,3.07558e+02
1.71508e-02,2.90042e+02
1.74603e-02,2.73473e+02
1.77754e-02,2.57804e+02
1.80962e-02,2.42989e+02
1.84228e-02,2.28984e+02
1.87552e-02,2.15748e+02
1.90937e-02,2.03241e+02
1.94383e-02,1.91426e+02
1.97891e-02,1.80266e+02
2.01462e-02,1.69727e+02
2.05098e-02,1.59778e+02
2.08799e-02,1.50386e+02
2.12567e-02,1.41523e+02
2.16403e-02,1.33160e+02
2.20308e-02,1.25271e+02
2.24284e-02,1.17830e+02
2.28332e-02,1.10814e+02
2.32452e-02,1.04198e+02
2.36647e-02,9.79628e+01
2.40918e-02,9.20861e+01
2.45265e-02,8.65488e+01
2.49692e-02,8.13323e+01
2.54198e-02,7.64188e+01
2.58785e-02,7.17916e+01
2.63455e-02,6.74349e+01
2.68210e-02,6.33336e+01
2.73050e-02,5.94733e+01
2.77977e-02,5.58406e+01
2.82994e-02,5.24226e+01
2.88101e-02,4.92072e+01
2.93300e-02,4.61829e+01
2.98593e-02,4.33388e+01
3.03982e-02,4.06646e+01
3.09467e-02,3.81506e+01
3.15052e-02,3.57876e+01
3.20738e-02,3.35668e+01
3.26526e-02,3.14800e+01
3.32418e-02,2.95194e+01
3.38417e-02,2.76777e+01
3.44525e-02,2.59479e+01
3.50742e-02,2.43234e+01
3.57072e-02,2.27981e+01
3.63516e-02,2.13660e+01
3.70076e-02,2.00218e+01
3.76754e-02,1.87601e+01
3.83553e-02,1.75761e+01
3.90475e-02,1.64651e+01
3.97522e-02,1.54227e+01
4.04696e-02,1.44449e+01
4.11999e-02,1.35277e+01
4.19434e-02,1.26675e+01
4.27003e-02,1.18609e+01
4.34709e-02,1.11046e+01
4.42554e-02,1.03955e+01
4.50541e-02,9.73074e+00
4.58671e-02,9.10767e+00
4.66949e-02,8.52371e+00
4.75375e-02,7.97647e+00
4.83954e-02,7.46369e+00
4.92688e-02,6.98324e+00
5.01579e-02,6.53314e+00
5.10631e-02,6.11150e+00
5.19846e-02,5.71657e+00
5.29227e-02,5.34668e+00
5.38778e-02,5.00028e+00
5.48501e-02,4.67590e+00
5.58399e-02,4.37218e+00
5.68477e-02,4.08782e+00
5.78736e-02,3.82160e+00
5.89180e-02,3.57240e+00
5.99812e-02,3.33914e+00
6.10637e-02,3.12081e+00
6.21656e-02,2.91648e+00
6.32875e-02,2.72527e+00
6.44296e-02,2.54634e+00
6.55924e-02,2.37892e+00
6.67761e-02,2.22227e+00
6.79811e-02,2.07572e+00
6.92079e-02,1.93862e+00
7.04569e-02,1.81037e+00
7.17284e-02,1.69041e+00
7.30228e-02,1.57820e+00
7.43406e-02,1.47326e+00
7.56822e-02,1.37511e+00
7.70480e-02,1.28333e+00
7.84385e-02,1.19750e+00
7.98540e-02,1.11725e+00
8.12951e-02,1.04221e+00
8.27621e-02,9.72044e-01
8.42557e-02,9.06447e-01
8.57762e-02,8.45121e-01
8.73242e-02,7.87791e-01
8.89001e-02,7.34199e-01
9.05044e-02,6.84103e-01
9.21377e-02,6.37277e-01
9.38004e-02,5.93509e-01
9.54932e-02,5.52602e-01
9.72165e-02,5.14370e-01
9.89709e-02,4.78639e-01
1.00757e-01,4.45247e-01
1.02575e-01,4.14043e-01
1.04426e-01,3.84883e-01
1.06311e-01,3.57634e-01
1.08229e-01,3.32173e-01
1.10183e-01,3.08383e-01
1.12171e-01,2.86154e-01
1.14195e-01,2.65386e-01
1.16256e-01,2.45982e-01
1.18354e-01,2.27854e-01
1.20490e-01,2.10918e-01
1.22664e-01,1.95096e-01
1.24878e-01,1.80315e-01
1.27132e-01,1.66507e-01
1.29426e-01,1.53609e-01
1.31762e-01,1.41561e-01
1.34139e-01,1.30306e-01
1.36560e-01,1.19794e-01
1.39025e-01,1.09975e-01
1.41533e-01,1.00803e-01
1.44088e-01,9.22372e-02
1.46688e-01,8.42364e-02
1.49335e-01,7.67640e-02
1.52030e-01,6.97850e-02
1.54774e-01,6.32672e-02
1.57567e-01,5.71800e-02
1.60410e-01,5.14952e-02
1.63305e-01,4.61862e-02
1.66252e-01,4.12283e-02
1.69252e-01,3.65984e-02
1.72307e-01,3.22747e-02
1.75416e-01,2.82372e-02
1.78582e-01,2.44669e-02
1.81805e-01,2.09463e-02
1.85086e-01,1.76587e-02
1.88426e-01,1.45889e-02
1.91826e-01,1.17225e-02
1.95288e-01,9.04594e-03
1.98812e-01,6.54676e-03
2.02400e-01,4.21323e-03
2.06053e-01,2.03439e-03
2.09771e-01,0.00000e+00
