m1=856250.219, m2=13.330, gsp=2.378, rhosp=778.921
fGW[Hz],dPh[rad]
1.58435e-03,9.38252e+03
1.59374e-03,9.17522e+03
1.60319e-03,8.97244e+03
1.61269e-03,8.77407e+03
1.62225e-03,8.58002e+03
1.63186e-03,8.39021e+03
1.64154e-03,8.20453e+03
1.65126e-03,8.02289e+03
1.66105e-03,7.84522e+03
1.67090e-03,7.67142e+03
1.68080e-03,7.50140e+03
1.69076e-03,7.33509e+03
1.70078e-03,7.17241e+03
1.71086e-03,7.01327e+03
1.72100e-03,6.85761e+03
1.73120e-03,6.70533e+03
1.74146e-03,6.55638e+03
1.75178e-03,6.41067e+03
1.76217e-03,6.26814e+03
1.77261e-03,6.12872e+03
1.78312e-03,5.99234e+03
1.79368e-03,5.85894e+03
1.80432e-03,5.72844e+03
1.81501e-03,5.60079e+03
1.82577e-03,5.47592e+03
1.83659e-03,5.35378e+03
1.84747e-03,5.23430e+03
1.85842e-03,5.11743e+03
1.86944e-03,5.00310e+03
1.88052e-03,4.89127e+03
1.89166e-03,4.78188e+03
1.90287e-03,4.67488e+03
1.91415e-03,4.57021e+03
1.92550e-03,4.46783e+03
1.93691e-03,4.36767e+03
1.94839e-03,4.26971e+03
1.95994e-03,4.17388e+03
1.97155e-03,4.08014e+03
1.98324e-03,3.98845e+03
1.99499e-03,3.89876e+03
2.00682e-03,3.81103e+03
2.01871e-03,3.72521e+03
2.03067e-03,3.64127e+03
2.04271e-03,3.55915e+03
2.05482e-03,3.47883e+03
2.06699e-03,3.40026e+03
2.07925e-03,3.32341e+03
2.09157e-03,3.24824e+03
2.10396e-03,3.17470e+03
2.11643e-03,3.10277e+03
2.12898e-03,3.03242e+03
2.14160e-03,2.96359e+03
2.15429e-03,2.89628e+03
2.16706e-03,2.83043e+03
2.17990e-03,2.76601e+03
2.19282e-03,2.70301e+03
2.20582e-03,2.64138e+03
2.21889e-03,2.58110e+03
2.23204e-03,2.52213e+03
2.24527e-03,2.46445e+03
2.25858e-03,2.40803e+03
2.27196e-03,2.35284e+03
2.28543e-03,2.29886e+03
2.29898e-03,2.24606e+03
2.31260e-03,2.19441e+03
2.32631e-03,2.14388e+03
2.34010e-03,2.09446e+03
2.35396e-03,2.04613e+03
2.36792e-03,1.99884e+03
2.38195e-03,1.95259e+03
2.39607e-03,1.90735e+03
2.41027e-03,1.86310e+03
2.42455e-03,1.81982e+03
2.43892e-03,1.77748e+03
2.45338e-03,1.73606e+03
2.46792e-03,1.69555e+03
2.48255e-03,1.65593e+03
2.49726e-03,1.61717e+03
2.51206e-03,1.57926e+03
2.52695e-03,1.54217e+03
2.54193e-03,1.50590e+03
2.55699e-03,1.47042e+03
2.57215e-03,1.43571e+03
2.58739e-03,1.40177e+03
2.60273e-03,1.36856e+03
2.61815e-03,1.33608e+03
2.63367e-03,1.30431e+03
2.64928e-03,1.27324e+03
2.66498e-03,1.24284e+03
2.68078e-03,1.21311e+03
2.69666e-03,1.18403e+03
2.71265e-03,1.15558e+03
2.72872e-03,1.12776e+03
2.74490e-03,1.10054e+03
2.76117e-03,1.07392e+03
2.77753e-03,1.04788e+03
2.79399e-03,1.02241e+03
2.81055e-03,9.97494e+02
2.82721e-03,9.73125e+02
2.84397e-03,9.49288e+02
2.86082e-03,9.25973e+02
2.87778e-03,9.03167e+02
2.89483e-03,8.80860e+02
2.91199e-03,8.59040e+02
2.92925e-03,8.37698e+02
2.94661e-03,8.16822e+02
2.96407e-03,7.96402e+02
2.98164e-03,7.76429e+02
2.99931e-03,7.56893e+02
3.01709e-03,7.37783e+02
3.03497e-03,7.19092e+02
3.05296e-03,7.00809e+02
3.07105e-03,6.82926e+02
3.08926e-03,6.65434e+02
3.10756e-03,6.48325e+02
3.12598e-03,6.31590e+02
3.14451e-03,6.15220e+02
3.16315e-03,5.99209e+02
3.18189e-03,5.83547e+02
3.20075e-03,5.68229e+02
3.21972e-03,5.53245e+02
3.23881e-03,5.38588e+02
3.25800e-03,5.24253e+02
3.27731e-03,5.10231e+02
3.29674e-03,4.96515e+02
3.31627e-03,4.83100e+02
3.33593e-03,4.69978e+02
3.35570e-03,4.57142e+02
3.37559e-03,4.44588e+02
3.39560e-03,4.32308e+02
3.41572e-03,4.20297e+02
3.43597e-03,4.08548e+02
3.45633e-03,3.97057e+02
3.47682e-03,3.85817e+02
3.49742e-03,3.74822e+02
3.51815e-03,3.64069e+02
3.53900e-03,3.53550e+02
3.55998e-03,3.43261e+02
3.58108e-03,3.33198e+02
3.60230e-03,3.23354e+02
3.62365e-03,3.13726e+02
3.64513e-03,3.04309e+02
3.66673e-03,2.95098e+02
3.68846e-03,2.86088e+02
3.71032e-03,2.77275e+02
3.73231e-03,2.68655e+02
3.75444e-03,2.60223e+02
3.77669e-03,2.51977e+02
3.79907e-03,2.43910e+02
3.82159e-03,2.36020e+02
3.84424e-03,2.28302e+02
3.86702e-03,2.20754e+02
3.88994e-03,2.13370e+02
3.91300e-03,2.06148e+02
3.93619e-03,1.99084e+02
3.95952e-03,1.92175e+02
3.98298e-03,1.85417e+02
4.00659e-03,1.78807e+02
4.03034e-03,1.72341e+02
4.05422e-03,1.66017e+02
4.07825e-03,1.59831e+02
4.10242e-03,1.53780e+02
4.12674e-03,1.47862e+02
4.15120e-03,1.42074e+02
4.17580e-03,1.36412e+02
4.20055e-03,1.30874e+02
4.22544e-03,1.25457e+02
4.25049e-03,1.20158e+02
4.27568e-03,1.14976e+02
4.30102e-03,1.09907e+02
4.32651e-03,1.04949e+02
4.35216e-03,1.00099e+02
4.37795e-03,9.53559e+01
4.40390e-03,9.07163e+01
4.43000e-03,8.61782e+01
4.45625e-03,8.17394e+01
4.48267e-03,7.73977e+01
4.50923e-03,7.31511e+01
4.53596e-03,6.89973e+01
4.56284e-03,6.49345e+01
4.58989e-03,6.09606e+01
4.61709e-03,5.70737e+01
4.64445e-03,5.32718e+01
4.67198e-03,4.95532e+01
4.69967e-03,4.59159e+01
4.72752e-03,4.23583e+01
4.75554e-03,3.88785e+01
4.78373e-03,3.54748e+01
4.81208e-03,3.21457e+01
4.84060e-03,2.88894e+01
4.86929e-03,2.57044e+01
4.89815e-03,2.25891e+01
4.92718e-03,1.95419e+01
4.95638e-03,1.65615e+01
4.98576e-03,1.36463e+01
5.01531e-03,1.07949e+01
5.04503e-03,8.00596e+00
5.07494e-03,5.27804e+00
5.10501e-03,2.60982e+00
5.13527e-03,0.00000e+00
