m1=3071.141, m2=88.750, gsp=2.306, rhosp=317.107
fGW[Hz],dPh[rad]
3.19131e-03,6.56142e+02
3.29099e-03,6.14529e+02
3.39378e-03,5.75555e+02
3.49978e-03,5.39051e+02
3.60910e-03,5.04862e+02
3.72182e-03,4.72841e+02
3.83807e-03,4.42849e+02
3.95795e-03,4.14759e+02
4.08157e-03,3.88450e+02
4.20905e-03,3.63809e+02
4.34052e-03,3.40731e+02
4.47609e-03,3.19115e+02
4.61589e-03,2.98870e+02
4.76007e-03,2.79909e+02
4.90874e-03,2.62150e+02
5.06206e-03,2.45517e+02
5.22017e-03,2.29939e+02
5.38321e-03,2.15348e+02
5.55135e-03,2.01683e+02
5.72474e-03,1.88884e+02
5.90355e-03,1.76897e+02
6.08794e-03,1.65670e+02
6.27809e-03,1.55155e+02
6.47418e-03,1.45306e+02
6.67639e-03,1.36083e+02
6.88492e-03,1.27444e+02
7.09996e-03,1.19353e+02
7.32172e-03,1.11775e+02
7.55041e-03,1.04678e+02
7.78624e-03,9.80309e+01
8.02943e-03,9.18055e+01
8.28022e-03,8.59749e+01
8.53885e-03,8.05141e+01
8.80555e-03,7.53997e+01
9.08058e-03,7.06097e+01
9.36420e-03,6.61236e+01
9.65668e-03,6.19221e+01
9.95830e-03,5.79871e+01
1.02693e-02,5.43018e+01
1.05901e-02,5.08503e+01
1.09209e-02,4.76177e+01
1.12620e-02,4.45903e+01
1.16137e-02,4.17550e+01
1.19764e-02,3.90996e+01
1.23505e-02,3.66127e+01
1.27363e-02,3.42836e+01
1.31341e-02,3.21024e+01
1.35443e-02,3.00596e+01
1.39673e-02,2.81465e+01
1.44036e-02,2.63548e+01
1.48535e-02,2.46768e+01
1.53174e-02,2.31054e+01
1.57958e-02,2.16338e+01
1.62892e-02,2.02556e+01
1.67980e-02,1.89649e+01
1.73226e-02,1.77562e+01
1.78637e-02,1.66242e+01
1.84216e-02,1.55642e+01
1.89970e-02,1.45714e+01
1.95904e-02,1.36418e+01
2.02023e-02,1.27712e+01
2.08333e-02,1.19560e+01
2.14840e-02,1.11925e+01
2.21550e-02,1.04776e+01
2.28470e-02,9.80814e+00
2.35606e-02,9.18123e+00
2.42965e-02,8.59418e+00
2.50553e-02,8.04447e+00
2.58379e-02,7.52972e+00
2.66449e-02,7.04771e+00
2.74772e-02,6.59637e+00
2.83354e-02,6.17376e+00
2.92204e-02,5.77804e+00
3.01331e-02,5.40751e+00
3.10742e-02,5.06057e+00
3.20448e-02,4.73573e+00
3.30457e-02,4.43158e+00
3.40778e-02,4.14681e+00
3.51422e-02,3.88018e+00
3.62398e-02,3.63055e+00
3.73718e-02,3.39684e+00
3.85390e-02,3.17803e+00
3.97427e-02,2.97318e+00
4.09841e-02,2.78141e+00
4.22642e-02,2.60187e+00
4.35842e-02,2.43380e+00
4.49455e-02,2.27647e+00
4.63494e-02,2.12918e+00
4.77970e-02,1.99132e+00
4.92899e-02,1.86226e+00
5.08294e-02,1.74147e+00
5.24170e-02,1.62840e+00
5.40542e-02,1.52257e+00
5.57425e-02,1.42353e+00
5.74836e-02,1.33082e+00
5.92790e-02,1.24407e+00
6.11305e-02,1.16287e+00
6.30399e-02,1.08689e+00
6.50089e-02,1.01579e+00
6.70393e-02,9.49259e-01
6.91332e-02,8.87005e-01
7.12925e-02,8.28755e-01
7.35193e-02,7.74256e-01
7.58156e-02,7.23268e-01
7.81836e-02,6.75567e-01
8.06256e-02,6.30944e-01
8.31438e-02,5.89202e-01
8.57407e-02,5.50158e-01
8.84187e-02,5.13640e-01
9.11804e-02,4.79486e-01
9.40283e-02,4.47545e-01
9.69652e-02,4.17675e-01
9.99938e-02,3.89746e-01
1.03117e-01,3.63631e-01
1.06338e-01,3.39216e-01
1.09659e-01,3.16392e-01
1.13084e-01,2.95056e-01
1.16616e-01,2.75114e-01
1.20259e-01,2.56475e-01
1.24015e-01,2.39058e-01
1.27888e-01,2.22782e-01
1.31883e-01,2.07575e-01
1.36002e-01,1.93369e-01
1.40250e-01,1.80098e-01
1.44630e-01,1.67703e-01
1.49148e-01,1.56127e-01
1.53806e-01,1.45318e-01
1.58610e-01,1.35226e-01
1.63564e-01,1.25805e-01
1.68673e-01,1.17011e-01
1.73941e-01,1.08804e-01
1.79374e-01,1.01146e-01
1.84976e-01,9.40019e-02
1.90754e-01,8.73377e-02
1.96712e-01,8.11223e-02
2.02856e-01,7.53268e-02
2.09192e-01,6.99237e-02
2.15726e-01,6.48874e-02
2.22464e-01,6.01941e-02
2.29412e-01,5.58212e-02
2.36578e-01,5.17479e-02
2.43967e-01,4.79545e-02
2.51587e-01,4.44225e-02
2.59445e-01,4.11349e-02
2.67549e-01,3.80754e-02
2.75905e-01,3.52290e-02
2.84523e-01,3.25817e-02
2.93409e-01,3.01201e-02
3.02574e-01,2.78319e-02
3.12024e-01,2.57056e-02
3.21770e-01,2.37303e-02
3.31820e-01,2.18960e-02
3.42184e-01,2.01931e-02
3.52872e-01,1.86128e-02
3.63893e-01,1.71468e-02
3.75259e-01,1.57873e-02
3.86980e-01,1.45271e-02
3.99067e-01,1.33593e-02
4.11531e-01,1.22778e-02
4.24385e-01,1.12764e-02
4.37640e-01,1.03497e-02
4.51309e-01,9.49248e-03
4.65406e-01,8.69990e-03
4.79942e-01,7.96742e-03
4.94933e-01,7.29081e-03
5.10391e-01,6.66613e-03
5.26333e-01,6.08966e-03
5.42772e-01,5.55797e-03
5.59725e-01,5.06784e-03
5.77207e-01,4.61626e-03
5.95236e-01,4.20042e-03
6.13827e-01,3.81771e-03
6.32999e-01,3.46570e-03
6.52771e-01,3.14209e-03
6.73159e-01,2.84478e-03
6.94184e-01,2.57179e-03
7.15867e-01,2.32129e-03
7.38226e-01,2.09155e-03
7.61283e-01,1.88098e-03
7.85061e-01,1.68811e-03
8.09582e-01,1.51156e-03
8.34868e-01,1.35005e-03
8.60944e-01,1.20239e-03
8.87835e-01,1.06748e-03
9.15566e-01,9.44292e-04
9.44162e-01,8.31884e-04
9.73652e-01,7.29376e-04
1.00406e+00,6.35957e-04
1.03542e+00,5.50874e-04
1.06776e+00,4.73432e-04
1.10111e+00,4.02990e-04
1.13551e+00,3.38954e-04
1.17097e+00,2.80779e-04
1.20755e+00,2.27960e-04
1.24526e+00,1.80034e-04
1.28416e+00,1.36574e-04
1.32427e+00,9.71864e-05
1.36563e+00,6.15111e-05
1.40828e+00,2.92169e-05
1.45227e+00,0.00000e+00
