m1=157294.035, m2=13.723, gsp=2.342, rhosp=5068.562
fGW[Hz],dPh[rad]
2.39386e-03,5.75310e+04
2.42361e-03,5.51368e+04
2.45373e-03,5.28389e+04
2.48422e-03,5.06336e+04
2.51509e-03,4.85172e+04
2.54635e-03,4.64865e+04
2.57799e-03,4.45380e+04
2.61003e-03,4.26686e+04
2.64246e-03,4.08753e+04
2.67530e-03,3.91550e+04
2.70854e-03,3.75049e+04
2.74220e-03,3.59223e+04
2.77628e-03,3.44045e+04
2.81078e-03,3.29489e+04
2.84571e-03,3.15532e+04
2.88107e-03,3.02150e+04
2.91688e-03,2.89319e+04
2.95312e-03,2.77019e+04
2.98982e-03,2.65227e+04
3.02698e-03,2.53924e+04
3.06459e-03,2.43090e+04
3.10267e-03,2.32707e+04
3.14123e-03,2.22756e+04
3.18027e-03,2.13219e+04
3.21979e-03,2.04081e+04
3.25980e-03,1.95326e+04
3.30031e-03,1.86936e+04
3.34132e-03,1.78899e+04
3.38284e-03,1.71200e+04
3.42488e-03,1.63824e+04
3.46744e-03,1.56759e+04
3.51053e-03,1.49992e+04
3.55416e-03,1.43510e+04
3.59832e-03,1.37303e+04
3.64304e-03,1.31359e+04
3.68831e-03,1.25666e+04
3.73414e-03,1.20216e+04
3.78055e-03,1.14997e+04
3.82753e-03,1.10000e+04
3.87509e-03,1.05216e+04
3.92325e-03,1.00636e+04
3.97200e-03,9.62516e+03
4.02136e-03,9.20547e+03
4.07133e-03,8.80374e+03
4.12193e-03,8.41924e+03
4.17315e-03,8.05122e+03
4.22501e-03,7.69902e+03
4.27751e-03,7.36195e+03
4.33067e-03,7.03939e+03
4.38449e-03,6.73072e+03
4.43897e-03,6.43537e+03
4.49413e-03,6.15277e+03
4.54998e-03,5.88237e+03
4.60652e-03,5.62367e+03
4.66377e-03,5.37617e+03
4.72172e-03,5.13940e+03
4.78040e-03,4.91289e+03
4.83980e-03,4.69622e+03
4.89995e-03,4.48896e+03
4.96084e-03,4.29071e+03
5.02249e-03,4.10109e+03
5.08490e-03,3.91973e+03
5.14809e-03,3.74628e+03
5.21206e-03,3.58040e+03
5.27683e-03,3.42176e+03
5.34241e-03,3.27005e+03
5.40880e-03,3.12497e+03
5.47601e-03,2.98625e+03
5.54406e-03,2.85360e+03
5.61296e-03,2.72676e+03
5.68271e-03,2.60549e+03
5.75333e-03,2.48954e+03
5.82482e-03,2.37869e+03
5.89721e-03,2.27271e+03
5.97049e-03,2.17138e+03
6.04469e-03,2.07452e+03
6.11980e-03,1.98193e+03
6.19585e-03,1.89341e+03
6.27285e-03,1.80880e+03
6.35080e-03,1.72792e+03
6.42972e-03,1.65061e+03
6.50962e-03,1.57671e+03
6.59051e-03,1.50609e+03
6.67241e-03,1.43858e+03
6.75533e-03,1.37406e+03
6.83928e-03,1.31240e+03
6.92427e-03,1.25347e+03
7.01032e-03,1.19716e+03
7.09743e-03,1.14334e+03
7.18563e-03,1.09190e+03
7.27493e-03,1.04275e+03
7.36533e-03,9.95786e+02
7.45686e-03,9.50906e+02
7.54952e-03,9.08021e+02
7.64334e-03,8.67044e+02
7.73832e-03,8.27889e+02
7.83449e-03,7.90477e+02
7.93184e-03,7.54732e+02
8.03041e-03,7.20579e+02
8.13020e-03,6.87948e+02
8.23124e-03,6.56772e+02
8.33353e-03,6.26986e+02
8.43709e-03,5.98530e+02
8.54193e-03,5.71345e+02
8.64808e-03,5.45373e+02
8.75555e-03,5.20561e+02
8.86435e-03,4.96859e+02
8.97451e-03,4.74216e+02
9.08604e-03,4.52586e+02
9.19895e-03,4.31923e+02
9.31326e-03,4.12186e+02
9.42899e-03,3.93331e+02
9.54617e-03,3.75322e+02
9.66480e-03,3.58119e+02
9.78490e-03,3.41687e+02
9.90649e-03,3.25992e+02
1.00296e-02,3.11000e+02
1.01542e-02,2.96681e+02
1.02804e-02,2.83004e+02
1.04082e-02,2.69941e+02
1.05375e-02,2.57465e+02
1.06685e-02,2.45549e+02
1.08010e-02,2.34168e+02
1.09353e-02,2.23298e+02
1.10712e-02,2.12917e+02
1.12087e-02,2.03002e+02
1.13480e-02,1.93534e+02
1.14890e-02,1.84491e+02
1.16318e-02,1.75855e+02
1.17764e-02,1.67607e+02
1.19227e-02,1.59731e+02
1.20709e-02,1.52209e+02
1.22209e-02,1.45026e+02
1.23727e-02,1.38166e+02
1.25265e-02,1.31616e+02
1.26822e-02,1.25360e+02
1.28398e-02,1.19387e+02
1.29993e-02,1.13683e+02
1.31609e-02,1.08235e+02
1.33244e-02,1.03034e+02
1.34900e-02,9.80669e+01
1.36576e-02,9.33241e+01
1.38273e-02,8.87951e+01
1.39992e-02,8.44706e+01
1.41731e-02,8.03412e+01
1.43493e-02,7.63983e+01
1.45276e-02,7.26333e+01
1.47081e-02,6.90384e+01
1.48909e-02,6.56058e+01
1.50759e-02,6.23282e+01
1.52633e-02,5.91987e+01
1.54530e-02,5.62106e+01
1.56450e-02,5.33576e+01
1.58394e-02,5.06335e+01
1.60362e-02,4.80325e+01
1.62355e-02,4.55491e+01
1.64373e-02,4.31780e+01
1.66415e-02,4.09142e+01
1.68483e-02,3.87527e+01
1.70577e-02,3.66890e+01
1.72697e-02,3.47186e+01
1.74843e-02,3.28374e+01
1.77016e-02,3.10414e+01
1.79216e-02,2.93266e+01
1.81443e-02,2.76894e+01
1.83697e-02,2.61263e+01
1.85980e-02,2.46340e+01
1.88291e-02,2.32093e+01
1.90631e-02,2.18490e+01
1.93000e-02,2.05504e+01
1.95398e-02,1.93106e+01
1.97827e-02,1.81269e+01
2.00285e-02,1.69969e+01
2.02774e-02,1.59181e+01
2.05294e-02,1.48881e+01
2.07845e-02,1.39048e+01
2.10428e-02,1.29661e+01
2.13043e-02,1.20699e+01
2.15690e-02,1.12143e+01
2.18371e-02,1.03975e+01
2.21084e-02,9.61779e+00
2.23832e-02,8.87339e+00
2.26613e-02,8.16273e+00
2.29429e-02,7.48430e+00
2.32280e-02,6.83664e+00
2.35167e-02,6.21834e+00
2.38089e-02,5.62809e+00
2.41048e-02,5.06462e+00
2.44043e-02,4.52670e+00
2.47076e-02,4.01318e+00
2.50146e-02,3.52296e+00
2.53255e-02,3.05498e+00
2.56402e-02,2.60824e+00
2.59588e-02,2.18177e+00
2.62814e-02,1.77465e+00
2.66080e-02,1.38600e+00
2.69387e-02,1.01500e+00
2.72734e-02,6.60834e-01
2.76124e-02,3.22743e-01
2.79555e-02,0.00000e+00
