m1=227561.707, m2=16.230, gsp=2.433, rhosp=2012.570
fGW[Hz],dPh[rad]
2.04961e-03,1.45718e+05
2.07285e-03,1.40082e+05
2.09635e-03,1.34658e+05
2.12012e-03,1.29440e+05
2.14416e-03,1.24420e+05
2.16847e-03,1.19589e+05
2.19306e-03,1.14942e+05
2.21792e-03,1.10472e+05
2.24307e-03,1.06172e+05
2.26850e-03,1.02035e+05
2.29423e-03,9.80566e+04
2.32024e-03,9.42297e+04
2.34655e-03,9.05492e+04
2.37315e-03,8.70095e+04
2.40006e-03,8.36054e+04
2.42727e-03,8.03319e+04
2.45479e-03,7.71841e+04
2.48263e-03,7.41572e+04
2.51078e-03,7.12469e+04
2.53925e-03,6.84486e+04
2.56804e-03,6.57582e+04
2.59715e-03,6.31717e+04
2.62660e-03,6.06851e+04
2.65638e-03,5.82946e+04
2.68650e-03,5.59967e+04
2.71696e-03,5.37878e+04
2.74777e-03,5.16646e+04
2.77892e-03,4.96238e+04
2.81043e-03,4.76623e+04
2.84230e-03,4.57771e+04
2.87453e-03,4.39652e+04
2.90712e-03,4.22240e+04
2.94008e-03,4.05506e+04
2.97342e-03,3.89426e+04
3.00713e-03,3.73973e+04
3.04123e-03,3.59125e+04
3.07571e-03,3.44857e+04
3.11058e-03,3.31148e+04
3.14585e-03,3.17976e+04
3.18152e-03,3.05321e+04
3.21760e-03,2.93162e+04
3.25408e-03,2.81481e+04
3.29097e-03,2.70258e+04
3.32829e-03,2.59477e+04
3.36603e-03,2.49121e+04
3.40419e-03,2.39172e+04
3.44279e-03,2.29615e+04
3.48183e-03,2.20436e+04
3.52130e-03,2.11618e+04
3.56123e-03,2.03149e+04
3.60161e-03,1.95014e+04
3.64245e-03,1.87201e+04
3.68375e-03,1.79697e+04
3.72551e-03,1.72490e+04
3.76775e-03,1.65569e+04
3.81048e-03,1.58922e+04
3.85368e-03,1.52538e+04
3.89737e-03,1.46408e+04
3.94157e-03,1.40522e+04
3.98626e-03,1.34869e+04
4.03145e-03,1.29441e+04
4.07716e-03,1.24228e+04
4.12339e-03,1.19223e+04
4.17015e-03,1.14418e+04
4.21743e-03,1.09803e+04
4.26525e-03,1.05373e+04
4.31361e-03,1.01119e+04
4.36252e-03,9.70354e+03
4.41198e-03,9.31144e+03
4.46201e-03,8.93499e+03
4.51260e-03,8.57358e+03
4.56377e-03,8.22661e+03
4.61551e-03,7.89352e+03
4.66784e-03,7.57375e+03
4.72077e-03,7.26678e+03
4.77430e-03,6.97209e+03
4.82843e-03,6.68921e+03
4.88318e-03,6.41767e+03
4.93854e-03,6.15700e+03
4.99454e-03,5.90680e+03
5.05117e-03,5.66662e+03
5.10844e-03,5.43609e+03
5.16636e-03,5.21481e+03
5.22494e-03,5.00242e+03
5.28418e-03,4.79856e+03
5.34410e-03,4.60289e+03
5.40469e-03,4.41509e+03
5.46597e-03,4.23484e+03
5.52795e-03,4.06185e+03
5.59063e-03,3.89581e+03
5.65402e-03,3.73646e+03
5.71812e-03,3.58353e+03
5.78296e-03,3.43676e+03
5.84853e-03,3.29590e+03
5.91484e-03,3.16072e+03
5.98191e-03,3.03099e+03
6.04973e-03,2.90649e+03
6.11833e-03,2.78702e+03
6.18770e-03,2.67236e+03
6.25786e-03,2.56234e+03
6.32881e-03,2.45675e+03
6.40057e-03,2.35544e+03
6.47314e-03,2.25821e+03
6.54654e-03,2.16491e+03
6.62077e-03,2.07539e+03
6.69584e-03,1.98948e+03
6.77176e-03,1.90705e+03
6.84854e-03,1.82795e+03
6.92619e-03,1.75205e+03
7.00472e-03,1.67923e+03
7.08414e-03,1.60935e+03
7.16447e-03,1.54230e+03
7.24570e-03,1.47796e+03
7.32785e-03,1.41624e+03
7.41094e-03,1.35701e+03
7.49497e-03,1.30018e+03
7.57995e-03,1.24566e+03
7.66590e-03,1.19334e+03
7.75281e-03,1.14315e+03
7.84072e-03,1.09499e+03
7.92962e-03,1.04879e+03
8.01953e-03,1.00446e+03
8.11046e-03,9.61926e+02
8.20242e-03,9.21122e+02
8.29542e-03,8.81973e+02
8.38948e-03,8.44414e+02
8.48460e-03,8.08380e+02
8.58080e-03,7.73809e+02
8.67810e-03,7.40643e+02
8.77649e-03,7.08824e+02
8.87601e-03,6.78297e+02
8.97665e-03,6.49012e+02
9.07843e-03,6.20916e+02
9.18136e-03,5.93963e+02
9.28546e-03,5.68106e+02
9.39075e-03,5.43300e+02
9.49722e-03,5.19503e+02
9.60491e-03,4.96673e+02
9.71381e-03,4.74773e+02
9.82395e-03,4.53763e+02
9.93534e-03,4.33609e+02
1.00480e-02,4.14274e+02
1.01619e-02,3.95727e+02
1.02771e-02,3.77934e+02
1.03937e-02,3.60866e+02
1.05115e-02,3.44493e+02
1.06307e-02,3.28787e+02
1.07512e-02,3.13720e+02
1.08731e-02,2.99267e+02
1.09964e-02,2.85402e+02
1.11211e-02,2.72103e+02
1.12472e-02,2.59345e+02
1.13747e-02,2.47108e+02
1.15037e-02,2.35368e+02
1.16341e-02,2.24108e+02
1.17660e-02,2.13306e+02
1.18994e-02,2.02945e+02
1.20344e-02,1.93006e+02
1.21708e-02,1.83472e+02
1.23088e-02,1.74328e+02
1.24484e-02,1.65556e+02
1.25895e-02,1.57141e+02
1.27323e-02,1.49070e+02
1.28766e-02,1.41329e+02
1.30226e-02,1.33903e+02
1.31703e-02,1.26780e+02
1.33196e-02,1.19947e+02
1.34706e-02,1.13394e+02
1.36234e-02,1.07108e+02
1.37779e-02,1.01078e+02
1.39341e-02,9.52946e+01
1.40921e-02,8.97472e+01
1.42518e-02,8.44262e+01
1.44134e-02,7.93224e+01
1.45769e-02,7.44271e+01
1.47421e-02,6.97315e+01
1.49093e-02,6.52278e+01
1.50783e-02,6.09079e+01
1.52493e-02,5.67644e+01
1.54222e-02,5.27902e+01
1.55971e-02,4.89783e+01
1.57739e-02,4.53221e+01
1.59528e-02,4.18152e+01
1.61337e-02,3.84516e+01
1.63166e-02,3.52254e+01
1.65016e-02,3.21310e+01
1.66887e-02,2.91630e+01
1.68779e-02,2.63163e+01
1.70693e-02,2.35859e+01
1.72628e-02,2.09671e+01
1.74586e-02,1.84554e+01
1.76565e-02,1.60462e+01
1.78567e-02,1.37356e+01
1.80592e-02,1.15193e+01
1.82639e-02,9.39369e+00
1.84710e-02,7.35494e+00
1.86805e-02,5.39953e+00
1.88923e-02,3.52406e+00
1.91065e-02,1.72526e+00
1.93231e-02,0.00000e+00
