m1=246355.939, m2=4.944, gsp=2.095, rhosp=52.925
fGW[Hz],dPh[rad]
3.13798e-03,1.28581e+02
3.16551e-03,1.24281e+02
3.19329e-03,1.20125e+02
3.22130e-03,1.16107e+02
3.24957e-03,1.12222e+02
3.27808e-03,1.08467e+02
3.30684e-03,1.04837e+02
3.33585e-03,1.01327e+02
3.36512e-03,9.79342e+01
3.39464e-03,9.46543e+01
3.42442e-03,9.14836e+01
3.45447e-03,8.84186e+01
3.48478e-03,8.54556e+01
3.51535e-03,8.25914e+01
3.54619e-03,7.98226e+01
3.57731e-03,7.71460e+01
3.60869e-03,7.45588e+01
3.64035e-03,7.20577e+01
3.67229e-03,6.96401e+01
3.70451e-03,6.73032e+01
3.73702e-03,6.50442e+01
3.76980e-03,6.28606e+01
3.80288e-03,6.07498e+01
3.83624e-03,5.87095e+01
3.86990e-03,5.67374e+01
3.90385e-03,5.48311e+01
3.93810e-03,5.29884e+01
3.97266e-03,5.12073e+01
4.00751e-03,4.94858e+01
4.04267e-03,4.78217e+01
4.07814e-03,4.62133e+01
4.11392e-03,4.46586e+01
4.15001e-03,4.31559e+01
4.18643e-03,4.17034e+01
4.22316e-03,4.02995e+01
4.26021e-03,3.89426e+01
4.29759e-03,3.76311e+01
4.33529e-03,3.63634e+01
4.37333e-03,3.51382e+01
4.41170e-03,3.39539e+01
4.45040e-03,3.28093e+01
4.48945e-03,3.17031e+01
4.52884e-03,3.06338e+01
4.56857e-03,2.96004e+01
4.60866e-03,2.86015e+01
4.64909e-03,2.76362e+01
4.68988e-03,2.67031e+01
4.73103e-03,2.58014e+01
4.77254e-03,2.49298e+01
4.81441e-03,2.40874e+01
4.85665e-03,2.32733e+01
4.89926e-03,2.24865e+01
4.94224e-03,2.17260e+01
4.98560e-03,2.09911e+01
5.02935e-03,2.02808e+01
5.07347e-03,1.95943e+01
5.11799e-03,1.89308e+01
5.16289e-03,1.82896e+01
5.20819e-03,1.76699e+01
5.25388e-03,1.70710e+01
5.29998e-03,1.64921e+01
5.34648e-03,1.59327e+01
5.39338e-03,1.53921e+01
5.44070e-03,1.48696e+01
5.48844e-03,1.43647e+01
5.53659e-03,1.38767e+01
5.58517e-03,1.34051e+01
5.63417e-03,1.29493e+01
5.68360e-03,1.25089e+01
5.73347e-03,1.20832e+01
5.78377e-03,1.16718e+01
5.83452e-03,1.12743e+01
5.88571e-03,1.08901e+01
5.93735e-03,1.05188e+01
5.98944e-03,1.01600e+01
6.04199e-03,9.81320e+00
6.09500e-03,9.47810e+00
6.14847e-03,9.15425e+00
6.20242e-03,8.84129e+00
6.25684e-03,8.53884e+00
6.31173e-03,8.24657e+00
6.36711e-03,7.96412e+00
6.42297e-03,7.69117e+00
6.47932e-03,7.42739e+00
6.53617e-03,7.17249e+00
6.59352e-03,6.92615e+00
6.65137e-03,6.68810e+00
6.70972e-03,6.45806e+00
6.76859e-03,6.23575e+00
6.82798e-03,6.02093e+00
6.88788e-03,5.81333e+00
6.94831e-03,5.61271e+00
7.00928e-03,5.41885e+00
7.07077e-03,5.23150e+00
7.13281e-03,5.05046e+00
7.19539e-03,4.87552e+00
7.25852e-03,4.70646e+00
7.32220e-03,4.54309e+00
7.38645e-03,4.38522e+00
7.45125e-03,4.23267e+00
7.51663e-03,4.08524e+00
7.58258e-03,3.94279e+00
7.64910e-03,3.80513e+00
7.71621e-03,3.67210e+00
7.78391e-03,3.54355e+00
7.85221e-03,3.41933e+00
7.92110e-03,3.29930e+00
7.99059e-03,3.18330e+00
8.06070e-03,3.07122e+00
8.13142e-03,2.96290e+00
8.20276e-03,2.85824e+00
8.27473e-03,2.75710e+00
8.34733e-03,2.65937e+00
8.42057e-03,2.56493e+00
8.49445e-03,2.47367e+00
8.56898e-03,2.38549e+00
8.64416e-03,2.30027e+00
8.72000e-03,2.21793e+00
8.79650e-03,2.13837e+00
8.87368e-03,2.06148e+00
8.95154e-03,1.98718e+00
9.03007e-03,1.91539e+00
9.10930e-03,1.84602e+00
9.18922e-03,1.77899e+00
9.26984e-03,1.71421e+00
9.35117e-03,1.65162e+00
9.43322e-03,1.59114e+00
9.51598e-03,1.53270e+00
9.59947e-03,1.47622e+00
9.68369e-03,1.42166e+00
9.76866e-03,1.36893e+00
9.85436e-03,1.31797e+00
9.94082e-03,1.26874e+00
1.00280e-02,1.22117e+00
1.01160e-02,1.17520e+00
1.02048e-02,1.13078e+00
1.02943e-02,1.08786e+00
1.03846e-02,1.04638e+00
1.04757e-02,1.00630e+00
1.05676e-02,9.67580e-01
1.06604e-02,9.30161e-01
1.07539e-02,8.94005e-01
1.08482e-02,8.59067e-01
1.09434e-02,8.25309e-01
1.10394e-02,7.92688e-01
1.11363e-02,7.61168e-01
1.12340e-02,7.30712e-01
1.13326e-02,7.01282e-01
1.14320e-02,6.72846e-01
1.15323e-02,6.45368e-01
1.16335e-02,6.18818e-01
1.17355e-02,5.93163e-01
1.18385e-02,5.68374e-01
1.19424e-02,5.44421e-01
1.20471e-02,5.21277e-01
1.21528e-02,4.98913e-01
1.22595e-02,4.77304e-01
1.23670e-02,4.56423e-01
1.24755e-02,4.36248e-01
1.25850e-02,4.16753e-01
1.26954e-02,3.97916e-01
1.28068e-02,3.79715e-01
1.29192e-02,3.62128e-01
1.30325e-02,3.45134e-01
1.31468e-02,3.28714e-01
1.32622e-02,3.12848e-01
1.33785e-02,2.97518e-01
1.34959e-02,2.82705e-01
1.36143e-02,2.68392e-01
1.37338e-02,2.54562e-01
1.38543e-02,2.41198e-01
1.39758e-02,2.28286e-01
1.40984e-02,2.15810e-01
1.42221e-02,2.03755e-01
1.43469e-02,1.92106e-01
1.44728e-02,1.80851e-01
1.45998e-02,1.69976e-01
1.47279e-02,1.59468e-01
1.48571e-02,1.49315e-01
1.49874e-02,1.39504e-01
1.51189e-02,1.30025e-01
1.52516e-02,1.20866e-01
1.53854e-02,1.12015e-01
1.55204e-02,1.03464e-01
1.56565e-02,9.52015e-02
1.57939e-02,8.72179e-02
1.59325e-02,7.95038e-02
1.60723e-02,7.20501e-02
1.62133e-02,6.48481e-02
1.63555e-02,5.78893e-02
1.64990e-02,5.11655e-02
1.66438e-02,4.46686e-02
1.67898e-02,3.83912e-02
1.69371e-02,3.23257e-02
1.70857e-02,2.64651e-02
1.72356e-02,2.08023e-02
1.73868e-02,1.53308e-02
1.75394e-02,1.00440e-02
1.76933e-02,4.93574e-03
1.78485e-02,0.00000e+00
