m1=4183.093, m2=28.818, gsp=2.355, rhosp=6773.961
fGW[Hz],dPh[rad]
4.49196e-03,1.46408e+04
4.61688e-03,1.38198e+04
4.74528e-03,1.30447e+04
4.87725e-03,1.23130e+04
5.01289e-03,1.16222e+04
5.15230e-03,1.09701e+04
5.29559e-03,1.03544e+04
5.44287e-03,9.77325e+03
5.59424e-03,9.22461e+03
5.74982e-03,8.70668e+03
5.90972e-03,8.21774e+03
6.07408e-03,7.75617e+03
6.24300e-03,7.32045e+03
6.41662e-03,6.90911e+03
6.59507e-03,6.52082e+03
6.77849e-03,6.15426e+03
6.96700e-03,5.80823e+03
7.16076e-03,5.48159e+03
7.35991e-03,5.17324e+03
7.56459e-03,4.88216e+03
7.77497e-03,4.60739e+03
7.99120e-03,4.34801e+03
8.21344e-03,4.10317e+03
8.44186e-03,3.87205e+03
8.67663e-03,3.65389e+03
8.91794e-03,3.44795e+03
9.16595e-03,3.25355e+03
9.42086e-03,3.07006e+03
9.68287e-03,2.89686e+03
9.95215e-03,2.73337e+03
1.02289e-02,2.57904e+03
1.05134e-02,2.43338e+03
1.08058e-02,2.29589e+03
1.11063e-02,2.16612e+03
1.14152e-02,2.04362e+03
1.17326e-02,1.92801e+03
1.20589e-02,1.81888e+03
1.23943e-02,1.71589e+03
1.27390e-02,1.61868e+03
1.30933e-02,1.52693e+03
1.34574e-02,1.44033e+03
1.38317e-02,1.35861e+03
1.42164e-02,1.28147e+03
1.46117e-02,1.20868e+03
1.50181e-02,1.13998e+03
1.54357e-02,1.07514e+03
1.58650e-02,1.01395e+03
1.63062e-02,9.56209e+02
1.67597e-02,9.01717e+02
1.72258e-02,8.50294e+02
1.77049e-02,8.01768e+02
1.81973e-02,7.55977e+02
1.87034e-02,7.12767e+02
1.92235e-02,6.71995e+02
1.97581e-02,6.33523e+02
2.03076e-02,5.97222e+02
2.08724e-02,5.62972e+02
2.14529e-02,5.30655e+02
2.20495e-02,5.00165e+02
2.26627e-02,4.71399e+02
2.32930e-02,4.44260e+02
2.39408e-02,4.18657e+02
2.46066e-02,3.94503e+02
2.52909e-02,3.71718e+02
2.59943e-02,3.50224e+02
2.67172e-02,3.29949e+02
2.74602e-02,3.10825e+02
2.82239e-02,2.92787e+02
2.90088e-02,2.75773e+02
2.98156e-02,2.59727e+02
3.06448e-02,2.44593e+02
3.14970e-02,2.30321e+02
3.23730e-02,2.16863e+02
3.32733e-02,2.04171e+02
3.41987e-02,1.92204e+02
3.51498e-02,1.80921e+02
3.61273e-02,1.70282e+02
3.71320e-02,1.60252e+02
3.81647e-02,1.50797e+02
3.92261e-02,1.41883e+02
4.03170e-02,1.33481e+02
4.14382e-02,1.25561e+02
4.25907e-02,1.18097e+02
4.37751e-02,1.11063e+02
4.49926e-02,1.04433e+02
4.62438e-02,9.81867e+01
4.75299e-02,9.23009e+01
4.88518e-02,8.67556e+01
5.02104e-02,8.15314e+01
5.16068e-02,7.66103e+01
5.30420e-02,7.19750e+01
5.45171e-02,6.76094e+01
5.60333e-02,6.34981e+01
5.75916e-02,5.96268e+01
5.91933e-02,5.59817e+01
6.08395e-02,5.25501e+01
6.25315e-02,4.93197e+01
6.42705e-02,4.62792e+01
6.60579e-02,4.34177e+01
6.78950e-02,4.07250e+01
6.97833e-02,3.81914e+01
7.17240e-02,3.58080e+01
7.37187e-02,3.35660e+01
7.57689e-02,3.14575e+01
7.78760e-02,2.94747e+01
8.00418e-02,2.76104e+01
8.22679e-02,2.58579e+01
8.45558e-02,2.42106e+01
8.69074e-02,2.26626e+01
8.93243e-02,2.12082e+01
9.18085e-02,1.98418e+01
9.43618e-02,1.85584e+01
9.69860e-02,1.73532e+01
9.96833e-02,1.62218e+01
1.02456e-01,1.51596e+01
1.05305e-01,1.41629e+01
1.08234e-01,1.32276e+01
1.11244e-01,1.23503e+01
1.14337e-01,1.15275e+01
1.17517e-01,1.07561e+01
1.20785e-01,1.00330e+01
1.24145e-01,9.35529e+00
1.27597e-01,8.72038e+00
1.31146e-01,8.12572e+00
1.34793e-01,7.56889e+00
1.38542e-01,7.04765e+00
1.42395e-01,6.55986e+00
1.46355e-01,6.10353e+00
1.50425e-01,5.67675e+00
1.54608e-01,5.27773e+00
1.58908e-01,4.90481e+00
1.63327e-01,4.55639e+00
1.67870e-01,4.23097e+00
1.72538e-01,3.92714e+00
1.77337e-01,3.64358e+00
1.82269e-01,3.37903e+00
1.87338e-01,3.13231e+00
1.92548e-01,2.90231e+00
1.97902e-01,2.68798e+00
2.03406e-01,2.48834e+00
2.09063e-01,2.30245e+00
2.14877e-01,2.12945e+00
2.20853e-01,1.96850e+00
2.26995e-01,1.81884e+00
2.33308e-01,1.67973e+00
2.39797e-01,1.55049e+00
2.46466e-01,1.43047e+00
2.53320e-01,1.31907e+00
2.60365e-01,1.21571e+00
2.67606e-01,1.11987e+00
2.75048e-01,1.03103e+00
2.82698e-01,9.48729e-01
2.90560e-01,8.72519e-01
2.98640e-01,8.01985e-01
3.06946e-01,7.36737e-01
3.15482e-01,6.76408e-01
3.24256e-01,6.20656e-01
3.33274e-01,5.69159e-01
3.42542e-01,5.21616e-01
3.52069e-01,4.77747e-01
3.61860e-01,4.37288e-01
3.71924e-01,3.99992e-01
3.82267e-01,3.65631e-01
3.92898e-01,3.33988e-01
4.03825e-01,3.04864e-01
4.15056e-01,2.78072e-01
4.26599e-01,2.53436e-01
4.38463e-01,2.30796e-01
4.50657e-01,2.09999e-01
4.63190e-01,1.90904e-01
4.76072e-01,1.73382e-01
4.89312e-01,1.57309e-01
5.02920e-01,1.42574e-01
5.16906e-01,1.29071e-01
5.31282e-01,1.16702e-01
5.46057e-01,1.05379e-01
5.61243e-01,9.50162e-02
5.76852e-01,8.55375e-02
5.92895e-01,7.68708e-02
6.09384e-01,6.89501e-02
6.26331e-01,6.17141e-02
6.43750e-01,5.51065e-02
6.61653e-01,4.90750e-02
6.80054e-01,4.35716e-02
6.98967e-01,3.85520e-02
7.18406e-01,3.39754e-02
7.38385e-01,2.98043e-02
7.58920e-01,2.60041e-02
7.80026e-01,2.25430e-02
8.01719e-01,1.93919e-02
8.24016e-01,1.65239e-02
8.46932e-01,1.39145e-02
8.70486e-01,1.15411e-02
8.94695e-01,9.38301e-03
9.19577e-01,7.42128e-03
9.45151e-01,5.63858e-03
9.71437e-01,4.01901e-03
9.98453e-01,2.54806e-03
1.02622e+00,1.21244e-03
1.05476e+00,0.00000e+00
