m1=31446.697, m2=9.865, gsp=2.180, rhosp=46.809
fGW[Hz],dPh[rad]
4.05175e-03,2.09402e+03
4.12450e-03,1.99801e+03
4.19855e-03,1.90614e+03
4.27394e-03,1.81824e+03
4.35068e-03,1.73416e+03
4.42880e-03,1.65373e+03
4.50832e-03,1.57680e+03
4.58927e-03,1.50324e+03
4.67167e-03,1.43290e+03
4.75555e-03,1.36564e+03
4.84094e-03,1.30135e+03
4.92786e-03,1.23990e+03
5.01634e-03,1.18117e+03
5.10641e-03,1.12505e+03
5.19809e-03,1.07142e+03
5.29143e-03,1.02019e+03
5.38644e-03,9.71257e+02
5.48315e-03,9.24520e+02
5.58160e-03,8.79888e+02
5.68182e-03,8.37273e+02
5.78384e-03,7.96590e+02
5.88769e-03,7.57756e+02
5.99341e-03,7.20694e+02
6.10102e-03,6.85328e+02
6.21056e-03,6.51585e+02
6.32208e-03,6.19396e+02
6.43559e-03,5.88695e+02
6.55114e-03,5.59417e+02
6.66877e-03,5.31500e+02
6.78851e-03,5.04887e+02
6.91040e-03,4.79520e+02
7.03448e-03,4.55346e+02
7.16079e-03,4.32311e+02
7.28936e-03,4.10367e+02
7.42024e-03,3.89465e+02
7.55348e-03,3.69559e+02
7.68910e-03,3.50605e+02
7.82716e-03,3.32562e+02
7.96770e-03,3.15388e+02
8.11076e-03,2.99044e+02
8.25639e-03,2.83494e+02
8.40464e-03,2.68701e+02
8.55555e-03,2.54632e+02
8.70916e-03,2.41254e+02
8.86554e-03,2.28534e+02
9.02472e-03,2.16444e+02
9.18676e-03,2.04954e+02
9.35171e-03,1.94037e+02
9.51963e-03,1.83666e+02
9.69055e-03,1.73816e+02
9.86455e-03,1.64462e+02
1.00417e-02,1.55582e+02
1.02220e-02,1.47153e+02
1.04055e-02,1.39154e+02
1.05923e-02,1.31564e+02
1.07825e-02,1.24365e+02
1.09761e-02,1.17536e+02
1.11732e-02,1.11062e+02
1.13738e-02,1.04924e+02
1.15781e-02,9.91065e+01
1.17859e-02,9.35937e+01
1.19976e-02,8.83709e+01
1.22130e-02,8.34238e+01
1.24323e-02,7.87388e+01
1.26555e-02,7.43031e+01
1.28827e-02,7.01042e+01
1.31140e-02,6.61304e+01
1.33495e-02,6.23703e+01
1.35892e-02,5.88133e+01
1.38332e-02,5.54490e+01
1.40816e-02,5.22678e+01
1.43344e-02,4.92602e+01
1.45918e-02,4.64174e+01
1.48538e-02,4.37309e+01
1.51205e-02,4.11927e+01
1.53920e-02,3.87951e+01
1.56684e-02,3.65307e+01
1.59497e-02,3.43926e+01
1.62361e-02,3.23742e+01
1.65276e-02,3.04691e+01
1.68244e-02,2.86713e+01
1.71264e-02,2.69752e+01
1.74339e-02,2.53753e+01
1.77470e-02,2.38664e+01
1.80656e-02,2.24437e+01
1.83900e-02,2.11024e+01
1.87202e-02,1.98382e+01
1.90563e-02,1.86469e+01
1.93985e-02,1.75244e+01
1.97468e-02,1.64671e+01
2.01014e-02,1.54712e+01
2.04623e-02,1.45334e+01
2.08297e-02,1.36505e+01
2.12037e-02,1.28194e+01
2.15844e-02,1.20372e+01
2.19720e-02,1.13011e+01
2.23665e-02,1.06086e+01
2.27681e-02,9.95722e+00
2.31769e-02,9.34455e+00
2.35930e-02,8.76842e+00
2.40166e-02,8.22673e+00
2.44479e-02,7.71752e+00
2.48868e-02,7.23891e+00
2.53337e-02,6.78913e+00
2.57886e-02,6.36651e+00
2.62516e-02,5.96947e+00
2.67230e-02,5.59652e+00
2.72028e-02,5.24624e+00
2.76912e-02,4.91731e+00
2.81884e-02,4.60847e+00
2.86945e-02,4.31854e+00
2.92098e-02,4.04638e+00
2.97342e-02,3.79096e+00
3.02681e-02,3.55126e+00
3.08116e-02,3.32635e+00
3.13648e-02,3.11535e+00
3.19280e-02,2.91742e+00
3.25013e-02,2.73178e+00
3.30848e-02,2.55767e+00
3.36789e-02,2.39441e+00
3.42836e-02,2.24134e+00
3.48992e-02,2.09783e+00
3.55258e-02,1.96331e+00
3.61637e-02,1.83722e+00
3.68130e-02,1.71905e+00
3.74740e-02,1.60832e+00
3.81468e-02,1.50456e+00
3.88318e-02,1.40734e+00
3.95290e-02,1.31627e+00
4.02388e-02,1.23096e+00
4.09613e-02,1.15106e+00
4.16967e-02,1.07623e+00
4.24454e-02,1.00615e+00
4.32075e-02,9.40529e-01
4.39833e-02,8.79088e-01
4.47731e-02,8.21566e-01
4.55770e-02,7.67716e-01
4.63953e-02,7.17309e-01
4.72284e-02,6.70128e-01
4.80764e-02,6.25970e-01
4.89396e-02,5.84644e-01
4.98183e-02,5.45971e-01
5.07128e-02,5.09784e-01
5.16234e-02,4.75926e-01
5.25503e-02,4.44248e-01
5.34938e-02,4.14612e-01
5.44543e-02,3.86888e-01
5.54321e-02,3.60955e-01
5.64274e-02,3.36699e-01
5.74406e-02,3.14011e-01
5.84719e-02,2.92793e-01
5.95218e-02,2.72950e-01
6.05905e-02,2.54394e-01
6.16785e-02,2.37042e-01
6.27859e-02,2.20818e-01
6.39132e-02,2.05648e-01
6.50608e-02,1.91464e-01
6.62290e-02,1.78205e-01
6.74182e-02,1.65809e-01
6.86287e-02,1.54221e-01
6.98609e-02,1.43389e-01
7.11153e-02,1.33263e-01
7.23922e-02,1.23800e-01
7.36920e-02,1.14954e-01
7.50152e-02,1.06687e-01
7.63621e-02,9.89610e-02
7.77332e-02,9.17406e-02
7.91289e-02,8.49930e-02
8.05497e-02,7.86876e-02
8.19960e-02,7.27956e-02
8.34683e-02,6.72901e-02
8.49670e-02,6.21459e-02
8.64926e-02,5.73394e-02
8.80456e-02,5.28486e-02
8.96264e-02,4.86529e-02
9.12357e-02,4.47331e-02
9.28739e-02,4.10711e-02
9.45415e-02,3.76500e-02
9.62390e-02,3.44541e-02
9.79670e-02,3.14686e-02
9.97260e-02,2.86798e-02
1.01517e-01,2.60748e-02
1.03339e-01,2.36415e-02
1.05195e-01,2.13686e-02
1.07084e-01,1.92457e-02
1.09006e-01,1.72628e-02
1.10964e-01,1.54109e-02
1.12956e-01,1.36812e-02
1.14984e-01,1.20657e-02
1.17049e-01,1.05570e-02
1.19150e-01,9.14796e-03
1.21290e-01,7.83207e-03
1.23468e-01,6.60318e-03
1.25684e-01,5.45556e-03
1.27941e-01,4.38386e-03
1.30238e-01,3.38307e-03
1.32577e-01,2.44852e-03
1.34957e-01,1.57584e-03
1.37380e-01,7.60933e-04
1.39847e-01,0.00000e+00
