m1=61860.801, m2=17.859, gsp=2.244, rhosp=1558.924
fGW[Hz],dPh[rad]
2.73857e-03,1.22985e+04
2.78375e-03,1.17566e+04
2.82968e-03,1.12370e+04
2.87637e-03,1.07388e+04
2.92382e-03,1.02612e+04
2.97206e-03,9.80347e+03
3.02110e-03,9.36478e+03
3.07095e-03,8.94440e+03
3.12161e-03,8.54163e+03
3.17312e-03,8.15578e+03
3.22547e-03,7.78619e+03
3.27869e-03,7.43223e+03
3.33278e-03,7.09328e+03
3.38777e-03,6.76876e+03
3.44366e-03,6.45810e+03
3.50048e-03,6.16074e+03
3.55824e-03,5.87616e+03
3.61694e-03,5.60385e+03
3.67662e-03,5.34333e+03
3.73728e-03,5.09411e+03
3.79894e-03,4.85575e+03
3.86162e-03,4.62781e+03
3.92533e-03,4.40987e+03
3.99010e-03,4.20152e+03
4.05593e-03,4.00237e+03
4.12285e-03,3.81205e+03
4.19087e-03,3.63019e+03
4.26002e-03,3.45645e+03
4.33030e-03,3.29050e+03
4.40175e-03,3.13200e+03
4.47437e-03,2.98066e+03
4.54820e-03,2.83616e+03
4.62324e-03,2.69823e+03
4.69951e-03,2.56660e+03
4.77705e-03,2.44098e+03
4.85587e-03,2.32114e+03
4.93599e-03,2.20682e+03
5.01742e-03,2.09779e+03
5.10021e-03,1.99382e+03
5.18436e-03,1.89470e+03
5.26989e-03,1.80021e+03
5.35684e-03,1.71016e+03
5.44522e-03,1.62435e+03
5.53506e-03,1.54260e+03
5.62639e-03,1.46472e+03
5.71922e-03,1.39056e+03
5.81358e-03,1.31994e+03
5.90950e-03,1.25270e+03
6.00700e-03,1.18870e+03
6.10611e-03,1.12780e+03
6.20685e-03,1.06984e+03
6.30926e-03,1.01471e+03
6.41335e-03,9.62262e+02
6.51917e-03,9.12388e+02
6.62673e-03,8.64964e+02
6.73606e-03,8.19881e+02
6.84720e-03,7.77028e+02
6.96017e-03,7.36304e+02
7.07501e-03,6.97610e+02
7.19174e-03,6.60850e+02
7.31039e-03,6.25934e+02
7.43101e-03,5.92776e+02
7.55361e-03,5.61293e+02
7.67824e-03,5.31404e+02
7.80492e-03,5.03035e+02
7.93370e-03,4.76113e+02
8.06459e-03,4.50568e+02
8.19765e-03,4.26334e+02
8.33291e-03,4.03348e+02
8.47039e-03,3.81548e+02
8.61014e-03,3.60878e+02
8.75220e-03,3.41282e+02
8.89660e-03,3.22706e+02
9.04339e-03,3.05102e+02
9.19260e-03,2.88420e+02
9.34427e-03,2.72616e+02
9.49844e-03,2.57644e+02
9.65515e-03,2.43465e+02
9.81445e-03,2.30036e+02
9.97638e-03,2.17322e+02
1.01410e-02,2.05286e+02
1.03083e-02,1.93893e+02
1.04784e-02,1.83110e+02
1.06513e-02,1.72907e+02
1.08270e-02,1.63253e+02
1.10056e-02,1.54121e+02
1.11872e-02,1.45483e+02
1.13718e-02,1.37314e+02
1.15594e-02,1.29590e+02
1.17501e-02,1.22287e+02
1.19440e-02,1.15382e+02
1.21411e-02,1.08857e+02
1.23414e-02,1.02689e+02
1.25450e-02,9.68612e+01
1.27520e-02,9.13546e+01
1.29624e-02,8.61525e+01
1.31762e-02,8.12384e+01
1.33936e-02,7.65972e+01
1.36146e-02,7.22141e+01
1.38392e-02,6.80753e+01
1.40676e-02,6.41676e+01
1.42997e-02,6.04786e+01
1.45356e-02,5.69964e+01
1.47754e-02,5.37097e+01
1.50192e-02,5.06080e+01
1.52670e-02,4.76811e+01
1.55189e-02,4.49195e+01
1.57749e-02,4.23141e+01
1.60352e-02,3.98564e+01
1.62998e-02,3.75381e+01
1.65687e-02,3.53516e+01
1.68421e-02,3.32897e+01
1.71200e-02,3.13453e+01
1.74024e-02,2.95119e+01
1.76895e-02,2.77835e+01
1.79814e-02,2.61541e+01
1.82781e-02,2.46181e+01
1.85796e-02,2.31704e+01
1.88862e-02,2.18060e+01
1.91978e-02,2.05201e+01
1.95145e-02,1.93085e+01
1.98365e-02,1.81668e+01
2.01638e-02,1.70912e+01
2.04965e-02,1.60778e+01
2.08346e-02,1.51232e+01
2.11784e-02,1.42240e+01
2.15278e-02,1.33770e+01
2.18830e-02,1.25794e+01
2.22440e-02,1.18282e+01
2.26111e-02,1.11207e+01
2.29841e-02,1.04546e+01
2.33633e-02,9.82741e+00
2.37488e-02,9.23688e+00
2.41406e-02,8.68093e+00
2.45389e-02,8.15756e+00
2.49438e-02,7.66489e+00
2.53553e-02,7.20114e+00
2.57737e-02,6.76464e+00
2.61989e-02,6.35382e+00
2.66312e-02,5.96717e+00
2.70706e-02,5.60331e+00
2.75172e-02,5.26091e+00
2.79712e-02,4.93871e+00
2.84327e-02,4.63553e+00
2.89018e-02,4.35028e+00
2.93787e-02,4.08190e+00
2.98634e-02,3.82940e+00
3.03561e-02,3.59186e+00
3.08569e-02,3.36839e+00
3.13661e-02,3.15819e+00
3.18836e-02,2.96045e+00
3.24096e-02,2.77447e+00
3.29443e-02,2.59953e+00
3.34879e-02,2.43500e+00
3.40404e-02,2.28025e+00
3.46020e-02,2.13472e+00
3.51729e-02,1.99786e+00
3.57533e-02,1.86915e+00
3.63431e-02,1.74812e+00
3.69428e-02,1.63431e+00
3.75523e-02,1.52730e+00
3.81719e-02,1.42667e+00
3.88017e-02,1.33206e+00
3.94419e-02,1.24311e+00
4.00926e-02,1.15947e+00
4.07541e-02,1.08084e+00
4.14265e-02,1.00692e+00
4.21100e-02,9.37422e-01
4.28048e-02,8.72090e-01
4.35110e-02,8.10674e-01
4.42289e-02,7.52940e-01
4.49586e-02,6.98670e-01
4.57004e-02,6.47656e-01
4.64544e-02,5.99705e-01
4.72209e-02,5.54634e-01
4.80000e-02,5.12270e-01
4.87919e-02,4.72451e-01
4.95969e-02,4.35027e-01
5.04152e-02,3.99853e-01
5.12470e-02,3.66795e-01
5.20925e-02,3.35726e-01
5.29520e-02,3.06527e-01
5.38257e-02,2.79086e-01
5.47137e-02,2.53297e-01
5.56165e-02,2.29062e-01
5.65341e-02,2.06288e-01
5.74668e-02,1.84886e-01
5.84150e-02,1.64774e-01
5.93788e-02,1.45875e-01
6.03585e-02,1.28116e-01
6.13543e-02,1.11429e-01
6.23666e-02,9.57483e-02
6.33956e-02,8.10143e-02
6.44416e-02,6.71699e-02
6.55048e-02,5.41615e-02
6.65855e-02,4.19387e-02
6.76841e-02,3.04543e-02
6.88009e-02,1.96639e-02
6.99360e-02,9.52553e-03
7.10899e-02,0.00000e+00
