m1=1167.962, m2=3.030, gsp=2.479, rhosp=30.515
fGW[Hz],dPh[rad]
1.43738e-02,2.40685e+05
1.47818e-02,2.27416e+05
1.52013e-02,2.14875e+05
1.56327e-02,2.03023e+05
1.60764e-02,1.91822e+05
1.65327e-02,1.81236e+05
1.70019e-02,1.71231e+05
1.74845e-02,1.61776e+05
1.79807e-02,1.52841e+05
1.84910e-02,1.44396e+05
1.90158e-02,1.36416e+05
1.95555e-02,1.28874e+05
2.01106e-02,1.21747e+05
2.06813e-02,1.15011e+05
2.12683e-02,1.08646e+05
2.18719e-02,1.02631e+05
2.24927e-02,9.69468e+04
2.31311e-02,9.15752e+04
2.37876e-02,8.64990e+04
2.44627e-02,8.17022e+04
2.51570e-02,7.71693e+04
2.58710e-02,7.28859e+04
2.66053e-02,6.88383e+04
2.73604e-02,6.50136e+04
2.81369e-02,6.13995e+04
2.89355e-02,5.79845e+04
2.97568e-02,5.47576e+04
3.06013e-02,5.17086e+04
3.14698e-02,4.88276e+04
3.23630e-02,4.61055e+04
3.32815e-02,4.35334e+04
3.42261e-02,4.11033e+04
3.51975e-02,3.88072e+04
3.61965e-02,3.66379e+04
3.72238e-02,3.45883e+04
3.82803e-02,3.26520e+04
3.93668e-02,3.08226e+04
4.04840e-02,2.90943e+04
4.16331e-02,2.74615e+04
4.28147e-02,2.59191e+04
4.40298e-02,2.44619e+04
4.52795e-02,2.30855e+04
4.65646e-02,2.17852e+04
4.78862e-02,2.05570e+04
4.92453e-02,1.93968e+04
5.06430e-02,1.83009e+04
5.20803e-02,1.72659e+04
5.35584e-02,1.62882e+04
5.50785e-02,1.53649e+04
5.66417e-02,1.44929e+04
5.82493e-02,1.36693e+04
5.99026e-02,1.28916e+04
6.16027e-02,1.21571e+04
6.33511e-02,1.14635e+04
6.51491e-02,1.08086e+04
6.69982e-02,1.01902e+04
6.88997e-02,9.60634e+03
7.08552e-02,9.05507e+03
7.28662e-02,8.53461e+03
7.49343e-02,8.04327e+03
7.70610e-02,7.57943e+03
7.92482e-02,7.14159e+03
8.14974e-02,6.72830e+03
8.38104e-02,6.33822e+03
8.61891e-02,5.97005e+03
8.86353e-02,5.62260e+03
9.11509e-02,5.29471e+03
9.37380e-02,4.98531e+03
9.63984e-02,4.69337e+03
9.91344e-02,4.41792e+03
1.01948e-01,4.15806e+03
1.04841e-01,3.91293e+03
1.07817e-01,3.68169e+03
1.10877e-01,3.46360e+03
1.14024e-01,3.25791e+03
1.17260e-01,3.06394e+03
1.20588e-01,2.88103e+03
1.24011e-01,2.70858e+03
1.27530e-01,2.54601e+03
1.31150e-01,2.39275e+03
1.34872e-01,2.24831e+03
1.38700e-01,2.11217e+03
1.42637e-01,1.98389e+03
1.46685e-01,1.86302e+03
1.50848e-01,1.74915e+03
1.55130e-01,1.64189e+03
1.59532e-01,1.54086e+03
1.64060e-01,1.44573e+03
1.68717e-01,1.35615e+03
1.73505e-01,1.27182e+03
1.78429e-01,1.19245e+03
1.83494e-01,1.11774e+03
1.88701e-01,1.04745e+03
1.94057e-01,9.81324e+02
1.99565e-01,9.19122e+02
2.05229e-01,8.60625e+02
2.11054e-01,8.05623e+02
2.17044e-01,7.53917e+02
2.23204e-01,7.05321e+02
2.29539e-01,6.59658e+02
2.36053e-01,6.16759e+02
2.42753e-01,5.76468e+02
2.49643e-01,5.38634e+02
2.56728e-01,5.03117e+02
2.64015e-01,4.69783e+02
2.71508e-01,4.38507e+02
2.79214e-01,4.09169e+02
2.87138e-01,3.81657e+02
2.95288e-01,3.55865e+02
3.03669e-01,3.31693e+02
3.12287e-01,3.09046e+02
3.21150e-01,2.87833e+02
3.30265e-01,2.67972e+02
3.39639e-01,2.49382e+02
3.49278e-01,2.31988e+02
3.59192e-01,2.15718e+02
3.69386e-01,2.00506e+02
3.79870e-01,1.86287e+02
3.90651e-01,1.73003e+02
4.01739e-01,1.60596e+02
4.13141e-01,1.49013e+02
4.24866e-01,1.38204e+02
4.36925e-01,1.28122e+02
4.49326e-01,1.18721e+02
4.62078e-01,1.09959e+02
4.75193e-01,1.01796e+02
4.88680e-01,9.41957e+01
5.02549e-01,8.71215e+01
5.16813e-01,8.05403e+01
5.31481e-01,7.44205e+01
5.46565e-01,6.87327e+01
5.62078e-01,6.34489e+01
5.78030e-01,5.85427e+01
5.94436e-01,5.39895e+01
6.11307e-01,4.97660e+01
6.28657e-01,4.58504e+01
6.46500e-01,4.22219e+01
6.64848e-01,3.88614e+01
6.83718e-01,3.57507e+01
7.03123e-01,3.28726e+01
7.23079e-01,3.02112e+01
7.43601e-01,2.77515e+01
7.64706e-01,2.54794e+01
7.86410e-01,2.33817e+01
8.08730e-01,2.14461e+01
8.31683e-01,1.96609e+01
8.55287e-01,1.80153e+01
8.79562e-01,1.64993e+01
9.04526e-01,1.51034e+01
9.30198e-01,1.38186e+01
9.56598e-01,1.26369e+01
9.83748e-01,1.15504e+01
1.01167e+00,1.05521e+01
1.04038e+00,9.63515e+00
1.06991e+00,8.79346e+00
1.10028e+00,8.02119e+00
1.13150e+00,7.31298e+00
1.16362e+00,6.66382e+00
1.19664e+00,6.06908e+00
1.23061e+00,5.52446e+00
1.26553e+00,5.02595e+00
1.30145e+00,4.56986e+00
1.33839e+00,4.15278e+00
1.37637e+00,3.77153e+00
1.41544e+00,3.42318e+00
1.45561e+00,3.10503e+00
1.49692e+00,2.81459e+00
1.53941e+00,2.54954e+00
1.58310e+00,2.30777e+00
1.62803e+00,2.08730e+00
1.67424e+00,1.88635e+00
1.72176e+00,1.70325e+00
1.77062e+00,1.53648e+00
1.82088e+00,1.38463e+00
1.87256e+00,1.24641e+00
1.92570e+00,1.12064e+00
1.98036e+00,1.00624e+00
2.03656e+00,9.02217e-01
2.09437e+00,8.07649e-01
2.15381e+00,7.21706e-01
2.21494e+00,6.43623e-01
2.27780e+00,5.72701e-01
2.34245e+00,5.08300e-01
2.40893e+00,4.49836e-01
2.47730e+00,3.96775e-01
2.54761e+00,3.48628e-01
2.61992e+00,3.04952e-01
2.69428e+00,2.65339e-01
2.77074e+00,2.29419e-01
2.84938e+00,1.96855e-01
2.93025e+00,1.67340e-01
3.01342e+00,1.40592e-01
3.09894e+00,1.16358e-01
3.18690e+00,9.44043e-02
3.27735e+00,7.45203e-02
3.37037e+00,5.65139e-02
3.46602e+00,4.02102e-02
3.56439e+00,2.54507e-02
3.66556e+00,1.20909e-02
3.76959e+00,0.00000e+00
