m1=654973.804, m2=21.439, gsp=2.111, rhosp=83.429
fGW[Hz],dPh[rad]
1.41761e-03,9.95839e+01
1.42873e-03,9.66069e+01
1.43994e-03,9.37183e+01
1.45124e-03,9.09153e+01
1.46263e-03,8.81956e+01
1.47410e-03,8.55565e+01
1.48567e-03,8.29959e+01
1.49732e-03,8.05113e+01
1.50907e-03,7.81005e+01
1.52091e-03,7.57614e+01
1.53284e-03,7.34918e+01
1.54487e-03,7.12896e+01
1.55699e-03,6.91529e+01
1.56920e-03,6.70798e+01
1.58151e-03,6.50683e+01
1.59392e-03,6.31167e+01
1.60642e-03,6.12231e+01
1.61903e-03,5.93859e+01
1.63173e-03,5.76034e+01
1.64453e-03,5.58739e+01
1.65743e-03,5.41960e+01
1.67044e-03,5.25680e+01
1.68354e-03,5.09885e+01
1.69675e-03,4.94561e+01
1.71006e-03,4.79694e+01
1.72348e-03,4.65269e+01
1.73700e-03,4.51275e+01
1.75062e-03,4.37698e+01
1.76436e-03,4.24525e+01
1.77820e-03,4.11746e+01
1.79215e-03,3.99348e+01
1.80621e-03,3.87319e+01
1.82038e-03,3.75650e+01
1.83466e-03,3.64329e+01
1.84906e-03,3.53345e+01
1.86356e-03,3.42690e+01
1.87818e-03,3.32353e+01
1.89292e-03,3.22324e+01
1.90777e-03,3.12595e+01
1.92274e-03,3.03157e+01
1.93782e-03,2.94001e+01
1.95302e-03,2.85118e+01
1.96835e-03,2.76500e+01
1.98379e-03,2.68141e+01
1.99935e-03,2.60031e+01
2.01504e-03,2.52163e+01
2.03085e-03,2.44531e+01
2.04678e-03,2.37127e+01
2.06284e-03,2.29945e+01
2.07902e-03,2.22977e+01
2.09533e-03,2.16218e+01
2.11177e-03,2.09661e+01
2.12834e-03,2.03300e+01
2.14504e-03,1.97129e+01
2.16186e-03,1.91143e+01
2.17882e-03,1.85337e+01
2.19592e-03,1.79704e+01
2.21315e-03,1.74240e+01
2.23051e-03,1.68940e+01
2.24801e-03,1.63798e+01
2.26564e-03,1.58810e+01
2.28342e-03,1.53972e+01
2.30133e-03,1.49278e+01
2.31939e-03,1.44726e+01
2.33758e-03,1.40309e+01
2.35592e-03,1.36025e+01
2.37441e-03,1.31870e+01
2.39303e-03,1.27839e+01
2.41181e-03,1.23928e+01
2.43073e-03,1.20135e+01
2.44980e-03,1.16456e+01
2.46902e-03,1.12887e+01
2.48839e-03,1.09425e+01
2.50791e-03,1.06067e+01
2.52759e-03,1.02810e+01
2.54742e-03,9.96502e+00
2.56740e-03,9.65854e+00
2.58755e-03,9.36125e+00
2.60785e-03,9.07288e+00
2.62831e-03,8.79316e+00
2.64893e-03,8.52184e+00
2.66971e-03,8.25866e+00
2.69065e-03,8.00338e+00
2.71176e-03,7.75577e+00
2.73304e-03,7.51559e+00
2.75448e-03,7.28262e+00
2.77609e-03,7.05664e+00
2.79787e-03,6.83745e+00
2.81982e-03,6.62484e+00
2.84194e-03,6.41862e+00
2.86424e-03,6.21859e+00
2.88671e-03,6.02457e+00
2.90935e-03,5.83638e+00
2.93218e-03,5.65384e+00
2.95518e-03,5.47679e+00
2.97837e-03,5.30505e+00
3.00173e-03,5.13848e+00
3.02528e-03,4.97691e+00
3.04902e-03,4.82020e+00
3.07294e-03,4.66820e+00
3.09705e-03,4.52076e+00
3.12134e-03,4.37776e+00
3.14583e-03,4.23906e+00
3.17051e-03,4.10452e+00
3.19539e-03,3.97403e+00
3.22045e-03,3.84747e+00
3.24572e-03,3.72471e+00
3.27118e-03,3.60564e+00
3.29685e-03,3.49015e+00
3.32271e-03,3.37814e+00
3.34878e-03,3.26949e+00
3.37505e-03,3.16411e+00
3.40153e-03,3.06190e+00
3.42822e-03,2.96277e+00
3.45511e-03,2.86662e+00
3.48222e-03,2.77336e+00
3.50954e-03,2.68291e+00
3.53707e-03,2.59517e+00
3.56482e-03,2.51008e+00
3.59279e-03,2.42755e+00
3.62098e-03,2.34750e+00
3.64938e-03,2.26986e+00
3.67802e-03,2.19456e+00
3.70687e-03,2.12153e+00
3.73595e-03,2.05069e+00
3.76526e-03,1.98198e+00
3.79480e-03,1.91535e+00
3.82457e-03,1.85071e+00
3.85458e-03,1.78803e+00
3.88482e-03,1.72723e+00
3.91530e-03,1.66826e+00
3.94601e-03,1.61107e+00
3.97697e-03,1.55560e+00
4.00817e-03,1.50180e+00
4.03962e-03,1.44962e+00
4.07131e-03,1.39901e+00
4.10325e-03,1.34993e+00
4.13544e-03,1.30232e+00
4.16789e-03,1.25615e+00
4.20059e-03,1.21137e+00
4.23354e-03,1.16793e+00
4.26675e-03,1.12581e+00
4.30023e-03,1.08495e+00
4.33396e-03,1.04533e+00
4.36797e-03,1.00690e+00
4.40223e-03,9.69623e-01
4.43677e-03,9.33473e-01
4.47158e-03,8.98411e-01
4.50666e-03,8.64406e-01
4.54202e-03,8.31426e-01
4.57765e-03,7.99439e-01
4.61356e-03,7.68416e-01
4.64976e-03,7.38328e-01
4.68624e-03,7.09147e-01
4.72300e-03,6.80845e-01
4.76006e-03,6.53396e-01
4.79740e-03,6.26774e-01
4.83504e-03,6.00954e-01
4.87297e-03,5.75913e-01
4.91120e-03,5.51627e-01
4.94973e-03,5.28072e-01
4.98856e-03,5.05228e-01
5.02770e-03,4.83072e-01
5.06715e-03,4.61584e-01
5.10690e-03,4.40744e-01
5.14696e-03,4.20532e-01
5.18734e-03,4.00929e-01
5.22804e-03,3.81918e-01
5.26906e-03,3.63479e-01
5.31039e-03,3.45597e-01
5.35206e-03,3.28253e-01
5.39405e-03,3.11433e-01
5.43636e-03,2.95119e-01
5.47901e-03,2.79298e-01
5.52200e-03,2.63954e-01
5.56532e-03,2.49072e-01
5.60898e-03,2.34639e-01
5.65299e-03,2.20642e-01
5.69734e-03,2.07066e-01
5.74203e-03,1.93900e-01
5.78708e-03,1.81131e-01
5.83248e-03,1.68747e-01
5.87824e-03,1.56737e-01
5.92436e-03,1.45089e-01
5.97084e-03,1.33792e-01
6.01768e-03,1.22836e-01
6.06489e-03,1.12210e-01
6.11247e-03,1.01905e-01
6.16043e-03,9.19104e-02
6.20876e-03,8.22176e-02
6.25747e-03,7.28171e-02
6.30656e-03,6.37002e-02
6.35604e-03,5.48583e-02
6.40590e-03,4.62832e-02
6.45616e-03,3.79668e-02
6.50681e-03,2.99012e-02
6.55786e-03,2.20790e-02
6.60931e-03,1.44927e-02
6.66116e-03,7.13538e-03
6.71342e-03,0.00000e+00
