m1=5380.855, m2=78.415, gsp=2.345, rhosp=1383.066
fGW[Hz],dPh[rad]
2.90057e-03,3.33546e+03
2.98408e-03,3.14188e+03
3.06999e-03,2.95952e+03
3.15837e-03,2.78774e+03
3.24930e-03,2.62591e+03
3.34284e-03,2.47347e+03
3.43908e-03,2.32986e+03
3.53809e-03,2.19458e+03
3.63995e-03,2.06715e+03
3.74474e-03,1.94710e+03
3.85255e-03,1.83402e+03
3.96346e-03,1.72749e+03
4.07757e-03,1.62714e+03
4.19496e-03,1.53262e+03
4.31573e-03,1.44357e+03
4.43997e-03,1.35969e+03
4.56780e-03,1.28067e+03
4.69930e-03,1.20623e+03
4.83459e-03,1.13612e+03
4.97378e-03,1.07007e+03
5.11697e-03,1.00785e+03
5.26428e-03,9.49242e+02
5.41584e-03,8.94034e+02
5.57176e-03,8.42028e+02
5.73216e-03,7.93041e+02
5.89719e-03,7.46896e+02
6.06697e-03,7.03428e+02
6.24163e-03,6.62483e+02
6.42132e-03,6.23915e+02
6.60619e-03,5.87584e+02
6.79638e-03,5.53363e+02
6.99204e-03,5.21128e+02
7.19334e-03,4.90765e+02
7.40043e-03,4.62164e+02
7.61348e-03,4.35224e+02
7.83267e-03,4.09848e+02
8.05817e-03,3.85946e+02
8.29016e-03,3.63432e+02
8.52882e-03,3.42226e+02
8.77436e-03,3.22251e+02
9.02697e-03,3.03438e+02
9.28685e-03,2.85717e+02
9.55422e-03,2.69026e+02
9.82928e-03,2.53305e+02
1.01123e-02,2.38498e+02
1.04034e-02,2.24551e+02
1.07029e-02,2.11416e+02
1.10110e-02,1.99044e+02
1.13280e-02,1.87392e+02
1.16541e-02,1.76417e+02
1.19897e-02,1.66081e+02
1.23348e-02,1.56346e+02
1.26899e-02,1.47178e+02
1.30553e-02,1.38544e+02
1.34311e-02,1.30412e+02
1.38178e-02,1.22754e+02
1.42156e-02,1.15541e+02
1.46249e-02,1.08749e+02
1.50459e-02,1.02353e+02
1.54791e-02,9.63292e+01
1.59247e-02,9.06568e+01
1.63832e-02,8.53151e+01
1.68548e-02,8.02850e+01
1.73401e-02,7.55483e+01
1.78393e-02,7.10881e+01
1.83529e-02,6.68883e+01
1.88812e-02,6.29337e+01
1.94248e-02,5.92101e+01
1.99840e-02,5.57041e+01
2.05594e-02,5.24030e+01
2.11513e-02,4.92950e+01
2.17602e-02,4.63687e+01
2.23867e-02,4.36138e+01
2.30312e-02,4.10201e+01
2.36942e-02,3.85783e+01
2.43763e-02,3.62797e+01
2.50781e-02,3.41157e+01
2.58001e-02,3.20788e+01
2.65429e-02,3.01613e+01
2.73070e-02,2.83564e+01
2.80932e-02,2.66576e+01
2.89020e-02,2.50586e+01
2.97340e-02,2.35537e+01
3.05901e-02,2.21373e+01
3.14707e-02,2.08044e+01
3.23768e-02,1.95500e+01
3.33089e-02,1.83696e+01
3.42678e-02,1.72588e+01
3.52543e-02,1.62136e+01
3.62693e-02,1.52302e+01
3.73135e-02,1.43050e+01
3.83877e-02,1.34346e+01
3.94929e-02,1.26157e+01
4.06298e-02,1.18454e+01
4.17995e-02,1.11209e+01
4.30029e-02,1.04394e+01
4.42410e-02,9.79841e+00
4.55146e-02,9.19562e+00
4.68250e-02,8.62877e+00
4.81730e-02,8.09575e+00
4.95599e-02,7.59458e+00
5.09867e-02,7.12340e+00
5.24546e-02,6.68044e+00
5.39647e-02,6.26406e+00
5.55183e-02,5.87270e+00
5.71166e-02,5.50488e+00
5.87610e-02,5.15922e+00
6.04527e-02,4.83442e+00
6.21931e-02,4.52925e+00
6.39836e-02,4.24256e+00
6.58256e-02,3.97326e+00
6.77207e-02,3.72032e+00
6.96704e-02,3.48278e+00
7.16761e-02,3.25972e+00
7.37396e-02,3.05030e+00
7.58625e-02,2.85371e+00
7.80466e-02,2.66917e+00
8.02935e-02,2.49599e+00
8.26051e-02,2.33349e+00
8.49832e-02,2.18103e+00
8.74299e-02,2.03801e+00
8.99469e-02,1.90388e+00
9.25364e-02,1.77810e+00
9.52005e-02,1.66017e+00
9.79413e-02,1.54963e+00
1.00761e-01,1.44603e+00
1.03662e-01,1.34896e+00
1.06646e-01,1.25802e+00
1.09716e-01,1.17284e+00
1.12875e-01,1.09308e+00
1.16125e-01,1.01841e+00
1.19468e-01,9.48523e-01
1.22907e-01,8.83126e-01
1.26446e-01,8.21947e-01
1.30086e-01,7.64730e-01
1.33831e-01,7.11231e-01
1.37684e-01,6.61224e-01
1.41648e-01,6.14495e-01
1.45726e-01,5.70840e-01
1.49921e-01,5.30071e-01
1.54237e-01,4.92008e-01
1.58678e-01,4.56484e-01
1.63246e-01,4.23340e-01
1.67946e-01,3.92428e-01
1.72781e-01,3.63607e-01
1.77755e-01,3.36745e-01
1.82872e-01,3.11719e-01
1.88137e-01,2.88412e-01
1.93553e-01,2.66714e-01
1.99126e-01,2.46523e-01
2.04858e-01,2.27741e-01
2.10756e-01,2.10277e-01
2.16824e-01,1.94046e-01
2.23066e-01,1.78967e-01
2.29488e-01,1.64965e-01
2.36095e-01,1.51969e-01
2.42892e-01,1.39912e-01
2.49884e-01,1.28731e-01
2.57078e-01,1.18368e-01
2.64480e-01,1.08767e-01
2.72094e-01,9.98772e-02
2.79927e-01,9.16495e-02
2.87986e-01,8.40386e-02
2.96277e-01,7.70018e-02
3.04807e-01,7.04992e-02
3.13582e-01,6.44934e-02
3.22610e-01,5.89492e-02
3.31897e-01,5.38340e-02
3.41453e-01,4.91171e-02
3.51283e-01,4.47697e-02
3.61396e-01,4.07651e-02
3.71800e-01,3.70783e-02
3.82504e-01,3.36858e-02
3.93516e-01,3.05660e-02
4.04845e-01,2.76983e-02
4.16501e-01,2.50639e-02
4.28491e-01,2.26451e-02
4.40827e-01,2.04255e-02
4.53519e-01,1.83897e-02
4.66575e-01,1.65235e-02
4.80007e-01,1.48138e-02
4.93827e-01,1.32481e-02
5.08044e-01,1.18152e-02
5.22670e-01,1.05044e-02
5.37717e-01,9.30592e-03
5.53198e-01,8.21075e-03
5.69124e-01,7.21046e-03
5.85509e-01,6.29728e-03
6.02365e-01,5.46402e-03
6.19707e-01,4.70407e-03
6.37548e-01,4.01129e-03
6.55902e-01,3.38004e-03
6.74785e-01,2.80512e-03
6.94212e-01,2.28174e-03
7.14198e-01,1.80548e-03
7.34759e-01,1.37228e-03
7.55912e-01,9.78424e-04
7.77675e-01,6.20477e-04
8.00063e-01,2.95297e-04
8.23097e-01,0.00000e+00
