m1=33431.555, m2=48.276, gsp=2.464, rhosp=253.001
fGW[Hz],dPh[rad]
2.20014e-03,1.18710e+05
2.24584e-03,1.13603e+05
2.29249e-03,1.08709e+05
2.34011e-03,1.04020e+05
2.38872e-03,9.95264e+04
2.43834e-03,9.52209e+04
2.48899e-03,9.10957e+04
2.54070e-03,8.71433e+04
2.59347e-03,8.33567e+04
2.64735e-03,7.97290e+04
2.70234e-03,7.62536e+04
2.75847e-03,7.29244e+04
2.81577e-03,6.97353e+04
2.87426e-03,6.66805e+04
2.93397e-03,6.37545e+04
2.99491e-03,6.09520e+04
3.05713e-03,5.82679e+04
3.12063e-03,5.56973e+04
3.18545e-03,5.32355e+04
3.25162e-03,5.08781e+04
3.31917e-03,4.86208e+04
3.38812e-03,4.64593e+04
3.45850e-03,4.43898e+04
3.53034e-03,4.24084e+04
3.60367e-03,4.05115e+04
3.67853e-03,3.86956e+04
3.75494e-03,3.69574e+04
3.83294e-03,3.52935e+04
3.91256e-03,3.37011e+04
3.99384e-03,3.21770e+04
4.07680e-03,3.07184e+04
4.16148e-03,2.93227e+04
4.24793e-03,2.79872e+04
4.33617e-03,2.67093e+04
4.42624e-03,2.54868e+04
4.51819e-03,2.43173e+04
4.61204e-03,2.31986e+04
4.70784e-03,2.21286e+04
4.80564e-03,2.11052e+04
4.90546e-03,2.01265e+04
5.00736e-03,1.91906e+04
5.11138e-03,1.82957e+04
5.21755e-03,1.74402e+04
5.32594e-03,1.66223e+04
5.43657e-03,1.58405e+04
5.54950e-03,1.50933e+04
5.66478e-03,1.43791e+04
5.78245e-03,1.36967e+04
5.90257e-03,1.30447e+04
6.02518e-03,1.24218e+04
6.15034e-03,1.18267e+04
6.27809e-03,1.12583e+04
6.40851e-03,1.07154e+04
6.54163e-03,1.01971e+04
6.67751e-03,9.70212e+03
6.81622e-03,9.22960e+03
6.95781e-03,8.77855e+03
7.10234e-03,8.34805e+03
7.24988e-03,7.93723e+03
7.40048e-03,7.54524e+03
7.55420e-03,7.17128e+03
7.71112e-03,6.81455e+03
7.87130e-03,6.47433e+03
8.03481e-03,6.14990e+03
8.20171e-03,5.84058e+03
8.37208e-03,5.54570e+03
8.54599e-03,5.26465e+03
8.72352e-03,4.99681e+03
8.90473e-03,4.74162e+03
9.08970e-03,4.49851e+03
9.27852e-03,4.26695e+03
9.47125e-03,4.04645e+03
9.66800e-03,3.83650e+03
9.86883e-03,3.63665e+03
1.00738e-02,3.44644e+03
1.02831e-02,3.26544e+03
1.04967e-02,3.09324e+03
1.07147e-02,2.92946e+03
1.09373e-02,2.77370e+03
1.11645e-02,2.62561e+03
1.13964e-02,2.48484e+03
1.16332e-02,2.35105e+03
1.18748e-02,2.22394e+03
1.21215e-02,2.10319e+03
1.23733e-02,1.98851e+03
1.26303e-02,1.87963e+03
1.28927e-02,1.77626e+03
1.31605e-02,1.67817e+03
1.34338e-02,1.58509e+03
1.37129e-02,1.49680e+03
1.39977e-02,1.41307e+03
1.42885e-02,1.33369e+03
1.45853e-02,1.25844e+03
1.48883e-02,1.18714e+03
1.51976e-02,1.11959e+03
1.55133e-02,1.05561e+03
1.58355e-02,9.95027e+02
1.61645e-02,9.37680e+02
1.65002e-02,8.83408e+02
1.68430e-02,8.32061e+02
1.71929e-02,7.83494e+02
1.75500e-02,7.37569e+02
1.79146e-02,6.94155e+02
1.82867e-02,6.53127e+02
1.86665e-02,6.14363e+02
1.90543e-02,5.77749e+02
1.94501e-02,5.43175e+02
1.98541e-02,5.10538e+02
2.02666e-02,4.79737e+02
2.06875e-02,4.50678e+02
2.11173e-02,4.23269e+02
2.15559e-02,3.97425e+02
2.20037e-02,3.73062e+02
2.24608e-02,3.50104e+02
2.29273e-02,3.28474e+02
2.34036e-02,3.08103e+02
2.38898e-02,2.88921e+02
2.43860e-02,2.70866e+02
2.48926e-02,2.53874e+02
2.54097e-02,2.37890e+02
2.59375e-02,2.22856e+02
2.64763e-02,2.08720e+02
2.70262e-02,1.95433e+02
2.75876e-02,1.82946e+02
2.81607e-02,1.71216e+02
2.87457e-02,1.60199e+02
2.93428e-02,1.49854e+02
2.99523e-02,1.40143e+02
3.05745e-02,1.31030e+02
3.12096e-02,1.22481e+02
3.18579e-02,1.14462e+02
3.25197e-02,1.06942e+02
3.31952e-02,9.98924e+01
3.38848e-02,9.32855e+01
3.45886e-02,8.70948e+01
3.53071e-02,8.12957e+01
3.60406e-02,7.58646e+01
3.67892e-02,7.07794e+01
3.75534e-02,6.60193e+01
3.83335e-02,6.15645e+01
3.91298e-02,5.73964e+01
3.99426e-02,5.34975e+01
4.07723e-02,4.98511e+01
4.16193e-02,4.64417e+01
4.24838e-02,4.32546e+01
4.33663e-02,4.02759e+01
4.42671e-02,3.74926e+01
4.51867e-02,3.48923e+01
4.61253e-02,3.24636e+01
4.70834e-02,3.01956e+01
4.80615e-02,2.80781e+01
4.90598e-02,2.61014e+01
5.00789e-02,2.42566e+01
5.11192e-02,2.25351e+01
5.21811e-02,2.09290e+01
5.32650e-02,1.94309e+01
5.43715e-02,1.80337e+01
5.55009e-02,1.67308e+01
5.66538e-02,1.55161e+01
5.78306e-02,1.43838e+01
5.90319e-02,1.33285e+01
6.02582e-02,1.23450e+01
6.15099e-02,1.14287e+01
6.27876e-02,1.05751e+01
6.40919e-02,9.77992e+00
6.54232e-02,9.03939e+00
6.67822e-02,8.34979e+00
6.81695e-02,7.70773e+00
6.95855e-02,7.10999e+00
7.10310e-02,6.55359e+00
7.25065e-02,6.03573e+00
7.40126e-02,5.55381e+00
7.55501e-02,5.10538e+00
7.71194e-02,4.68816e+00
7.87214e-02,4.30002e+00
8.03566e-02,3.93898e+00
8.20259e-02,3.60318e+00
8.37297e-02,3.29089e+00
8.54690e-02,3.00049e+00
8.72444e-02,2.73047e+00
8.90567e-02,2.47943e+00
9.09067e-02,2.24605e+00
9.27950e-02,2.02911e+00
9.47226e-02,1.82747e+00
9.66902e-02,1.64007e+00
9.86987e-02,1.46592e+00
1.00749e-01,1.30408e+00
1.02842e-01,1.15371e+00
1.04978e-01,1.01400e+00
1.07159e-01,8.84208e-01
1.09385e-01,7.63633e-01
1.11657e-01,6.51631e-01
1.13976e-01,5.47599e-01
1.16344e-01,4.50976e-01
1.18761e-01,3.61240e-01
1.21228e-01,2.77906e-01
1.23746e-01,2.00521e-01
1.26316e-01,1.28664e-01
1.28940e-01,6.19454e-02
1.31619e-01,0.00000e+00
