m1=1268.578, m2=58.516, gsp=2.469, rhosp=22.483
fGW[Hz],dPh[rad]
4.66338e-03,5.58377e+03
4.82145e-03,5.21997e+03
4.98488e-03,4.87988e+03
5.15385e-03,4.56193e+03
5.32855e-03,4.26470e+03
5.50917e-03,3.98684e+03
5.69591e-03,3.72707e+03
5.88898e-03,3.48423e+03
6.08859e-03,3.25720e+03
6.29498e-03,3.04497e+03
6.50835e-03,2.84656e+03
6.72896e-03,2.66108e+03
6.95705e-03,2.48768e+03
7.19287e-03,2.32557e+03
7.43668e-03,2.17403e+03
7.68876e-03,2.03236e+03
7.94938e-03,1.89992e+03
8.21884e-03,1.77610e+03
8.49743e-03,1.66035e+03
8.78546e-03,1.55215e+03
9.08326e-03,1.45099e+03
9.39115e-03,1.35642e+03
9.70948e-03,1.26802e+03
1.00386e-02,1.18537e+03
1.03789e-02,1.10811e+03
1.07307e-02,1.03588e+03
1.10944e-02,9.68357e+02
1.14705e-02,9.05234e+02
1.18593e-02,8.46223e+02
1.22613e-02,7.91057e+02
1.26769e-02,7.39485e+02
1.31066e-02,6.91273e+02
1.35508e-02,6.46203e+02
1.40102e-02,6.04069e+02
1.44851e-02,5.64681e+02
1.49761e-02,5.27859e+02
1.54837e-02,4.93436e+02
1.60085e-02,4.61256e+02
1.65512e-02,4.31173e+02
1.71122e-02,4.03051e+02
1.76922e-02,3.76761e+02
1.82920e-02,3.52184e+02
1.89120e-02,3.29209e+02
1.95530e-02,3.07731e+02
2.02158e-02,2.87653e+02
2.09011e-02,2.68883e+02
2.16095e-02,2.51336e+02
2.23420e-02,2.34934e+02
2.30993e-02,2.19600e+02
2.38823e-02,2.05265e+02
2.46918e-02,1.91865e+02
2.55288e-02,1.79339e+02
2.63942e-02,1.67628e+02
2.72888e-02,1.56682e+02
2.82138e-02,1.46449e+02
2.91702e-02,1.36883e+02
3.01589e-02,1.27940e+02
3.11812e-02,1.19581e+02
3.22381e-02,1.11767e+02
3.33309e-02,1.04462e+02
3.44607e-02,9.76333e+01
3.56288e-02,9.12501e+01
3.68365e-02,8.52832e+01
3.80851e-02,7.97054e+01
3.93761e-02,7.44915e+01
4.07108e-02,6.96176e+01
4.20907e-02,6.50616e+01
4.35175e-02,6.08029e+01
4.49926e-02,5.68220e+01
4.65177e-02,5.31009e+01
4.80944e-02,4.96225e+01
4.97247e-02,4.63711e+01
5.14102e-02,4.33320e+01
5.31528e-02,4.04912e+01
5.49545e-02,3.78358e+01
5.68172e-02,3.53538e+01
5.87431e-02,3.30339e+01
6.07343e-02,3.08654e+01
6.27930e-02,2.88385e+01
6.49215e-02,2.69441e+01
6.71221e-02,2.51734e+01
6.93973e-02,2.35183e+01
7.17496e-02,2.19715e+01
7.41817e-02,2.05257e+01
7.66962e-02,1.91744e+01
7.92959e-02,1.79115e+01
8.19838e-02,1.67311e+01
8.47627e-02,1.56280e+01
8.76359e-02,1.45970e+01
9.06064e-02,1.36335e+01
9.36777e-02,1.27330e+01
9.68530e-02,1.18915e+01
1.00136e-01,1.11050e+01
1.03530e-01,1.03701e+01
1.07040e-01,9.68333e+00
1.10668e-01,9.04156e+00
1.14419e-01,8.44186e+00
1.18297e-01,7.88148e+00
1.22307e-01,7.35786e+00
1.26453e-01,6.86859e+00
1.30739e-01,6.41145e+00
1.35171e-01,5.98432e+00
1.39753e-01,5.58525e+00
1.44490e-01,5.21241e+00
1.49388e-01,4.86408e+00
1.54451e-01,4.53867e+00
1.59687e-01,4.23467e+00
1.65100e-01,3.95069e+00
1.70696e-01,3.68542e+00
1.76482e-01,3.43764e+00
1.82464e-01,3.20620e+00
1.88649e-01,2.99003e+00
1.95043e-01,2.78815e+00
2.01655e-01,2.59960e+00
2.08490e-01,2.42353e+00
2.15557e-01,2.25911e+00
2.22864e-01,2.10558e+00
2.30418e-01,1.96223e+00
2.38229e-01,1.82839e+00
2.46304e-01,1.70344e+00
2.54653e-01,1.58679e+00
2.63284e-01,1.47791e+00
2.72209e-01,1.37628e+00
2.81436e-01,1.28143e+00
2.90975e-01,1.19291e+00
3.00838e-01,1.11031e+00
3.11036e-01,1.03324e+00
3.21579e-01,9.61331e-01
3.32479e-01,8.94248e-01
3.43749e-01,8.31674e-01
3.55401e-01,7.73312e-01
3.67448e-01,7.18885e-01
3.79903e-01,6.68132e-01
3.92780e-01,6.20813e-01
4.06094e-01,5.76700e-01
4.19859e-01,5.35583e-01
4.34091e-01,4.97262e-01
4.48805e-01,4.61554e-01
4.64018e-01,4.28286e-01
4.79747e-01,3.97295e-01
4.96009e-01,3.68431e-01
5.12822e-01,3.41553e-01
5.30204e-01,3.16528e-01
5.48176e-01,2.93235e-01
5.66758e-01,2.71556e-01
5.85969e-01,2.51386e-01
6.05831e-01,2.32622e-01
6.26367e-01,2.15171e-01
6.47598e-01,1.98946e-01
6.69550e-01,1.83863e-01
6.92245e-01,1.69847e-01
7.15710e-01,1.56825e-01
7.39970e-01,1.44730e-01
7.65052e-01,1.33500e-01
7.90985e-01,1.23076e-01
8.17796e-01,1.13403e-01
8.45517e-01,1.04431e-01
8.74177e-01,9.61113e-02
9.03808e-01,8.83995e-02
9.34444e-01,8.12538e-02
9.66119e-01,7.46353e-02
9.98867e-01,6.85077e-02
1.03272e+00,6.28369e-02
1.06773e+00,5.75911e-02
1.10392e+00,5.27408e-02
1.14134e+00,4.82582e-02
1.18003e+00,4.41173e-02
1.22003e+00,4.02942e-02
1.26138e+00,3.67661e-02
1.30414e+00,3.35121e-02
1.34835e+00,3.05125e-02
1.39405e+00,2.77490e-02
1.44130e+00,2.52044e-02
1.49016e+00,2.28628e-02
1.54067e+00,2.07093e-02
1.59289e+00,1.87301e-02
1.64689e+00,1.69120e-02
1.70271e+00,1.52432e-02
1.76043e+00,1.37124e-02
1.82010e+00,1.23091e-02
1.88179e+00,1.10235e-02
1.94558e+00,9.84668e-03
2.01153e+00,8.77009e-03
2.07971e+00,7.78593e-03
2.15021e+00,6.88690e-03
2.22309e+00,6.06626e-03
2.29844e+00,5.31770e-03
2.37635e+00,4.63541e-03
2.45690e+00,4.01398e-03
2.54018e+00,3.44841e-03
2.62629e+00,2.93406e-03
2.71531e+00,2.46665e-03
2.80735e+00,2.04220e-03
2.90251e+00,1.65707e-03
3.00089e+00,1.30787e-03
3.10261e+00,9.91489e-04
3.20778e+00,7.05048e-04
3.31651e+00,4.45908e-04
3.42893e+00,2.11636e-04
3.54516e+00,0.00000e+00
