m1=992510.063, m2=3.025, gsp=2.051, rhosp=3565.726
fGW[Hz],dPh[rad]
2.66302e-03,2.81665e+01
2.66984e-03,2.78388e+01
2.67668e-03,2.75144e+01
2.68354e-03,2.71933e+01
2.69041e-03,2.68754e+01
2.69730e-03,2.65607e+01
2.70421e-03,2.62492e+01
2.71113e-03,2.59408e+01
2.71808e-03,2.56356e+01
2.72504e-03,2.53334e+01
2.73201e-03,2.50343e+01
2.73901e-03,2.47382e+01
2.74603e-03,2.44451e+01
2.75306e-03,2.41549e+01
2.76011e-03,2.38676e+01
2.76718e-03,2.35833e+01
2.77426e-03,2.33018e+01
2.78137e-03,2.30232e+01
2.78849e-03,2.27474e+01
2.79563e-03,2.24743e+01
2.80279e-03,2.22040e+01
2.80997e-03,2.19365e+01
2.81717e-03,2.16716e+01
2.82438e-03,2.14094e+01
2.83162e-03,2.11499e+01
2.83887e-03,2.08929e+01
2.84614e-03,2.06386e+01
2.85343e-03,2.03868e+01
2.86074e-03,2.01376e+01
2.86806e-03,1.98909e+01
2.87541e-03,1.96466e+01
2.88277e-03,1.94049e+01
2.89015e-03,1.91655e+01
2.89756e-03,1.89286e+01
2.90498e-03,1.86941e+01
2.91242e-03,1.84619e+01
2.91987e-03,1.82321e+01
2.92735e-03,1.80046e+01
2.93485e-03,1.77794e+01
2.94237e-03,1.75565e+01
2.94990e-03,1.73358e+01
2.95746e-03,1.71173e+01
2.96503e-03,1.69011e+01
2.97262e-03,1.66870e+01
2.98024e-03,1.64751e+01
2.98787e-03,1.62653e+01
2.99552e-03,1.60577e+01
3.00319e-03,1.58521e+01
3.01088e-03,1.56486e+01
3.01859e-03,1.54472e+01
3.02632e-03,1.52478e+01
3.03408e-03,1.50504e+01
3.04185e-03,1.48550e+01
3.04964e-03,1.46615e+01
3.05745e-03,1.44701e+01
3.06528e-03,1.42805e+01
3.07313e-03,1.40929e+01
3.08100e-03,1.39071e+01
3.08889e-03,1.37233e+01
3.09680e-03,1.35412e+01
3.10473e-03,1.33611e+01
3.11268e-03,1.31827e+01
3.12065e-03,1.30061e+01
3.12864e-03,1.28313e+01
3.13666e-03,1.26583e+01
3.14469e-03,1.24871e+01
3.15274e-03,1.23175e+01
3.16082e-03,1.21497e+01
3.16891e-03,1.19835e+01
3.17703e-03,1.18191e+01
3.18516e-03,1.16563e+01
3.19332e-03,1.14951e+01
3.20150e-03,1.13355e+01
3.20970e-03,1.11776e+01
3.21792e-03,1.10213e+01
3.22616e-03,1.08665e+01
3.23442e-03,1.07133e+01
3.24270e-03,1.05617e+01
3.25101e-03,1.04115e+01
3.25934e-03,1.02629e+01
3.26768e-03,1.01158e+01
3.27605e-03,9.97020e+00
3.28444e-03,9.82605e+00
3.29285e-03,9.68334e+00
3.30129e-03,9.54208e+00
3.30974e-03,9.40224e+00
3.31822e-03,9.26382e+00
3.32671e-03,9.12679e+00
3.33523e-03,8.99114e+00
3.34378e-03,8.85686e+00
3.35234e-03,8.72393e+00
3.36092e-03,8.59235e+00
3.36953e-03,8.46209e+00
3.37816e-03,8.33315e+00
3.38681e-03,8.20551e+00
3.39549e-03,8.07915e+00
3.40418e-03,7.95407e+00
3.41290e-03,7.83026e+00
3.42164e-03,7.70769e+00
3.43040e-03,7.58636e+00
3.43919e-03,7.46625e+00
3.44800e-03,7.34735e+00
3.45683e-03,7.22966e+00
3.46568e-03,7.11315e+00
3.47456e-03,6.99781e+00
3.48345e-03,6.88364e+00
3.49238e-03,6.77062e+00
3.50132e-03,6.65874e+00
3.51029e-03,6.54800e+00
3.51928e-03,6.43836e+00
3.52829e-03,6.32984e+00
3.53733e-03,6.22240e+00
3.54638e-03,6.11606e+00
3.55547e-03,6.01078e+00
3.56457e-03,5.90657e+00
3.57370e-03,5.80341e+00
3.58285e-03,5.70129e+00
3.59203e-03,5.60020e+00
3.60123e-03,5.50013e+00
3.61045e-03,5.40106e+00
3.61970e-03,5.30300e+00
3.62897e-03,5.20593e+00
3.63826e-03,5.10984e+00
3.64758e-03,5.01471e+00
3.65692e-03,4.92055e+00
3.66629e-03,4.82734e+00
3.67568e-03,4.73506e+00
3.68509e-03,4.64372e+00
3.69453e-03,4.55330e+00
3.70399e-03,4.46379e+00
3.71347e-03,4.37518e+00
3.72298e-03,4.28747e+00
3.73252e-03,4.20065e+00
3.74208e-03,4.11469e+00
3.75166e-03,4.02961e+00
3.76127e-03,3.94539e+00
3.77090e-03,3.86201e+00
3.78056e-03,3.77948e+00
3.79024e-03,3.69777e+00
3.79995e-03,3.61690e+00
3.80968e-03,3.53683e+00
3.81944e-03,3.45758e+00
3.82922e-03,3.37913e+00
3.83902e-03,3.30146e+00
3.84886e-03,3.22458e+00
3.85871e-03,3.14848e+00
3.86860e-03,3.07315e+00
3.87850e-03,2.99857e+00
3.88844e-03,2.92475e+00
3.89839e-03,2.85167e+00
3.90838e-03,2.77933e+00
3.91839e-03,2.70771e+00
3.92842e-03,2.63683e+00
3.93848e-03,2.56665e+00
3.94857e-03,2.49719e+00
3.95868e-03,2.42842e+00
3.96882e-03,2.36035e+00
3.97898e-03,2.29297e+00
3.98918e-03,2.22626e+00
3.99939e-03,2.16023e+00
4.00963e-03,2.09487e+00
4.01990e-03,2.03016e+00
4.03020e-03,1.96611e+00
4.04052e-03,1.90270e+00
4.05087e-03,1.83993e+00
4.06124e-03,1.77780e+00
4.07164e-03,1.71629e+00
4.08207e-03,1.65541e+00
4.09252e-03,1.59513e+00
4.10300e-03,1.53547e+00
4.11351e-03,1.47641e+00
4.12405e-03,1.41794e+00
4.13461e-03,1.36007e+00
4.14520e-03,1.30277e+00
4.15581e-03,1.24606e+00
4.16646e-03,1.18992e+00
4.17713e-03,1.13434e+00
4.18782e-03,1.07933e+00
4.19855e-03,1.02487e+00
4.20930e-03,9.70959e-01
4.22008e-03,9.17592e-01
4.23089e-03,8.64764e-01
4.24173e-03,8.12470e-01
4.25259e-03,7.60702e-01
4.26348e-03,7.09457e-01
4.27440e-03,6.58729e-01
4.28535e-03,6.08513e-01
4.29632e-03,5.58804e-01
4.30732e-03,5.09596e-01
4.31835e-03,4.60885e-01
4.32941e-03,4.12665e-01
4.34050e-03,3.64931e-01
4.35162e-03,3.17680e-01
4.36276e-03,2.70904e-01
4.37393e-03,2.24601e-01
4.38514e-03,1.78765e-01
4.39637e-03,1.33392e-01
4.40763e-03,8.84763e-02
4.41891e-03,4.40139e-02
4.43023e-03,0.00000e+00
