m1=9094.322, m2=49.686, gsp=2.231, rhosp=173.342
fGW[Hz],dPh[rad]
3.01527e-03,7.08660e+02
3.09324e-03,6.70076e+02
3.17322e-03,6.33584e+02
3.25527e-03,5.99072e+02
3.33944e-03,5.66433e+02
3.42578e-03,5.35564e+02
3.51436e-03,5.06371e+02
3.60523e-03,4.78761e+02
3.69845e-03,4.52651e+02
3.79408e-03,4.27958e+02
3.89218e-03,4.04605e+02
3.99282e-03,3.82520e+02
4.09606e-03,3.61634e+02
4.20197e-03,3.41883e+02
4.31062e-03,3.23204e+02
4.42208e-03,3.05541e+02
4.53642e-03,2.88836e+02
4.65372e-03,2.73040e+02
4.77405e-03,2.58102e+02
4.89749e-03,2.43976e+02
5.02412e-03,2.30617e+02
5.15403e-03,2.17986e+02
5.28729e-03,2.06041e+02
5.42400e-03,1.94745e+02
5.56425e-03,1.84065e+02
5.70812e-03,1.73965e+02
5.85571e-03,1.64415e+02
6.00712e-03,1.55385e+02
6.16245e-03,1.46847e+02
6.32179e-03,1.38773e+02
6.48525e-03,1.31140e+02
6.65293e-03,1.23922e+02
6.82496e-03,1.17098e+02
7.00143e-03,1.10646e+02
7.18246e-03,1.04545e+02
7.36817e-03,9.87775e+01
7.55869e-03,9.33245e+01
7.75413e-03,8.81691e+01
7.95463e-03,8.32952e+01
8.16031e-03,7.86874e+01
8.37131e-03,7.43313e+01
8.58776e-03,7.02133e+01
8.80981e-03,6.63205e+01
9.03760e-03,6.26405e+01
9.27128e-03,5.91619e+01
9.51101e-03,5.58736e+01
9.75693e-03,5.27655e+01
1.00092e-02,4.98275e+01
1.02680e-02,4.70506e+01
1.05335e-02,4.44260e+01
1.08059e-02,4.19453e+01
1.10853e-02,3.96008e+01
1.13719e-02,3.73850e+01
1.16659e-02,3.52910e+01
1.19676e-02,3.33121e+01
1.22770e-02,3.14420e+01
1.25945e-02,2.96748e+01
1.29201e-02,2.80050e+01
1.32542e-02,2.64272e+01
1.35969e-02,2.49363e+01
1.39485e-02,2.35278e+01
1.43091e-02,2.21970e+01
1.46791e-02,2.09398e+01
1.50587e-02,1.97521e+01
1.54480e-02,1.86301e+01
1.58475e-02,1.75703e+01
1.62572e-02,1.65692e+01
1.66776e-02,1.56236e+01
1.71088e-02,1.47306e+01
1.75512e-02,1.38872e+01
1.80050e-02,1.30908e+01
1.84706e-02,1.23387e+01
1.89481e-02,1.16285e+01
1.94381e-02,1.09580e+01
1.99407e-02,1.03249e+01
2.04563e-02,9.72727e+00
2.09852e-02,9.16309e+00
2.15278e-02,8.63054e+00
2.20845e-02,8.12789e+00
2.26555e-02,7.65350e+00
2.32413e-02,7.20582e+00
2.38422e-02,6.78337e+00
2.44587e-02,6.38476e+00
2.50911e-02,6.00870e+00
2.57399e-02,5.65392e+00
2.64054e-02,5.31927e+00
2.70882e-02,5.00363e+00
2.77886e-02,4.70594e+00
2.85071e-02,4.42522e+00
2.92442e-02,4.16054e+00
3.00004e-02,3.91099e+00
3.07761e-02,3.67575e+00
3.15718e-02,3.45402e+00
3.23882e-02,3.24504e+00
3.32256e-02,3.04812e+00
3.40847e-02,2.86258e+00
3.49661e-02,2.68778e+00
3.58702e-02,2.52313e+00
3.67976e-02,2.36806e+00
3.77491e-02,2.22204e+00
3.87252e-02,2.08456e+00
3.97265e-02,1.95513e+00
4.07537e-02,1.83331e+00
4.18074e-02,1.71868e+00
4.28884e-02,1.61081e+00
4.39974e-02,1.50934e+00
4.51350e-02,1.41391e+00
4.63020e-02,1.32416e+00
4.74992e-02,1.23978e+00
4.87274e-02,1.16047e+00
4.99873e-02,1.08593e+00
5.12798e-02,1.01589e+00
5.26058e-02,9.50094e-01
5.39660e-02,8.88302e-01
5.53613e-02,8.30282e-01
5.67928e-02,7.75816e-01
5.82613e-02,7.24700e-01
5.97677e-02,6.76739e-01
6.13131e-02,6.31750e-01
6.28985e-02,5.89561e-01
6.45248e-02,5.50007e-01
6.61932e-02,5.12935e-01
6.79047e-02,4.78199e-01
6.96605e-02,4.45661e-01
7.14617e-02,4.15191e-01
7.33095e-02,3.86667e-01
7.52050e-02,3.59972e-01
7.71495e-02,3.34997e-01
7.91444e-02,3.11639e-01
8.11908e-02,2.89801e-01
8.32901e-02,2.69390e-01
8.54437e-02,2.50320e-01
8.76530e-02,2.32510e-01
8.99194e-02,2.15881e-01
9.22444e-02,2.00361e-01
9.46295e-02,1.85882e-01
9.70763e-02,1.72378e-01
9.95864e-02,1.59790e-01
1.02161e-01,1.48059e-01
1.04803e-01,1.37131e-01
1.07513e-01,1.26956e-01
1.10293e-01,1.17485e-01
1.13144e-01,1.08673e-01
1.16070e-01,1.00478e-01
1.19071e-01,9.28592e-02
1.22150e-01,8.57799e-02
1.25308e-01,7.92043e-02
1.28548e-01,7.30991e-02
1.31872e-01,6.74332e-02
1.35282e-01,6.21773e-02
1.38780e-01,5.73036e-02
1.42368e-01,5.27865e-02
1.46049e-01,4.86016e-02
1.49826e-01,4.47262e-02
1.53700e-01,4.11390e-02
1.57674e-01,3.78200e-02
1.61751e-01,3.47505e-02
1.65933e-01,3.19130e-02
1.70224e-01,2.92911e-02
1.74625e-01,2.68694e-02
1.79140e-01,2.46336e-02
1.83772e-01,2.25704e-02
1.88524e-01,2.06673e-02
1.93399e-01,1.89125e-02
1.98399e-01,1.72952e-02
2.03529e-01,1.58052e-02
2.08792e-01,1.44332e-02
2.14190e-01,1.31702e-02
2.19729e-01,1.20080e-02
2.25410e-01,1.09392e-02
2.31238e-01,9.95646e-03
2.37217e-01,9.05331e-03
2.43351e-01,8.22360e-03
2.49643e-01,7.46166e-03
2.56098e-01,6.76220e-03
2.62720e-01,6.12034e-03
2.69513e-01,5.53155e-03
2.76482e-01,4.99164e-03
2.83631e-01,4.49672e-03
2.90965e-01,4.04319e-03
2.98488e-01,3.62774e-03
3.06206e-01,3.24729e-03
3.14123e-01,2.89900e-03
3.22245e-01,2.58026e-03
3.30578e-01,2.28865e-03
3.39125e-01,2.02194e-03
3.47894e-01,1.77807e-03
3.56889e-01,1.55516e-03
3.66117e-01,1.35146e-03
3.75584e-01,1.16536e-03
3.85295e-01,9.95387e-04
3.95257e-01,8.40187e-04
4.05477e-01,6.98510e-04
4.15962e-01,5.69208e-04
4.26717e-01,4.51229e-04
4.37751e-01,3.43606e-04
4.49069e-01,2.45452e-04
4.60681e-01,1.55953e-04
4.72592e-01,7.43639e-05
4.84812e-01,0.00000e+00
