m1=49227.997, m2=22.902, gsp=2.029, rhosp=33.171
fGW[Hz],dPh[rad]
2.64140e-03,7.21019e+01
2.68855e-03,6.87903e+01
2.73654e-03,6.56234e+01
2.78540e-03,6.25949e+01
2.83512e-03,5.96992e+01
2.88573e-03,5.69307e+01
2.93725e-03,5.42839e+01
2.98968e-03,5.17539e+01
3.04305e-03,4.93356e+01
3.09738e-03,4.70243e+01
3.15267e-03,4.48157e+01
3.20895e-03,4.27052e+01
3.26624e-03,4.06887e+01
3.32454e-03,3.87623e+01
3.38389e-03,3.69221e+01
3.44430e-03,3.51645e+01
3.50579e-03,3.34859e+01
3.56837e-03,3.18829e+01
3.63207e-03,3.03524e+01
3.69691e-03,2.88912e+01
3.76291e-03,2.74964e+01
3.83008e-03,2.61650e+01
3.89846e-03,2.48944e+01
3.96805e-03,2.36820e+01
4.03889e-03,2.25252e+01
4.11099e-03,2.14216e+01
4.18438e-03,2.03689e+01
4.25907e-03,1.93649e+01
4.33511e-03,1.84075e+01
4.41249e-03,1.74946e+01
4.49126e-03,1.66243e+01
4.57144e-03,1.57947e+01
4.65305e-03,1.50040e+01
4.73611e-03,1.42506e+01
4.82066e-03,1.35327e+01
4.90672e-03,1.28488e+01
4.99431e-03,1.21974e+01
5.08347e-03,1.15771e+01
5.17422e-03,1.09864e+01
5.26659e-03,1.04240e+01
5.36060e-03,9.88865e+00
5.45630e-03,9.37915e+00
5.55370e-03,8.89432e+00
5.65285e-03,8.43304e+00
5.75376e-03,7.99425e+00
5.85647e-03,7.57692e+00
5.96102e-03,7.18006e+00
6.06744e-03,6.80274e+00
6.17575e-03,6.44407e+00
6.28600e-03,6.10318e+00
6.39821e-03,5.77925e+00
6.51243e-03,5.47150e+00
6.62869e-03,5.17916e+00
6.74702e-03,4.90152e+00
6.86747e-03,4.63790e+00
6.99006e-03,4.38762e+00
7.11485e-03,4.15007e+00
7.24186e-03,3.92463e+00
7.37114e-03,3.71073e+00
7.50273e-03,3.50783e+00
7.63666e-03,3.31539e+00
7.77299e-03,3.13291e+00
7.91175e-03,2.95990e+00
8.05299e-03,2.79592e+00
8.19675e-03,2.64052e+00
8.34308e-03,2.49328e+00
8.49201e-03,2.35381e+00
8.64361e-03,2.22171e+00
8.79791e-03,2.09663e+00
8.95497e-03,1.97822e+00
9.11483e-03,1.86614e+00
9.27755e-03,1.76008e+00
9.44317e-03,1.65973e+00
9.61174e-03,1.56482e+00
9.78333e-03,1.47505e+00
9.95798e-03,1.39018e+00
1.01357e-02,1.30995e+00
1.03167e-02,1.23412e+00
1.05009e-02,1.16246e+00
1.06883e-02,1.09477e+00
1.08791e-02,1.03083e+00
1.10733e-02,9.70451e-01
1.12710e-02,9.13444e-01
1.14722e-02,8.59633e-01
1.16770e-02,8.08849e-01
1.18855e-02,7.60931e-01
1.20976e-02,7.15727e-01
1.23136e-02,6.73092e-01
1.25334e-02,6.32888e-01
1.27572e-02,5.94984e-01
1.29849e-02,5.59255e-01
1.32167e-02,5.25584e-01
1.34526e-02,4.93859e-01
1.36928e-02,4.63972e-01
1.39372e-02,4.35822e-01
1.41860e-02,4.09315e-01
1.44393e-02,3.84358e-01
1.46971e-02,3.60866e-01
1.49594e-02,3.38757e-01
1.52265e-02,3.17953e-01
1.54983e-02,2.98381e-01
1.57750e-02,2.79971e-01
1.60566e-02,2.62658e-01
1.63432e-02,2.46379e-01
1.66350e-02,2.31074e-01
1.69319e-02,2.16689e-01
1.72342e-02,2.03171e-01
1.75418e-02,1.90468e-01
1.78550e-02,1.78535e-01
1.81737e-02,1.67326e-01
1.84982e-02,1.56799e-01
1.88284e-02,1.46914e-01
1.91645e-02,1.37634e-01
1.95066e-02,1.28923e-01
1.98549e-02,1.20747e-01
2.02093e-02,1.13075e-01
2.05701e-02,1.05877e-01
2.09373e-02,9.91235e-02
2.13110e-02,9.27893e-02
2.16915e-02,8.68489e-02
2.20787e-02,8.12785e-02
2.24729e-02,7.60557e-02
2.28740e-02,7.11597e-02
2.32824e-02,6.65706e-02
2.36980e-02,6.22696e-02
2.41211e-02,5.82393e-02
2.45517e-02,5.44630e-02
2.49899e-02,5.09253e-02
2.54361e-02,4.76115e-02
2.58901e-02,4.45077e-02
2.63523e-02,4.16010e-02
2.68228e-02,3.88792e-02
2.73016e-02,3.63309e-02
2.77890e-02,3.39452e-02
2.82850e-02,3.17120e-02
2.87900e-02,2.96218e-02
2.93039e-02,2.76656e-02
2.98271e-02,2.58351e-02
3.03595e-02,2.41223e-02
3.09015e-02,2.25198e-02
3.14531e-02,2.10207e-02
3.20146e-02,1.96184e-02
3.25861e-02,1.83068e-02
3.31679e-02,1.70802e-02
3.37600e-02,1.59331e-02
3.43626e-02,1.48605e-02
3.49761e-02,1.38576e-02
3.56004e-02,1.29199e-02
3.62360e-02,1.20434e-02
3.68828e-02,1.12241e-02
3.75413e-02,1.04582e-02
3.82114e-02,9.74248e-03
3.88936e-02,9.07356e-03
3.95879e-02,8.44846e-03
4.02946e-02,7.86436e-03
4.10139e-02,7.31860e-03
4.17461e-02,6.80870e-03
4.24913e-02,6.33233e-03
4.32499e-02,5.88733e-03
4.40220e-02,5.47164e-03
4.48078e-02,5.08337e-03
4.56077e-02,4.72072e-03
4.64219e-02,4.38203e-03
4.72506e-02,4.06573e-03
4.80941e-02,3.77035e-03
4.89527e-02,3.49453e-03
4.98266e-02,3.23698e-03
5.07160e-02,2.99651e-03
5.16214e-02,2.77200e-03
5.25429e-02,2.56239e-03
5.34809e-02,2.36671e-03
5.44356e-02,2.18404e-03
5.54074e-02,2.01353e-03
5.63965e-02,1.85436e-03
5.74033e-02,1.70579e-03
5.84280e-02,1.56713e-03
5.94711e-02,1.43771e-03
6.05327e-02,1.31693e-03
6.16134e-02,1.20421e-03
6.27133e-02,1.09902e-03
6.38328e-02,1.00085e-03
6.49723e-02,9.09254e-04
6.61322e-02,8.23782e-04
6.73128e-02,7.44029e-04
6.85144e-02,6.69616e-04
6.97375e-02,6.00188e-04
7.09824e-02,5.35411e-04
7.22496e-02,4.74977e-04
7.35394e-02,4.18597e-04
7.48522e-02,3.65998e-04
7.61884e-02,3.16930e-04
7.75485e-02,2.71157e-04
7.89329e-02,2.28458e-04
8.03420e-02,1.88628e-04
8.17762e-02,1.51475e-04
8.32360e-02,1.16820e-04
8.47219e-02,8.44965e-05
8.62344e-02,5.43473e-05
8.77738e-02,2.62271e-05
8.93407e-02,0.00000e+00
