m1=1040.275, m2=8.390, gsp=2.196, rhosp=80.903
fGW[Hz],dPh[rad]
1.01053e-02,3.90752e+02
1.04167e-02,3.65449e+02
1.07378e-02,3.41782e+02
1.10687e-02,3.19647e+02
1.14098e-02,2.98944e+02
1.17614e-02,2.79581e+02
1.21239e-02,2.61471e+02
1.24975e-02,2.44533e+02
1.28827e-02,2.28691e+02
1.32797e-02,2.13874e+02
1.36889e-02,2.00016e+02
1.41108e-02,1.87055e+02
1.45457e-02,1.74933e+02
1.49939e-02,1.63596e+02
1.54560e-02,1.52992e+02
1.59323e-02,1.43075e+02
1.64233e-02,1.33799e+02
1.69295e-02,1.25124e+02
1.74512e-02,1.17011e+02
1.79890e-02,1.09423e+02
1.85434e-02,1.02326e+02
1.91149e-02,9.56887e+01
1.97039e-02,8.94810e+01
2.03112e-02,8.36753e+01
2.09371e-02,7.82456e+01
2.15824e-02,7.31675e+01
2.22475e-02,6.84182e+01
2.29331e-02,6.39765e+01
2.36398e-02,5.98225e+01
2.43684e-02,5.59376e+01
2.51194e-02,5.23043e+01
2.58935e-02,4.89064e+01
2.66915e-02,4.57286e+01
2.75140e-02,4.27567e+01
2.83620e-02,3.99774e+01
2.92360e-02,3.73782e+01
3.01370e-02,3.49474e+01
3.10658e-02,3.26742e+01
3.20231e-02,3.05484e+01
3.30100e-02,2.85603e+01
3.40273e-02,2.67011e+01
3.50760e-02,2.49625e+01
3.61570e-02,2.33367e+01
3.72712e-02,2.18162e+01
3.84199e-02,2.03944e+01
3.96039e-02,1.90649e+01
4.08244e-02,1.78216e+01
4.20825e-02,1.66589e+01
4.33794e-02,1.55718e+01
4.47163e-02,1.45552e+01
4.60943e-02,1.36046e+01
4.75148e-02,1.27157e+01
4.89791e-02,1.18845e+01
5.04886e-02,1.11074e+01
5.20445e-02,1.03807e+01
5.36484e-02,9.70125e+00
5.53018e-02,9.06595e+00
5.70061e-02,8.47196e+00
5.87629e-02,7.91659e+00
6.05738e-02,7.39734e+00
6.24406e-02,6.91187e+00
6.43648e-02,6.45799e+00
6.63484e-02,6.03365e+00
6.83932e-02,5.63694e+00
7.05009e-02,5.26607e+00
7.26736e-02,4.91936e+00
7.49132e-02,4.59525e+00
7.72219e-02,4.29226e+00
7.96017e-02,4.00904e+00
8.20549e-02,3.74429e+00
8.45836e-02,3.49682e+00
8.71903e-02,3.26551e+00
8.98773e-02,3.04930e+00
9.26471e-02,2.84723e+00
9.55023e-02,2.65836e+00
9.84455e-02,2.48185e+00
1.01479e-01,2.31689e+00
1.04607e-01,2.16273e+00
1.07831e-01,2.01867e+00
1.11154e-01,1.88405e+00
1.14579e-01,1.75826e+00
1.18110e-01,1.64073e+00
1.21750e-01,1.53091e+00
1.25502e-01,1.42831e+00
1.29370e-01,1.33245e+00
1.33357e-01,1.24291e+00
1.37467e-01,1.15926e+00
1.41703e-01,1.08112e+00
1.46070e-01,1.00814e+00
1.50572e-01,9.39970e-01
1.55212e-01,8.76309e-01
1.59995e-01,8.16857e-01
1.64926e-01,7.61341e-01
1.70009e-01,7.09504e-01
1.75248e-01,6.61106e-01
1.80649e-01,6.15921e-01
1.86216e-01,5.73740e-01
1.91955e-01,5.34367e-01
1.97870e-01,4.97617e-01
2.03968e-01,4.63320e-01
2.10254e-01,4.31314e-01
2.16734e-01,4.01450e-01
2.23413e-01,3.73586e-01
2.30298e-01,3.47593e-01
2.37395e-01,3.23346e-01
2.44711e-01,3.00731e-01
2.52253e-01,2.79641e-01
2.60027e-01,2.59976e-01
2.68040e-01,2.41642e-01
2.76301e-01,2.24550e-01
2.84816e-01,2.08620e-01
2.93593e-01,1.93773e-01
3.02641e-01,1.79940e-01
3.11968e-01,1.67052e-01
3.21582e-01,1.55047e-01
3.31492e-01,1.43866e-01
3.41708e-01,1.33455e-01
3.52239e-01,1.23763e-01
3.63094e-01,1.14741e-01
3.74284e-01,1.06345e-01
3.85819e-01,9.85331e-02
3.97709e-01,9.12664e-02
4.09965e-01,8.45082e-02
4.22600e-01,7.82245e-02
4.35623e-01,7.23833e-02
4.49048e-01,6.69548e-02
4.62887e-01,6.19112e-02
4.77152e-01,5.72265e-02
4.91857e-01,5.28763e-02
5.07015e-01,4.88378e-02
5.22640e-01,4.50899e-02
5.38747e-01,4.16128e-02
5.55350e-01,3.83879e-02
5.72465e-01,3.53978e-02
5.90107e-01,3.26265e-02
6.08293e-01,3.00588e-02
6.27039e-01,2.76806e-02
6.46363e-01,2.54788e-02
6.66282e-01,2.34410e-02
6.86816e-01,2.15558e-02
7.07982e-01,1.98124e-02
7.29800e-01,1.82009e-02
7.52291e-01,1.67119e-02
7.75475e-01,1.53368e-02
7.99374e-01,1.40673e-02
8.24009e-01,1.28959e-02
8.49403e-01,1.18156e-02
8.75580e-01,1.08197e-02
9.02563e-01,9.90207e-03
9.30379e-01,9.05703e-03
9.59051e-01,8.27922e-03
9.88607e-01,7.56367e-03
1.01907e+00,6.90574e-03
1.05048e+00,6.30113e-03
1.08285e+00,5.74582e-03
1.11622e+00,5.23608e-03
1.15062e+00,4.76844e-03
1.18608e+00,4.33966e-03
1.22264e+00,3.94675e-03
1.26032e+00,3.58691e-03
1.29916e+00,3.25757e-03
1.33919e+00,2.95632e-03
1.38046e+00,2.68092e-03
1.42301e+00,2.42932e-03
1.46686e+00,2.19960e-03
1.51207e+00,1.98998e-03
1.55866e+00,1.79883e-03
1.60670e+00,1.62462e-03
1.65621e+00,1.46595e-03
1.70726e+00,1.32152e-03
1.75987e+00,1.19014e-03
1.81411e+00,1.07070e-03
1.87001e+00,9.62179e-04
1.92764e+00,8.63642e-04
1.98705e+00,7.74224e-04
2.04828e+00,6.93128e-04
2.11141e+00,6.19624e-04
2.17648e+00,5.53039e-04
2.24355e+00,4.92758e-04
2.31269e+00,4.38214e-04
2.38397e+00,3.88890e-04
2.45743e+00,3.44310e-04
2.53317e+00,3.04039e-04
2.61123e+00,2.67682e-04
2.69171e+00,2.34874e-04
2.77466e+00,2.05285e-04
2.86017e+00,1.78612e-04
2.94831e+00,1.54579e-04
3.03917e+00,1.32936e-04
3.13283e+00,1.13454e-04
3.22938e+00,9.59248e-05
3.32890e+00,8.01605e-05
3.43149e+00,6.59893e-05
3.53725e+00,5.32554e-05
3.64626e+00,4.18179e-05
3.75863e+00,3.15488e-05
3.87446e+00,2.23324e-05
3.99386e+00,1.40638e-05
4.11694e+00,6.64819e-06
4.24382e+00,0.00000e+00
