m1=45563.911, m2=98.468, gsp=2.319, rhosp=270.213
fGW[Hz],dPh[rad]
1.55878e-03,5.74713e+03
1.59145e-03,5.49035e+03
1.62479e-03,5.24481e+03
1.65884e-03,5.01001e+03
1.69360e-03,4.78550e+03
1.72909e-03,4.57082e+03
1.76532e-03,4.36556e+03
1.80231e-03,4.16930e+03
1.84007e-03,3.98165e+03
1.87863e-03,3.80225e+03
1.91800e-03,3.63073e+03
1.95818e-03,3.46675e+03
1.99922e-03,3.30998e+03
2.04111e-03,3.16012e+03
2.08388e-03,3.01686e+03
2.12754e-03,2.87991e+03
2.17212e-03,2.74901e+03
2.21764e-03,2.62389e+03
2.26411e-03,2.50430e+03
2.31155e-03,2.38999e+03
2.35998e-03,2.28075e+03
2.40943e-03,2.17634e+03
2.45992e-03,2.07657e+03
2.51147e-03,1.98122e+03
2.56409e-03,1.89010e+03
2.61782e-03,1.80304e+03
2.67267e-03,1.71984e+03
2.72868e-03,1.64036e+03
2.78585e-03,1.56442e+03
2.84423e-03,1.49187e+03
2.90382e-03,1.42256e+03
2.96467e-03,1.35634e+03
3.02679e-03,1.29310e+03
3.09022e-03,1.23269e+03
3.15497e-03,1.17499e+03
3.22108e-03,1.11988e+03
3.28857e-03,1.06726e+03
3.35748e-03,1.01700e+03
3.42783e-03,9.69012e+02
3.49966e-03,9.23191e+02
3.57299e-03,8.79443e+02
3.64786e-03,8.37676e+02
3.72429e-03,7.97804e+02
3.80233e-03,7.59744e+02
3.88201e-03,7.23415e+02
3.96335e-03,6.88743e+02
4.04640e-03,6.55653e+02
4.13119e-03,6.24076e+02
4.21775e-03,5.93945e+02
4.30613e-03,5.65197e+02
4.39636e-03,5.37770e+02
4.48848e-03,5.11606e+02
4.58253e-03,4.86649e+02
4.67855e-03,4.62846e+02
4.77659e-03,4.40145e+02
4.87668e-03,4.18498e+02
4.97886e-03,3.97857e+02
5.08319e-03,3.78179e+02
5.18970e-03,3.59419e+02
5.29845e-03,3.41537e+02
5.40947e-03,3.24495e+02
5.52282e-03,3.08253e+02
5.63854e-03,2.92778e+02
5.75669e-03,2.78033e+02
5.87732e-03,2.63987e+02
6.00047e-03,2.50607e+02
6.12620e-03,2.37865e+02
6.25457e-03,2.25731e+02
6.38563e-03,2.14178e+02
6.51943e-03,2.03179e+02
6.65604e-03,1.92709e+02
6.79551e-03,1.82745e+02
6.93790e-03,1.73263e+02
7.08328e-03,1.64241e+02
7.23170e-03,1.55659e+02
7.38324e-03,1.47496e+02
7.53794e-03,1.39733e+02
7.69589e-03,1.32351e+02
7.85715e-03,1.25334e+02
8.02179e-03,1.18664e+02
8.18988e-03,1.12325e+02
8.36149e-03,1.06302e+02
8.53669e-03,1.00580e+02
8.71557e-03,9.51449e+01
8.89820e-03,8.99837e+01
9.08465e-03,8.50833e+01
9.27501e-03,8.04315e+01
9.46936e-03,7.60165e+01
9.66778e-03,7.18272e+01
9.87035e-03,6.78529e+01
1.00772e-02,6.40832e+01
1.02883e-02,6.05086e+01
1.05039e-02,5.71195e+01
1.07240e-02,5.39072e+01
1.09487e-02,5.08630e+01
1.11781e-02,4.79788e+01
1.14124e-02,4.52469e+01
1.16515e-02,4.26599e+01
1.18956e-02,4.02106e+01
1.21449e-02,3.78922e+01
1.23994e-02,3.56984e+01
1.26592e-02,3.36229e+01
1.29245e-02,3.16599e+01
1.31953e-02,2.98037e+01
1.34718e-02,2.80490e+01
1.37541e-02,2.63906e+01
1.40423e-02,2.48238e+01
1.43365e-02,2.33437e+01
1.46369e-02,2.19461e+01
1.49436e-02,2.06266e+01
1.52567e-02,1.93813e+01
1.55764e-02,1.82063e+01
1.59028e-02,1.70979e+01
1.62360e-02,1.60527e+01
1.65762e-02,1.50673e+01
1.69236e-02,1.41385e+01
1.72782e-02,1.32635e+01
1.76402e-02,1.24392e+01
1.80099e-02,1.16629e+01
1.83873e-02,1.09322e+01
1.87725e-02,1.02445e+01
1.91659e-02,9.59738e+00
1.95675e-02,8.98874e+00
1.99775e-02,8.41642e+00
2.03961e-02,7.87841e+00
2.08235e-02,7.37279e+00
2.12598e-02,6.89776e+00
2.17053e-02,6.45158e+00
2.21601e-02,6.03264e+00
2.26245e-02,5.63938e+00
2.30985e-02,5.27033e+00
2.35825e-02,4.92410e+00
2.40767e-02,4.59938e+00
2.45812e-02,4.29490e+00
2.50963e-02,4.00950e+00
2.56221e-02,3.74204e+00
2.61590e-02,3.49148e+00
2.67072e-02,3.25680e+00
2.72668e-02,3.03707e+00
2.78381e-02,2.83138e+00
2.84214e-02,2.63890e+00
2.90170e-02,2.45881e+00
2.96250e-02,2.29037e+00
3.02458e-02,2.13286e+00
3.08795e-02,1.98562e+00
3.15266e-02,1.84800e+00
3.21872e-02,1.71942e+00
3.28616e-02,1.59931e+00
3.35502e-02,1.48713e+00
3.42532e-02,1.38239e+00
3.49709e-02,1.28463e+00
3.57037e-02,1.19339e+00
3.64519e-02,1.10826e+00
3.72157e-02,1.02885e+00
3.79955e-02,9.54795e-01
3.87916e-02,8.85746e-01
3.96045e-02,8.21380e-01
4.04343e-02,7.61391e-01
4.12816e-02,7.05494e-01
4.21466e-02,6.53420e-01
4.30297e-02,6.04918e-01
4.39314e-02,5.59751e-01
4.48519e-02,5.17699e-01
4.57918e-02,4.78554e-01
4.67513e-02,4.42122e-01
4.77309e-02,4.08222e-01
4.87310e-02,3.76682e-01
4.97521e-02,3.47344e-01
5.07946e-02,3.20059e-01
5.18590e-02,2.94687e-01
5.29456e-02,2.71098e-01
5.40551e-02,2.49171e-01
5.51877e-02,2.28791e-01
5.63441e-02,2.09852e-01
5.75248e-02,1.92255e-01
5.87301e-02,1.75907e-01
5.99608e-02,1.60722e-01
6.12172e-02,1.46619e-01
6.24999e-02,1.33523e-01
6.38095e-02,1.21363e-01
6.51466e-02,1.10074e-01
6.65117e-02,9.95949e-02
6.79053e-02,8.98688e-02
6.93282e-02,8.08425e-02
7.07809e-02,7.24668e-02
7.22641e-02,6.46956e-02
7.37783e-02,5.74861e-02
7.53242e-02,5.07984e-02
7.69026e-02,4.45955e-02
7.85140e-02,3.88426e-02
8.01591e-02,3.35078e-02
8.18388e-02,2.85610e-02
8.35536e-02,2.39746e-02
8.53044e-02,1.97226e-02
8.70919e-02,1.57810e-02
8.89168e-02,1.21275e-02
9.07800e-02,8.74127e-03
9.26821e-02,5.60302e-03
9.46242e-02,2.69481e-03
9.66069e-02,0.00000e+00
