m1=5118.784, m2=12.988, gsp=2.310, rhosp=1338.113
fGW[Hz],dPh[rad]
5.75545e-03,1.34484e+04
5.90210e-03,1.27397e+04
6.05248e-03,1.20681e+04
6.20670e-03,1.14317e+04
6.36484e-03,1.08286e+04
6.52701e-03,1.02570e+04
6.69332e-03,9.71540e+03
6.86386e-03,9.20215e+03
7.03875e-03,8.71579e+03
7.21809e-03,8.25491e+03
7.40200e-03,7.81818e+03
7.59060e-03,7.40435e+03
7.78400e-03,7.01222e+03
7.98234e-03,6.64065e+03
8.18572e-03,6.28857e+03
8.39429e-03,5.95496e+03
8.60817e-03,5.63887e+03
8.82750e-03,5.33937e+03
9.05242e-03,5.05559e+03
9.28307e-03,4.78672e+03
9.51960e-03,4.53198e+03
9.76215e-03,4.29063e+03
1.00109e-02,4.06197e+03
1.02660e-02,3.84533e+03
1.05275e-02,3.64009e+03
1.07958e-02,3.44565e+03
1.10708e-02,3.26145e+03
1.13529e-02,3.08695e+03
1.16422e-02,2.92165e+03
1.19388e-02,2.76506e+03
1.22430e-02,2.61673e+03
1.25550e-02,2.47622e+03
1.28749e-02,2.34313e+03
1.32029e-02,2.21707e+03
1.35393e-02,2.09767e+03
1.38843e-02,1.98458e+03
1.42380e-02,1.87747e+03
1.46008e-02,1.77604e+03
1.49728e-02,1.67997e+03
1.53543e-02,1.58899e+03
1.57456e-02,1.50283e+03
1.61467e-02,1.42125e+03
1.65581e-02,1.34399e+03
1.69800e-02,1.27084e+03
1.74127e-02,1.20157e+03
1.78563e-02,1.13600e+03
1.83113e-02,1.07391e+03
1.87779e-02,1.01513e+03
1.92563e-02,9.59479e+02
1.97470e-02,9.06801e+02
2.02501e-02,8.56937e+02
2.07661e-02,8.09738e+02
2.12952e-02,7.65064e+02
2.18378e-02,7.22782e+02
2.23942e-02,6.82767e+02
2.29648e-02,6.44899e+02
2.35499e-02,6.09066e+02
2.41499e-02,5.75159e+02
2.47653e-02,5.43077e+02
2.53963e-02,5.12725e+02
2.60434e-02,4.84010e+02
2.67069e-02,4.56847e+02
2.73874e-02,4.31154e+02
2.80852e-02,4.06852e+02
2.88008e-02,3.83868e+02
2.95346e-02,3.62133e+02
3.02872e-02,3.41580e+02
3.10589e-02,3.22147e+02
3.18502e-02,3.03774e+02
3.26618e-02,2.86406e+02
3.34940e-02,2.69988e+02
3.43474e-02,2.54470e+02
3.52225e-02,2.39805e+02
3.61200e-02,2.25947e+02
3.70403e-02,2.12854e+02
3.79841e-02,2.00483e+02
3.89519e-02,1.88797e+02
3.99443e-02,1.77760e+02
4.09621e-02,1.67336e+02
4.20058e-02,1.57492e+02
4.30761e-02,1.48199e+02
4.41736e-02,1.39425e+02
4.52992e-02,1.31143e+02
4.64534e-02,1.23328e+02
4.76370e-02,1.15952e+02
4.88507e-02,1.08994e+02
5.00954e-02,1.02430e+02
5.13718e-02,9.62389e+01
5.26807e-02,9.04006e+01
5.40230e-02,8.48961e+01
5.53995e-02,7.97071e+01
5.68110e-02,7.48164e+01
5.82585e-02,7.02078e+01
5.97429e-02,6.58659e+01
6.12652e-02,6.17760e+01
6.28262e-02,5.79244e+01
6.44269e-02,5.42979e+01
6.60685e-02,5.08841e+01
6.77519e-02,4.76712e+01
6.94782e-02,4.46483e+01
7.12484e-02,4.18046e+01
7.30638e-02,3.91302e+01
7.49254e-02,3.66157e+01
7.68345e-02,3.42522e+01
7.87922e-02,3.20311e+01
8.07998e-02,2.99444e+01
8.28585e-02,2.79845e+01
8.49697e-02,2.61443e+01
8.71347e-02,2.44169e+01
8.93548e-02,2.27960e+01
9.16315e-02,2.12753e+01
9.39662e-02,1.98492e+01
9.63604e-02,1.85122e+01
9.88157e-02,1.72591e+01
1.01333e-01,1.60850e+01
1.03915e-01,1.49854e+01
1.06563e-01,1.39558e+01
1.09278e-01,1.29921e+01
1.12063e-01,1.20905e+01
1.14918e-01,1.12472e+01
1.17846e-01,1.04588e+01
1.20849e-01,9.72193e+00
1.23928e-01,9.03349e+00
1.27085e-01,8.39056e+00
1.30323e-01,7.79035e+00
1.33644e-01,7.23025e+00
1.37049e-01,6.70778e+00
1.40541e-01,6.22061e+00
1.44122e-01,5.76653e+00
1.47794e-01,5.34347e+00
1.51560e-01,4.94948e+00
1.55421e-01,4.58270e+00
1.59382e-01,4.24141e+00
1.63442e-01,3.92395e+00
1.67607e-01,3.62880e+00
1.71877e-01,3.35449e+00
1.76257e-01,3.09967e+00
1.80748e-01,2.86305e+00
1.85353e-01,2.64343e+00
1.90076e-01,2.43967e+00
1.94919e-01,2.25070e+00
1.99885e-01,2.07553e+00
2.04978e-01,1.91322e+00
2.10201e-01,1.76288e+00
2.15557e-01,1.62370e+00
2.21049e-01,1.49490e+00
2.26681e-01,1.37575e+00
2.32457e-01,1.26559e+00
2.38380e-01,1.16376e+00
2.44453e-01,1.06968e+00
2.50682e-01,9.82804e-01
2.57069e-01,9.02601e-01
2.63619e-01,8.28591e-01
2.70336e-01,7.60324e-01
2.77224e-01,6.97379e-01
2.84288e-01,6.39362e-01
2.91531e-01,5.85909e-01
2.98959e-01,5.36679e-01
3.06576e-01,4.91354e-01
3.14388e-01,4.49641e-01
3.22398e-01,4.11265e-01
3.30613e-01,3.75972e-01
3.39037e-01,3.43525e-01
3.47675e-01,3.13705e-01
3.56534e-01,2.86309e-01
3.65618e-01,2.61146e-01
3.74934e-01,2.38044e-01
3.84487e-01,2.16840e-01
3.94283e-01,1.97383e-01
4.04329e-01,1.79535e-01
4.14632e-01,1.63168e-01
4.25196e-01,1.48164e-01
4.36030e-01,1.34412e-01
4.47140e-01,1.21812e-01
4.58533e-01,1.10269e-01
4.70216e-01,9.96994e-02
4.82197e-01,9.00219e-02
4.94483e-01,8.11639e-02
5.07082e-01,7.30579e-02
5.20002e-01,6.56417e-02
5.33251e-01,5.88581e-02
5.46838e-01,5.26547e-02
5.60771e-01,4.69829e-02
5.75059e-01,4.17983e-02
5.89712e-01,3.70599e-02
6.04737e-01,3.27303e-02
6.20146e-01,2.87749e-02
6.35947e-01,2.51619e-02
6.52150e-01,2.18624e-02
6.68767e-01,1.88497e-02
6.85806e-01,1.60993e-02
7.03280e-01,1.35887e-02
7.21199e-01,1.12974e-02
7.39575e-01,9.20658e-03
7.58419e-01,7.29896e-03
7.77743e-01,5.55873e-03
7.97560e-01,3.97141e-03
8.17881e-01,2.52376e-03
8.38720e-01,1.20365e-03
8.60090e-01,0.00000e+00
