m1=704043.154, m2=34.859, gsp=2.121, rhosp=67.867
fGW[Hz],dPh[rad]
1.16024e-03,1.18758e+02
1.17009e-03,1.14962e+02
1.18003e-03,1.11285e+02
1.19006e-03,1.07726e+02
1.20017e-03,1.04279e+02
1.21036e-03,1.00941e+02
1.22064e-03,9.77087e+01
1.23101e-03,9.45791e+01
1.24147e-03,9.15488e+01
1.25201e-03,8.86147e+01
1.26265e-03,8.57737e+01
1.27337e-03,8.30229e+01
1.28419e-03,8.03595e+01
1.29510e-03,7.77807e+01
1.30610e-03,7.52839e+01
1.31719e-03,7.28665e+01
1.32838e-03,7.05260e+01
1.33967e-03,6.82599e+01
1.35105e-03,6.60660e+01
1.36252e-03,6.39420e+01
1.37410e-03,6.18855e+01
1.38577e-03,5.98946e+01
1.39754e-03,5.79672e+01
1.40941e-03,5.61012e+01
1.42138e-03,5.42947e+01
1.43346e-03,5.25459e+01
1.44563e-03,5.08528e+01
1.45791e-03,4.92138e+01
1.47030e-03,4.76271e+01
1.48279e-03,4.60910e+01
1.49538e-03,4.46041e+01
1.50808e-03,4.31647e+01
1.52089e-03,4.17712e+01
1.53381e-03,4.04223e+01
1.54684e-03,3.91166e+01
1.55998e-03,3.78526e+01
1.57323e-03,3.66291e+01
1.58660e-03,3.54447e+01
1.60007e-03,3.42982e+01
1.61366e-03,3.31885e+01
1.62737e-03,3.21143e+01
1.64120e-03,3.10745e+01
1.65514e-03,3.00680e+01
1.66920e-03,2.90938e+01
1.68337e-03,2.81508e+01
1.69767e-03,2.72381e+01
1.71209e-03,2.63546e+01
1.72664e-03,2.54995e+01
1.74130e-03,2.46718e+01
1.75610e-03,2.38706e+01
1.77101e-03,2.30952e+01
1.78606e-03,2.23447e+01
1.80123e-03,2.16183e+01
1.81653e-03,2.09152e+01
1.83196e-03,2.02348e+01
1.84752e-03,1.95761e+01
1.86321e-03,1.89387e+01
1.87904e-03,1.83217e+01
1.89500e-03,1.77246e+01
1.91110e-03,1.71467e+01
1.92733e-03,1.65874e+01
1.94370e-03,1.60461e+01
1.96021e-03,1.55221e+01
1.97687e-03,1.50151e+01
1.99366e-03,1.45244e+01
2.01059e-03,1.40494e+01
2.02767e-03,1.35898e+01
2.04490e-03,1.31450e+01
2.06227e-03,1.27145e+01
2.07978e-03,1.22978e+01
2.09745e-03,1.18946e+01
2.11527e-03,1.15044e+01
2.13323e-03,1.11268e+01
2.15135e-03,1.07613e+01
2.16963e-03,1.04076e+01
2.18806e-03,1.00654e+01
2.20664e-03,9.73414e+00
2.22539e-03,9.41359e+00
2.24429e-03,9.10339e+00
2.26336e-03,8.80319e+00
2.28258e-03,8.51268e+00
2.30197e-03,8.23155e+00
2.32153e-03,7.95950e+00
2.34125e-03,7.69623e+00
2.36113e-03,7.44146e+00
2.38119e-03,7.19491e+00
2.40142e-03,6.95633e+00
2.42181e-03,6.72546e+00
2.44239e-03,6.50205e+00
2.46313e-03,6.28585e+00
2.48406e-03,6.07664e+00
2.50516e-03,5.87420e+00
2.52644e-03,5.67829e+00
2.54790e-03,5.48872e+00
2.56954e-03,5.30528e+00
2.59137e-03,5.12777e+00
2.61338e-03,4.95600e+00
2.63558e-03,4.78979e+00
2.65797e-03,4.62895e+00
2.68054e-03,4.47332e+00
2.70331e-03,4.32272e+00
2.72628e-03,4.17700e+00
2.74943e-03,4.03599e+00
2.77279e-03,3.89954e+00
2.79634e-03,3.76751e+00
2.82010e-03,3.63976e+00
2.84405e-03,3.51614e+00
2.86821e-03,3.39652e+00
2.89257e-03,3.28077e+00
2.91714e-03,3.16878e+00
2.94192e-03,3.06041e+00
2.96691e-03,2.95555e+00
2.99211e-03,2.85409e+00
3.01753e-03,2.75592e+00
3.04316e-03,2.66092e+00
3.06901e-03,2.56900e+00
3.09508e-03,2.48007e+00
3.12137e-03,2.39401e+00
3.14789e-03,2.31075e+00
3.17463e-03,2.23018e+00
3.20159e-03,2.15222e+00
3.22879e-03,2.07679e+00
3.25622e-03,2.00381e+00
3.28388e-03,1.93319e+00
3.31177e-03,1.86487e+00
3.33990e-03,1.79876e+00
3.36827e-03,1.73479e+00
3.39688e-03,1.67290e+00
3.42574e-03,1.61301e+00
3.45484e-03,1.55507e+00
3.48418e-03,1.49901e+00
3.51378e-03,1.44476e+00
3.54363e-03,1.39228e+00
3.57373e-03,1.34150e+00
3.60409e-03,1.29236e+00
3.63470e-03,1.24483e+00
3.66557e-03,1.19883e+00
3.69671e-03,1.15433e+00
3.72811e-03,1.11127e+00
3.75978e-03,1.06961e+00
3.79172e-03,1.02930e+00
3.82393e-03,9.90300e-01
3.85641e-03,9.52567e-01
3.88917e-03,9.16058e-01
3.92220e-03,8.80736e-01
3.95552e-03,8.46560e-01
3.98912e-03,8.13494e-01
4.02300e-03,7.81502e-01
4.05718e-03,7.50549e-01
4.09164e-03,7.20601e-01
4.12640e-03,6.91626e-01
4.16145e-03,6.63592e-01
4.19680e-03,6.36469e-01
4.23245e-03,6.10227e-01
4.26840e-03,5.84838e-01
4.30466e-03,5.60274e-01
4.34122e-03,5.36508e-01
4.37810e-03,5.13514e-01
4.41529e-03,4.91267e-01
4.45279e-03,4.69743e-01
4.49062e-03,4.48919e-01
4.52876e-03,4.28771e-01
4.56723e-03,4.09278e-01
4.60603e-03,3.90419e-01
4.64515e-03,3.72173e-01
4.68461e-03,3.54520e-01
4.72440e-03,3.37441e-01
4.76453e-03,3.20917e-01
4.80500e-03,3.04930e-01
4.84582e-03,2.89463e-01
4.88698e-03,2.74499e-01
4.92849e-03,2.60021e-01
4.97036e-03,2.46015e-01
5.01258e-03,2.32463e-01
5.05516e-03,2.19352e-01
5.09810e-03,2.06668e-01
5.14140e-03,1.94396e-01
5.18508e-03,1.82524e-01
5.22912e-03,1.71037e-01
5.27354e-03,1.59924e-01
5.31834e-03,1.49172e-01
5.36351e-03,1.38771e-01
5.40907e-03,1.28707e-01
5.45502e-03,1.18971e-01
5.50136e-03,1.09552e-01
5.54809e-03,1.00439e-01
5.59521e-03,9.16221e-02
5.64274e-03,8.30925e-02
5.69067e-03,7.48403e-02
5.73901e-03,6.68566e-02
5.78776e-03,5.91327e-02
5.83693e-03,5.16601e-02
5.88651e-03,4.44307e-02
5.93651e-03,3.74365e-02
5.98694e-03,3.06698e-02
6.03779e-03,2.41234e-02
6.08908e-03,1.77901e-02
6.14080e-03,1.16628e-02
6.19296e-03,5.73493e-03
6.24557e-03,0.00000e+00
