m1=2939.079, m2=5.069, gsp=2.303, rhosp=10.917
fGW[Hz],dPh[rad]
9.40845e-03,7.33372e+03
9.65123e-03,6.94106e+03
9.90027e-03,6.56925e+03
1.01557e-02,6.21720e+03
1.04178e-02,5.88385e+03
1.06866e-02,5.56822e+03
1.09624e-02,5.26936e+03
1.12452e-02,4.98640e+03
1.15354e-02,4.71849e+03
1.18331e-02,4.46483e+03
1.21384e-02,4.22467e+03
1.24516e-02,3.99729e+03
1.27729e-02,3.78201e+03
1.31025e-02,3.57820e+03
1.34406e-02,3.38524e+03
1.37874e-02,3.20257e+03
1.41432e-02,3.02963e+03
1.45082e-02,2.86592e+03
1.48825e-02,2.71094e+03
1.52665e-02,2.56422e+03
1.56605e-02,2.42534e+03
1.60646e-02,2.29387e+03
1.64791e-02,2.16942e+03
1.69043e-02,2.05163e+03
1.73405e-02,1.94013e+03
1.77880e-02,1.83460e+03
1.82470e-02,1.73471e+03
1.87178e-02,1.64017e+03
1.92008e-02,1.55069e+03
1.96963e-02,1.46600e+03
2.02045e-02,1.38586e+03
2.07259e-02,1.31001e+03
2.12607e-02,1.23824e+03
2.18093e-02,1.17032e+03
2.23721e-02,1.10605e+03
2.29493e-02,1.04523e+03
2.35415e-02,9.87690e+02
2.41490e-02,9.33244e+02
2.47721e-02,8.81731e+02
2.54114e-02,8.32996e+02
2.60671e-02,7.86889e+02
2.67397e-02,7.43272e+02
2.74297e-02,7.02011e+02
2.81375e-02,6.62982e+02
2.88635e-02,6.26064e+02
2.96083e-02,5.91147e+02
3.03723e-02,5.58123e+02
3.11561e-02,5.26891e+02
3.19600e-02,4.97355e+02
3.27847e-02,4.69425e+02
3.36307e-02,4.43016e+02
3.44985e-02,4.18046e+02
3.53887e-02,3.94437e+02
3.63018e-02,3.72118e+02
3.72386e-02,3.51019e+02
3.81995e-02,3.31076e+02
3.91852e-02,3.12225e+02
4.01963e-02,2.94409e+02
4.12335e-02,2.77572e+02
4.22975e-02,2.61662e+02
4.33889e-02,2.46628e+02
4.45085e-02,2.32425e+02
4.56570e-02,2.19006e+02
4.68352e-02,2.06331e+02
4.80437e-02,1.94358e+02
4.92834e-02,1.83051e+02
5.05551e-02,1.72372e+02
5.18596e-02,1.62289e+02
5.31978e-02,1.52770e+02
5.45705e-02,1.43783e+02
5.59787e-02,1.35300e+02
5.74231e-02,1.27293e+02
5.89049e-02,1.19738e+02
6.04248e-02,1.12608e+02
6.19840e-02,1.05882e+02
6.35835e-02,9.95374e+01
6.52242e-02,9.35531e+01
6.69072e-02,8.79096e+01
6.86337e-02,8.25883e+01
7.04047e-02,7.75717e+01
7.22214e-02,7.28431e+01
7.40850e-02,6.83866e+01
7.59967e-02,6.41873e+01
7.79577e-02,6.02312e+01
7.99693e-02,5.65047e+01
8.20328e-02,5.29952e+01
8.41496e-02,4.96908e+01
8.63210e-02,4.65800e+01
8.85484e-02,4.36521e+01
9.08333e-02,4.08970e+01
9.31772e-02,3.83050e+01
9.55815e-02,3.58670e+01
9.80479e-02,3.35744e+01
1.00578e-01,3.14190e+01
1.03173e-01,2.93930e+01
1.05835e-01,2.74893e+01
1.08566e-01,2.57009e+01
1.11368e-01,2.40212e+01
1.14242e-01,2.24440e+01
1.17189e-01,2.09636e+01
1.20213e-01,1.95743e+01
1.23315e-01,1.82709e+01
1.26497e-01,1.70485e+01
1.29762e-01,1.59024e+01
1.33110e-01,1.48281e+01
1.36545e-01,1.38216e+01
1.40068e-01,1.28787e+01
1.43682e-01,1.19958e+01
1.47390e-01,1.11694e+01
1.51193e-01,1.03960e+01
1.55095e-01,9.67259e+00
1.59097e-01,8.99611e+00
1.63202e-01,8.36378e+00
1.67413e-01,7.77291e+00
1.71733e-01,7.22099e+00
1.76164e-01,6.70567e+00
1.80710e-01,6.22468e+00
1.85373e-01,5.77593e+00
1.90157e-01,5.35741e+00
1.95063e-01,4.96725e+00
2.00097e-01,4.60367e+00
2.05260e-01,4.26500e+00
2.10556e-01,3.94966e+00
2.15990e-01,3.65616e+00
2.21563e-01,3.38312e+00
2.27280e-01,3.12921e+00
2.33145e-01,2.89319e+00
2.39161e-01,2.67390e+00
2.45332e-01,2.47023e+00
2.51663e-01,2.28116e+00
2.58157e-01,2.10572e+00
2.64818e-01,1.94299e+00
2.71652e-01,1.79212e+00
2.78661e-01,1.65231e+00
2.85852e-01,1.52280e+00
2.93228e-01,1.40288e+00
3.00794e-01,1.29190e+00
3.08556e-01,1.18923e+00
3.16518e-01,1.09429e+00
3.24685e-01,1.00654e+00
3.33063e-01,9.25464e-01
3.41658e-01,8.50590e-01
3.50474e-01,7.81472e-01
3.59517e-01,7.17694e-01
3.68794e-01,6.58868e-01
3.78311e-01,6.04632e-01
3.88073e-01,5.54648e-01
3.98086e-01,5.08601e-01
4.08359e-01,4.66199e-01
4.18896e-01,4.27167e-01
4.29705e-01,3.91253e-01
4.40793e-01,3.58219e-01
4.52167e-01,3.27846e-01
4.63835e-01,2.99930e-01
4.75804e-01,2.74281e-01
4.88081e-01,2.50725e-01
5.00676e-01,2.29097e-01
5.13595e-01,2.09247e-01
5.26848e-01,1.91035e-01
5.40443e-01,1.74331e-01
5.54388e-01,1.59015e-01
5.68693e-01,1.44976e-01
5.83368e-01,1.32112e-01
5.98421e-01,1.20328e-01
6.13863e-01,1.09537e-01
6.29703e-01,9.96577e-02
6.45952e-01,9.06155e-02
6.62620e-01,8.23420e-02
6.79718e-01,7.47738e-02
6.97257e-01,6.78526e-02
7.15249e-01,6.15247e-02
7.33705e-01,5.57406e-02
7.52638e-01,5.04549e-02
7.72059e-01,4.56257e-02
7.91981e-01,4.12147e-02
8.12417e-01,3.71865e-02
8.33381e-01,3.35087e-02
8.54885e-01,3.01514e-02
8.76945e-01,2.70874e-02
8.99573e-01,2.42916e-02
9.22786e-01,2.17410e-02
9.46597e-01,1.94145e-02
9.71023e-01,1.72928e-02
9.96079e-01,1.53581e-02
1.02178e+00,1.35944e-02
1.04815e+00,1.19868e-02
1.07519e+00,1.05216e-02
1.10294e+00,9.18641e-03
1.13140e+00,7.96993e-03
1.16059e+00,6.86174e-03
1.19054e+00,5.85233e-03
1.22126e+00,4.93301e-03
1.25277e+00,4.09586e-03
1.28510e+00,3.33361e-03
1.31826e+00,2.63964e-03
1.35228e+00,2.00792e-03
1.38717e+00,1.43291e-03
1.42297e+00,9.09588e-04
1.45968e+00,4.33349e-04
1.49735e+00,0.00000e+00
