m1=4583.932, m2=17.265, gsp=2.351, rhosp=1074.194
fGW[Hz],dPh[rad]
5.31819e-03,1.76270e+04
5.45890e-03,1.66799e+04
5.60334e-03,1.57835e+04
5.75160e-03,1.49350e+04
5.90378e-03,1.41320e+04
6.05999e-03,1.33719e+04
6.22033e-03,1.26524e+04
6.38491e-03,1.19715e+04
6.55385e-03,1.13270e+04
6.72726e-03,1.07170e+04
6.90525e-03,1.01397e+04
7.08796e-03,9.59322e+03
7.27550e-03,9.07606e+03
7.46800e-03,8.58659e+03
7.66559e-03,8.12334e+03
7.86842e-03,7.68491e+03
8.07661e-03,7.26997e+03
8.29031e-03,6.87727e+03
8.50966e-03,6.50561e+03
8.73482e-03,6.15389e+03
8.96593e-03,5.82102e+03
9.20316e-03,5.50600e+03
9.44666e-03,5.20789e+03
9.69661e-03,4.92576e+03
9.95318e-03,4.65878e+03
1.02165e-02,4.40613e+03
1.04868e-02,4.16705e+03
1.07643e-02,3.94080e+03
1.10491e-02,3.72671e+03
1.13415e-02,3.52412e+03
1.16416e-02,3.33243e+03
1.19496e-02,3.15103e+03
1.22658e-02,2.97940e+03
1.25903e-02,2.81699e+03
1.29234e-02,2.66333e+03
1.32654e-02,2.51794e+03
1.36163e-02,2.38038e+03
1.39766e-02,2.25023e+03
1.43464e-02,2.12709e+03
1.47260e-02,2.01059e+03
1.51157e-02,1.90037e+03
1.55156e-02,1.79610e+03
1.59261e-02,1.69746e+03
1.63475e-02,1.60415e+03
1.67801e-02,1.51588e+03
1.72240e-02,1.43238e+03
1.76798e-02,1.35339e+03
1.81476e-02,1.27868e+03
1.86277e-02,1.20802e+03
1.91206e-02,1.14118e+03
1.96265e-02,1.07796e+03
2.01458e-02,1.01818e+03
2.06788e-02,9.61634e+02
2.12260e-02,9.08162e+02
2.17876e-02,8.57596e+02
2.23641e-02,8.09780e+02
2.29558e-02,7.64566e+02
2.35632e-02,7.21814e+02
2.41866e-02,6.81392e+02
2.48266e-02,6.43175e+02
2.54835e-02,6.07045e+02
2.61577e-02,5.72888e+02
2.68498e-02,5.40600e+02
2.75603e-02,5.10078e+02
2.82895e-02,4.81229e+02
2.90380e-02,4.53963e+02
2.98063e-02,4.28193e+02
3.05949e-02,4.03840e+02
3.14045e-02,3.80826e+02
3.22354e-02,3.59081e+02
3.30883e-02,3.38535e+02
3.39638e-02,3.19123e+02
3.48624e-02,3.00784e+02
3.57849e-02,2.83461e+02
3.67317e-02,2.67098e+02
3.77036e-02,2.51643e+02
3.87012e-02,2.37048e+02
3.97252e-02,2.23265e+02
4.07762e-02,2.10251e+02
4.18551e-02,1.97964e+02
4.29626e-02,1.86365e+02
4.40993e-02,1.75415e+02
4.52661e-02,1.65081e+02
4.64638e-02,1.55327e+02
4.76932e-02,1.46124e+02
4.89551e-02,1.37440e+02
5.02504e-02,1.29247e+02
5.15800e-02,1.21519e+02
5.29448e-02,1.14230e+02
5.43456e-02,1.07356e+02
5.57836e-02,1.00875e+02
5.72595e-02,9.47640e+01
5.87746e-02,8.90039e+01
6.03297e-02,8.35750e+01
6.19259e-02,7.84590e+01
6.35644e-02,7.36388e+01
6.52463e-02,6.90980e+01
6.69726e-02,6.48211e+01
6.87446e-02,6.07936e+01
7.05635e-02,5.70015e+01
7.24306e-02,5.34319e+01
7.43470e-02,5.00723e+01
7.63142e-02,4.69110e+01
7.83334e-02,4.39369e+01
8.04060e-02,4.11396e+01
8.25334e-02,3.85092e+01
8.47172e-02,3.60361e+01
8.69587e-02,3.37117e+01
8.92595e-02,3.15274e+01
9.16213e-02,2.94754e+01
9.40455e-02,2.75480e+01
9.65338e-02,2.57383e+01
9.90880e-02,2.40395e+01
1.01710e-01,2.24453e+01
1.04401e-01,2.09496e+01
1.07163e-01,1.95467e+01
1.09999e-01,1.82314e+01
1.12909e-01,1.69984e+01
1.15897e-01,1.58431e+01
1.18963e-01,1.47608e+01
1.22111e-01,1.37473e+01
1.25342e-01,1.27986e+01
1.28658e-01,1.19107e+01
1.32062e-01,1.10801e+01
1.35556e-01,1.03034e+01
1.39143e-01,9.57737e+00
1.42825e-01,8.89890e+00
1.46604e-01,8.26513e+00
1.50483e-01,7.67335e+00
1.54464e-01,7.12100e+00
1.58551e-01,6.60565e+00
1.62746e-01,6.12501e+00
1.67052e-01,5.67694e+00
1.71472e-01,5.25940e+00
1.76009e-01,4.87048e+00
1.80666e-01,4.50836e+00
1.85447e-01,4.17134e+00
1.90353e-01,3.85783e+00
1.95390e-01,3.56630e+00
2.00560e-01,3.29534e+00
2.05866e-01,3.04361e+00
2.11313e-01,2.80984e+00
2.16904e-01,2.59286e+00
2.22644e-01,2.39155e+00
2.28534e-01,2.20487e+00
2.34581e-01,2.03183e+00
2.40788e-01,1.87150e+00
2.47159e-01,1.72302e+00
2.53699e-01,1.58559e+00
2.60411e-01,1.45843e+00
2.67301e-01,1.34083e+00
2.74374e-01,1.23212e+00
2.81634e-01,1.13168e+00
2.89085e-01,1.03892e+00
2.96734e-01,9.53291e-01
3.04585e-01,8.74281e-01
3.12644e-01,8.01409e-01
3.20917e-01,7.34230e-01
3.29408e-01,6.72326e-01
3.38124e-01,6.15308e-01
3.47070e-01,5.62812e-01
3.56253e-01,5.14500e-01
3.65679e-01,4.70058e-01
3.75355e-01,4.29193e-01
3.85286e-01,3.91632e-01
3.95480e-01,3.57122e-01
4.05944e-01,3.25428e-01
4.16685e-01,2.96331e-01
4.27710e-01,2.69629e-01
4.39027e-01,2.45135e-01
4.50643e-01,2.22673e-01
4.62567e-01,2.02083e-01
4.74806e-01,1.83215e-01
4.87369e-01,1.65932e-01
5.00264e-01,1.50105e-01
5.13500e-01,1.35618e-01
5.27087e-01,1.22360e-01
5.41033e-01,1.10232e-01
5.55348e-01,9.91404e-02
5.70042e-01,8.89999e-02
5.85125e-01,7.97317e-02
6.00607e-01,7.12631e-02
6.16498e-01,6.35275e-02
6.32810e-01,5.64633e-02
6.49554e-01,5.00139e-02
6.66740e-01,4.41274e-02
6.84381e-01,3.87559e-02
7.02489e-01,3.38556e-02
7.21076e-01,2.93863e-02
7.40155e-01,2.53109e-02
7.59739e-01,2.15955e-02
7.79841e-01,1.82092e-02
8.00475e-01,1.51234e-02
8.21655e-01,1.23119e-02
8.43395e-01,9.75099e-03
8.65710e-01,7.41868e-03
8.88616e-01,5.29497e-03
9.12128e-01,3.36154e-03
9.36261e-01,1.60166e-03
9.61034e-01,0.00000e+00
