m1=223006.371, m2=4.761, gsp=2.288, rhosp=33.770
fGW[Hz],dPh[rad]
3.26295e-03,4.08440e+03
3.29257e-03,3.94785e+03
3.32247e-03,3.81583e+03
3.35264e-03,3.68820e+03
3.38309e-03,3.56481e+03
3.41381e-03,3.44552e+03
3.44481e-03,3.33019e+03
3.47609e-03,3.21870e+03
3.50765e-03,3.11092e+03
3.53950e-03,3.00673e+03
3.57164e-03,2.90600e+03
3.60407e-03,2.80863e+03
3.63680e-03,2.71450e+03
3.66983e-03,2.62350e+03
3.70315e-03,2.53554e+03
3.73678e-03,2.45051e+03
3.77071e-03,2.36831e+03
3.80495e-03,2.28885e+03
3.83950e-03,2.21204e+03
3.87436e-03,2.13779e+03
3.90954e-03,2.06602e+03
3.94505e-03,1.99664e+03
3.98087e-03,1.92958e+03
4.01702e-03,1.86475e+03
4.05349e-03,1.80209e+03
4.09030e-03,1.74152e+03
4.12744e-03,1.68298e+03
4.16492e-03,1.62639e+03
4.20274e-03,1.57169e+03
4.24090e-03,1.51882e+03
4.27941e-03,1.46772e+03
4.31827e-03,1.41832e+03
4.35749e-03,1.37058e+03
4.39705e-03,1.32443e+03
4.43698e-03,1.27982e+03
4.47727e-03,1.23671e+03
4.51793e-03,1.19504e+03
4.55895e-03,1.15477e+03
4.60035e-03,1.11584e+03
4.64212e-03,1.07821e+03
4.68428e-03,1.04185e+03
4.72681e-03,1.00670e+03
4.76973e-03,9.72732e+02
4.81305e-03,9.39900e+02
4.85675e-03,9.08167e+02
4.90085e-03,8.77497e+02
4.94536e-03,8.47856e+02
4.99026e-03,8.19207e+02
5.03558e-03,7.91519e+02
5.08130e-03,7.64759e+02
5.12744e-03,7.38896e+02
5.17400e-03,7.13900e+02
5.22098e-03,6.89743e+02
5.26839e-03,6.66396e+02
5.31623e-03,6.43832e+02
5.36451e-03,6.22025e+02
5.41322e-03,6.00950e+02
5.46237e-03,5.80582e+02
5.51198e-03,5.60897e+02
5.56203e-03,5.41873e+02
5.61253e-03,5.23488e+02
5.66350e-03,5.05721e+02
5.71493e-03,4.88549e+02
5.76682e-03,4.71955e+02
5.81919e-03,4.55917e+02
5.87203e-03,4.40419e+02
5.92535e-03,4.25441e+02
5.97915e-03,4.10966e+02
6.03345e-03,3.96978e+02
6.08823e-03,3.83459e+02
6.14352e-03,3.70395e+02
6.19930e-03,3.57770e+02
6.25560e-03,3.45569e+02
6.31240e-03,3.33779e+02
6.36972e-03,3.22385e+02
6.42756e-03,3.11374e+02
6.48593e-03,3.00733e+02
6.54482e-03,2.90450e+02
6.60425e-03,2.80513e+02
6.66422e-03,2.70910e+02
6.72474e-03,2.61630e+02
6.78580e-03,2.52663e+02
6.84742e-03,2.43997e+02
6.90960e-03,2.35623e+02
6.97234e-03,2.27530e+02
7.03565e-03,2.19710e+02
7.09954e-03,2.12153e+02
7.16401e-03,2.04850e+02
7.22906e-03,1.97793e+02
7.29471e-03,1.90974e+02
7.36094e-03,1.84384e+02
7.42779e-03,1.78016e+02
7.49523e-03,1.71863e+02
7.56329e-03,1.65916e+02
7.63197e-03,1.60170e+02
7.70128e-03,1.54618e+02
7.77121e-03,1.49252e+02
7.84177e-03,1.44068e+02
7.91298e-03,1.39058e+02
7.98484e-03,1.34216e+02
8.05734e-03,1.29538e+02
8.13051e-03,1.25017e+02
8.20434e-03,1.20649e+02
8.27884e-03,1.16428e+02
8.35401e-03,1.12349e+02
8.42987e-03,1.08408e+02
8.50642e-03,1.04599e+02
8.58366e-03,1.00919e+02
8.66160e-03,9.73627e+01
8.74026e-03,9.39263e+01
8.81962e-03,9.06059e+01
8.89971e-03,8.73973e+01
8.98052e-03,8.42970e+01
9.06207e-03,8.13012e+01
9.14436e-03,7.84063e+01
9.22739e-03,7.56091e+01
9.31118e-03,7.29062e+01
9.39573e-03,7.02945e+01
9.48105e-03,6.77708e+01
9.56714e-03,6.53323e+01
9.65402e-03,6.29760e+01
9.74168e-03,6.06991e+01
9.83014e-03,5.84991e+01
9.91941e-03,5.63733e+01
1.00095e-02,5.43192e+01
1.01004e-02,5.23344e+01
1.01921e-02,5.04165e+01
1.02846e-02,4.85634e+01
1.03780e-02,4.67728e+01
1.04723e-02,4.50426e+01
1.05674e-02,4.33707e+01
1.06633e-02,4.17553e+01
1.07601e-02,4.01944e+01
1.08578e-02,3.86862e+01
1.09564e-02,3.72289e+01
1.10559e-02,3.58208e+01
1.11563e-02,3.44601e+01
1.12576e-02,3.31455e+01
1.13599e-02,3.18751e+01
1.14630e-02,3.06477e+01
1.15671e-02,2.94617e+01
1.16721e-02,2.83157e+01
1.17781e-02,2.72085e+01
1.18851e-02,2.61386e+01
1.19930e-02,2.51048e+01
1.21019e-02,2.41059e+01
1.22118e-02,2.31407e+01
1.23227e-02,2.22082e+01
1.24346e-02,2.13071e+01
1.25475e-02,2.04364e+01
1.26614e-02,1.95952e+01
1.27764e-02,1.87823e+01
1.28924e-02,1.79969e+01
1.30095e-02,1.72381e+01
1.31276e-02,1.65048e+01
1.32468e-02,1.57963e+01
1.33671e-02,1.51118e+01
1.34885e-02,1.44503e+01
1.36110e-02,1.38113e+01
1.37346e-02,1.31937e+01
1.38593e-02,1.25971e+01
1.39851e-02,1.20206e+01
1.41121e-02,1.14636e+01
1.42403e-02,1.09254e+01
1.43696e-02,1.04053e+01
1.45001e-02,9.90286e+00
1.46317e-02,9.41737e+00
1.47646e-02,8.94829e+00
1.48987e-02,8.49505e+00
1.50340e-02,8.05712e+00
1.51705e-02,7.63399e+00
1.53082e-02,7.22515e+00
1.54472e-02,6.83013e+00
1.55875e-02,6.44845e+00
1.57290e-02,6.07967e+00
1.58719e-02,5.72335e+00
1.60160e-02,5.37907e+00
1.61614e-02,5.04643e+00
1.63082e-02,4.72502e+00
1.64563e-02,4.41447e+00
1.66057e-02,4.11442e+00
1.67565e-02,3.82451e+00
1.69087e-02,3.54440e+00
1.70622e-02,3.27375e+00
1.72171e-02,3.01225e+00
1.73735e-02,2.75958e+00
1.75312e-02,2.51546e+00
1.76904e-02,2.27958e+00
1.78511e-02,2.05168e+00
1.80132e-02,1.83148e+00
1.81767e-02,1.61872e+00
1.83418e-02,1.41316e+00
1.85083e-02,1.21454e+00
1.86764e-02,1.02263e+00
1.88460e-02,8.37213e-01
1.90171e-02,6.58061e-01
1.91898e-02,4.84965e-01
1.93641e-02,3.17721e-01
1.95399e-02,1.56129e-01
1.97173e-02,0.00000e+00
