m1=16022.646, m2=47.786, gsp=2.464, rhosp=11.221
fGW[Hz],dPh[rad]
2.65492e-03,4.21874e+04
2.71755e-03,4.02069e+04
2.78166e-03,3.83183e+04
2.84727e-03,3.65174e+04
2.91444e-03,3.48001e+04
2.98319e-03,3.31626e+04
3.05356e-03,3.16011e+04
3.12559e-03,3.01122e+04
3.19932e-03,2.86925e+04
3.27479e-03,2.73388e+04
3.35204e-03,2.60480e+04
3.43111e-03,2.48173e+04
3.51205e-03,2.36439e+04
3.59490e-03,2.25251e+04
3.67970e-03,2.14584e+04
3.76650e-03,2.04414e+04
3.85535e-03,1.94717e+04
3.94630e-03,1.85473e+04
4.03939e-03,1.76660e+04
4.13467e-03,1.68258e+04
4.23221e-03,1.60249e+04
4.33204e-03,1.52613e+04
4.43423e-03,1.45334e+04
4.53883e-03,1.38395e+04
4.64590e-03,1.31781e+04
4.75549e-03,1.25476e+04
4.86767e-03,1.19466e+04
4.98250e-03,1.13738e+04
5.10003e-03,1.08278e+04
5.22034e-03,1.03074e+04
5.34348e-03,9.81145e+03
5.46953e-03,9.33876e+03
5.59855e-03,8.88826e+03
5.73062e-03,8.45894e+03
5.86580e-03,8.04982e+03
6.00417e-03,7.65994e+03
6.14580e-03,7.28843e+03
6.29078e-03,6.93443e+03
6.43917e-03,6.59713e+03
6.59107e-03,6.27575e+03
6.74655e-03,5.96955e+03
6.90569e-03,5.67783e+03
7.06859e-03,5.39991e+03
7.23534e-03,5.13516e+03
7.40601e-03,4.88296e+03
7.58071e-03,4.64272e+03
7.75954e-03,4.41390e+03
7.94258e-03,4.19596e+03
8.12994e-03,3.98839e+03
8.32172e-03,3.79071e+03
8.51802e-03,3.60247e+03
8.71896e-03,3.42321e+03
8.92463e-03,3.25252e+03
9.13516e-03,3.09000e+03
9.35065e-03,2.93528e+03
9.57122e-03,2.78798e+03
9.79700e-03,2.64776e+03
1.00281e-02,2.51428e+03
1.02647e-02,2.38724e+03
1.05068e-02,2.26633e+03
1.07546e-02,2.15127e+03
1.10083e-02,2.04177e+03
1.12680e-02,1.93759e+03
1.15338e-02,1.83846e+03
1.18059e-02,1.74416e+03
1.20844e-02,1.65446e+03
1.23695e-02,1.56913e+03
1.26612e-02,1.48798e+03
1.29599e-02,1.41080e+03
1.32656e-02,1.33742e+03
1.35786e-02,1.26764e+03
1.38989e-02,1.20131e+03
1.42267e-02,1.13825e+03
1.45623e-02,1.07832e+03
1.49058e-02,1.02136e+03
1.52575e-02,9.67238e+02
1.56174e-02,9.15813e+02
1.59858e-02,8.66959e+02
1.63629e-02,8.20553e+02
1.67489e-02,7.76479e+02
1.71439e-02,7.34625e+02
1.75484e-02,6.94886e+02
1.79623e-02,6.57160e+02
1.83860e-02,6.21351e+02
1.88197e-02,5.87366e+02
1.92637e-02,5.55118e+02
1.97181e-02,5.24524e+02
2.01832e-02,4.95502e+02
2.06594e-02,4.67979e+02
2.11467e-02,4.41879e+02
2.16455e-02,4.17136e+02
2.21561e-02,3.93682e+02
2.26788e-02,3.71455e+02
2.32138e-02,3.50394e+02
2.37613e-02,3.30444e+02
2.43219e-02,3.11548e+02
2.48956e-02,2.93655e+02
2.54829e-02,2.76716e+02
2.60840e-02,2.60683e+02
2.66993e-02,2.45512e+02
2.73291e-02,2.31159e+02
2.79738e-02,2.17584e+02
2.86337e-02,2.04748e+02
2.93091e-02,1.92613e+02
3.00005e-02,1.81144e+02
3.07082e-02,1.70307e+02
3.14326e-02,1.60071e+02
3.21740e-02,1.50404e+02
3.29330e-02,1.41277e+02
3.37099e-02,1.32664e+02
3.45051e-02,1.24536e+02
3.53190e-02,1.16870e+02
3.61522e-02,1.09640e+02
3.70050e-02,1.02825e+02
3.78779e-02,9.64023e+01
3.87714e-02,9.03511e+01
3.96860e-02,8.46519e+01
4.06222e-02,7.92860e+01
4.15804e-02,7.42355e+01
4.25613e-02,6.94834e+01
4.35652e-02,6.50136e+01
4.45929e-02,6.08107e+01
4.56448e-02,5.68601e+01
4.67216e-02,5.31480e+01
4.78237e-02,4.96612e+01
4.89518e-02,4.63872e+01
5.01066e-02,4.33140e+01
5.12885e-02,4.04303e+01
5.24984e-02,3.77256e+01
5.37368e-02,3.51894e+01
5.50044e-02,3.28123e+01
5.63019e-02,3.05850e+01
5.76300e-02,2.84989e+01
5.89895e-02,2.65457e+01
6.03810e-02,2.47177e+01
6.18054e-02,2.30074e+01
6.32633e-02,2.14078e+01
6.47556e-02,1.99124e+01
6.62832e-02,1.85148e+01
6.78467e-02,1.72092e+01
6.94472e-02,1.59899e+01
7.10854e-02,1.48516e+01
7.27623e-02,1.37894e+01
7.44787e-02,1.27986e+01
7.62356e-02,1.18745e+01
7.80339e-02,1.10132e+01
7.98747e-02,1.02106e+01
8.17589e-02,9.46287e+00
8.36875e-02,8.76664e+00
8.56616e-02,8.11853e+00
8.76823e-02,7.51544e+00
8.97507e-02,6.95443e+00
9.18679e-02,6.43273e+00
9.40350e-02,5.94776e+00
9.62532e-02,5.49707e+00
9.85237e-02,5.07839e+00
1.00848e-01,4.68956e+00
1.03227e-01,4.32857e+00
1.05662e-01,3.99353e+00
1.08154e-01,3.68267e+00
1.10706e-01,3.39433e+00
1.13317e-01,3.12696e+00
1.15990e-01,2.87911e+00
1.18726e-01,2.64942e+00
1.21527e-01,2.43662e+00
1.24394e-01,2.23952e+00
1.27328e-01,2.05702e+00
1.30332e-01,1.88807e+00
1.33406e-01,1.73171e+00
1.36553e-01,1.58704e+00
1.39774e-01,1.45322e+00
1.43071e-01,1.32946e+00
1.46446e-01,1.21504e+00
1.49901e-01,1.10928e+00
1.53437e-01,1.01154e+00
1.57056e-01,9.21237e-01
1.60761e-01,8.37821e-01
1.64553e-01,7.60783e-01
1.68435e-01,6.89651e-01
1.72408e-01,6.23985e-01
1.76475e-01,5.63376e-01
1.80638e-01,5.07447e-01
1.84899e-01,4.55845e-01
1.89261e-01,4.08244e-01
1.93726e-01,3.64342e-01
1.98295e-01,3.23858e-01
2.02973e-01,2.86532e-01
2.07761e-01,2.52123e-01
2.12662e-01,2.20409e-01
2.17679e-01,1.91182e-01
2.22813e-01,1.64253e-01
2.28069e-01,1.39442e-01
2.33449e-01,1.16588e-01
2.38956e-01,9.55388e-02
2.44593e-01,7.61540e-02
2.50363e-01,5.83044e-02
2.56269e-01,4.18706e-02
2.62314e-01,2.67420e-02
2.68502e-01,1.28166e-02
2.74836e-01,0.00000e+00
