m1=8755.682, m2=61.007, gsp=2.308, rhosp=129.238
fGW[Hz],dPh[rad]
2.81902e-03,2.03190e+03
2.89345e-03,1.92178e+03
2.96985e-03,1.81760e+03
3.04826e-03,1.71906e+03
3.12874e-03,1.62583e+03
3.21135e-03,1.53765e+03
3.29614e-03,1.45424e+03
3.38317e-03,1.37533e+03
3.47250e-03,1.30069e+03
3.56418e-03,1.23008e+03
3.65829e-03,1.16329e+03
3.75488e-03,1.10012e+03
3.85402e-03,1.04035e+03
3.95578e-03,9.83825e+02
4.06022e-03,9.30354e+02
4.16743e-03,8.79775e+02
4.27746e-03,8.31932e+02
4.39040e-03,7.86678e+02
4.50632e-03,7.43873e+02
4.62530e-03,7.03384e+02
4.74742e-03,6.65086e+02
4.87277e-03,6.28862e+02
5.00143e-03,5.94599e+02
5.13348e-03,5.62192e+02
5.26902e-03,5.31539e+02
5.40814e-03,5.02546e+02
5.55093e-03,4.75125e+02
5.69749e-03,4.49189e+02
5.84792e-03,4.24658e+02
6.00233e-03,4.01457e+02
6.16081e-03,3.79514e+02
6.32347e-03,3.58760e+02
6.49043e-03,3.39132e+02
6.66180e-03,3.20569e+02
6.83769e-03,3.03013e+02
7.01823e-03,2.86409e+02
7.20354e-03,2.70707e+02
7.39373e-03,2.55857e+02
7.58895e-03,2.41814e+02
7.78932e-03,2.28534e+02
7.99498e-03,2.15975e+02
8.20608e-03,2.04099e+02
8.42274e-03,1.92868e+02
8.64513e-03,1.82248e+02
8.87339e-03,1.72206e+02
9.10768e-03,1.62710e+02
9.34815e-03,1.53731e+02
9.59497e-03,1.45241e+02
9.84831e-03,1.37214e+02
1.01083e-02,1.29624e+02
1.03752e-02,1.22448e+02
1.06492e-02,1.15663e+02
1.09303e-02,1.09248e+02
1.12189e-02,1.03184e+02
1.15151e-02,9.74506e+01
1.18192e-02,9.20305e+01
1.21312e-02,8.69067e+01
1.24516e-02,8.20630e+01
1.27803e-02,7.74844e+01
1.31178e-02,7.31565e+01
1.34641e-02,6.90657e+01
1.38196e-02,6.51990e+01
1.41845e-02,6.15444e+01
1.45590e-02,5.80904e+01
1.49434e-02,5.48260e+01
1.53380e-02,5.17410e+01
1.57429e-02,4.88256e+01
1.61586e-02,4.60707e+01
1.65852e-02,4.34674e+01
1.70231e-02,4.10077e+01
1.74726e-02,3.86836e+01
1.79339e-02,3.64877e+01
1.84074e-02,3.44132e+01
1.88935e-02,3.24535e+01
1.93923e-02,3.06022e+01
1.99043e-02,2.88534e+01
2.04299e-02,2.72016e+01
2.09693e-02,2.56416e+01
2.15229e-02,2.41682e+01
2.20912e-02,2.27768e+01
2.26745e-02,2.14629e+01
2.32732e-02,2.02222e+01
2.38876e-02,1.90509e+01
2.45184e-02,1.79450e+01
2.51657e-02,1.69010e+01
2.58302e-02,1.59155e+01
2.65122e-02,1.49854e+01
2.72122e-02,1.41075e+01
2.79307e-02,1.32790e+01
2.86681e-02,1.24973e+01
2.94251e-02,1.17597e+01
3.02020e-02,1.10638e+01
3.09994e-02,1.04073e+01
3.18179e-02,9.78815e+00
3.26580e-02,9.20417e+00
3.35202e-02,8.65346e+00
3.44053e-02,8.13419e+00
3.53137e-02,7.64461e+00
3.62461e-02,7.18310e+00
3.72031e-02,6.74809e+00
3.81854e-02,6.33812e+00
3.91936e-02,5.95181e+00
4.02284e-02,5.58784e+00
4.12906e-02,5.24496e+00
4.23808e-02,4.92201e+00
4.34998e-02,4.61788e+00
4.46483e-02,4.33151e+00
4.58272e-02,4.06191e+00
4.70372e-02,3.80816e+00
4.82791e-02,3.56934e+00
4.95538e-02,3.34464e+00
5.08622e-02,3.13326e+00
5.22051e-02,2.93443e+00
5.35835e-02,2.74747e+00
5.49983e-02,2.57169e+00
5.64504e-02,2.40647e+00
5.79409e-02,2.25120e+00
5.94707e-02,2.10531e+00
6.10409e-02,1.96828e+00
6.26526e-02,1.83959e+00
6.43068e-02,1.71878e+00
6.60047e-02,1.60537e+00
6.77475e-02,1.49896e+00
6.95362e-02,1.39913e+00
7.13722e-02,1.30550e+00
7.32566e-02,1.21771e+00
7.51908e-02,1.13543e+00
7.71761e-02,1.05832e+00
7.92138e-02,9.86095e-01
8.13053e-02,9.18455e-01
8.34520e-02,8.55132e-01
8.56554e-02,7.95870e-01
8.79170e-02,7.40428e-01
9.02383e-02,6.88576e-01
9.26209e-02,6.40100e-01
9.50664e-02,5.94795e-01
9.75764e-02,5.52469e-01
1.00153e-01,5.12941e-01
1.02797e-01,4.76040e-01
1.05511e-01,4.41604e-01
1.08297e-01,4.09482e-01
1.11156e-01,3.79529e-01
1.14091e-01,3.51611e-01
1.17104e-01,3.25599e-01
1.20196e-01,3.01374e-01
1.23369e-01,2.78822e-01
1.26627e-01,2.57836e-01
1.29970e-01,2.38317e-01
1.33402e-01,2.20169e-01
1.36924e-01,2.03303e-01
1.40539e-01,1.87636e-01
1.44250e-01,1.73089e-01
1.48058e-01,1.59588e-01
1.51968e-01,1.47063e-01
1.55980e-01,1.35450e-01
1.60098e-01,1.24686e-01
1.64325e-01,1.14714e-01
1.68664e-01,1.05480e-01
1.73117e-01,9.69326e-02
1.77688e-01,8.90253e-02
1.82380e-01,8.17133e-02
1.87195e-01,7.49546e-02
1.92138e-01,6.87104e-02
1.97211e-01,6.29440e-02
2.02418e-01,5.76213e-02
2.07762e-01,5.27105e-02
2.13248e-01,4.81815e-02
2.18878e-01,4.40067e-02
2.24657e-01,4.01600e-02
2.30589e-01,3.66171e-02
2.36677e-01,3.33556e-02
2.42926e-01,3.03542e-02
2.49340e-01,2.75936e-02
2.55924e-01,2.50553e-02
2.62681e-01,2.27226e-02
2.69617e-01,2.05795e-02
2.76735e-01,1.86115e-02
2.84042e-01,1.68050e-02
2.91542e-01,1.51474e-02
2.99239e-01,1.36270e-02
3.07140e-01,1.22330e-02
3.15250e-01,1.09553e-02
3.23573e-01,9.78461e-03
3.32117e-01,8.71244e-03
3.40885e-01,7.73080e-03
3.49886e-01,6.83235e-03
3.59124e-01,6.01032e-03
3.68606e-01,5.25845e-03
3.78338e-01,4.57097e-03
3.88328e-01,3.94257e-03
3.98581e-01,3.36834e-03
4.09105e-01,2.84377e-03
4.19906e-01,2.36470e-03
4.30993e-01,1.92731e-03
4.42373e-01,1.52808e-03
4.54053e-01,1.16378e-03
4.66041e-01,8.31438e-04
4.78346e-01,5.28330e-04
4.90976e-01,2.51949e-04
5.03939e-01,0.00000e+00
