m1=1110.291, m2=3.242, gsp=2.306, rhosp=9140.252
fGW[Hz],dPh[rad]
1.41921e-02,2.91607e+04
1.45995e-02,2.74475e+04
1.50187e-02,2.58346e+04
1.54499e-02,2.43163e+04
1.58934e-02,2.28869e+04
1.63497e-02,2.15412e+04
1.68191e-02,2.02744e+04
1.73020e-02,1.90819e+04
1.77988e-02,1.79592e+04
1.83098e-02,1.69023e+04
1.88354e-02,1.59074e+04
1.93762e-02,1.49709e+04
1.99325e-02,1.40892e+04
2.05048e-02,1.32592e+04
2.10935e-02,1.24779e+04
2.16991e-02,1.17425e+04
2.23220e-02,1.10501e+04
2.29629e-02,1.03984e+04
2.36222e-02,9.78492e+03
2.43004e-02,9.20744e+03
2.49980e-02,8.66384e+03
2.57157e-02,8.15216e+03
2.64540e-02,7.67051e+03
2.72135e-02,7.21714e+03
2.79948e-02,6.79040e+03
2.87986e-02,6.38872e+03
2.96254e-02,6.01063e+03
3.04759e-02,5.65477e+03
3.13509e-02,5.31981e+03
3.22510e-02,5.00454e+03
3.31769e-02,4.70780e+03
3.41294e-02,4.42852e+03
3.51093e-02,4.16566e+03
3.61173e-02,3.91827e+03
3.71542e-02,3.68543e+03
3.82209e-02,3.46630e+03
3.93183e-02,3.26006e+03
4.04471e-02,3.06598e+03
4.16083e-02,2.88333e+03
4.28029e-02,2.71144e+03
4.40318e-02,2.54968e+03
4.52959e-02,2.39746e+03
4.65964e-02,2.25422e+03
4.79342e-02,2.11943e+03
4.93104e-02,1.99259e+03
5.07261e-02,1.87325e+03
5.21824e-02,1.76096e+03
5.36806e-02,1.65530e+03
5.52218e-02,1.55589e+03
5.68072e-02,1.46236e+03
5.84382e-02,1.37436e+03
6.01159e-02,1.29158e+03
6.18419e-02,1.21369e+03
6.36174e-02,1.14043e+03
6.54438e-02,1.07150e+03
6.73227e-02,1.00667e+03
6.92556e-02,9.45688e+02
7.12439e-02,8.88328e+02
7.32893e-02,8.34376e+02
7.53935e-02,7.83634e+02
7.75580e-02,7.35913e+02
7.97847e-02,6.91033e+02
8.20754e-02,6.48830e+02
8.44318e-02,6.09144e+02
8.68558e-02,5.71827e+02
8.93494e-02,5.36740e+02
9.19147e-02,5.03752e+02
9.45536e-02,4.72739e+02
9.72682e-02,4.43584e+02
1.00061e-01,4.16177e+02
1.02934e-01,3.90416e+02
1.05889e-01,3.66203e+02
1.08929e-01,3.43448e+02
1.12056e-01,3.22062e+02
1.15273e-01,3.01967e+02
1.18583e-01,2.83085e+02
1.21987e-01,2.65345e+02
1.25490e-01,2.48678e+02
1.29093e-01,2.33022e+02
1.32799e-01,2.18317e+02
1.36611e-01,2.04506e+02
1.40534e-01,1.91535e+02
1.44568e-01,1.79356e+02
1.48719e-01,1.67921e+02
1.52989e-01,1.57186e+02
1.57381e-01,1.47108e+02
1.61899e-01,1.37650e+02
1.66548e-01,1.28774e+02
1.71329e-01,1.20445e+02
1.76248e-01,1.12630e+02
1.81308e-01,1.05300e+02
1.86514e-01,9.84239e+01
1.91868e-01,9.19757e+01
1.97377e-01,8.59296e+01
2.03044e-01,8.02612e+01
2.08873e-01,7.49479e+01
2.14870e-01,6.99684e+01
2.21039e-01,6.53024e+01
2.27385e-01,6.09311e+01
2.33913e-01,5.68366e+01
2.40629e-01,5.30022e+01
2.47537e-01,4.94120e+01
2.54644e-01,4.60513e+01
2.61955e-01,4.29061e+01
2.69476e-01,3.99632e+01
2.77212e-01,3.72103e+01
2.85171e-01,3.46357e+01
2.93359e-01,3.22284e+01
3.01781e-01,2.99783e+01
3.10445e-01,2.78756e+01
3.19358e-01,2.59111e+01
3.28527e-01,2.40764e+01
3.37959e-01,2.23633e+01
3.47662e-01,2.07642e+01
3.57643e-01,1.92721e+01
3.67911e-01,1.78803e+01
3.78474e-01,1.65824e+01
3.89340e-01,1.53724e+01
4.00518e-01,1.42449e+01
4.12017e-01,1.31946e+01
4.23846e-01,1.22166e+01
4.36015e-01,1.13061e+01
4.48533e-01,1.04590e+01
4.61410e-01,9.67104e+00
4.74657e-01,8.93844e+00
4.88285e-01,8.25759e+00
5.02304e-01,7.62509e+00
5.16725e-01,7.03777e+00
5.31560e-01,6.49264e+00
5.46821e-01,5.98689e+00
5.62521e-01,5.51789e+00
5.78671e-01,5.08318e+00
5.95284e-01,4.68044e+00
6.12375e-01,4.30749e+00
6.29956e-01,3.96230e+00
6.48042e-01,3.64296e+00
6.66648e-01,3.34768e+00
6.85787e-01,3.07479e+00
7.05476e-01,2.82272e+00
7.25731e-01,2.58999e+00
7.46567e-01,2.37525e+00
7.68001e-01,2.17720e+00
7.90050e-01,1.99463e+00
8.12733e-01,1.82644e+00
8.36066e-01,1.67157e+00
8.60070e-01,1.52904e+00
8.84763e-01,1.39794e+00
9.10164e-01,1.27742e+00
9.36295e-01,1.16668e+00
9.63176e-01,1.06498e+00
9.90829e-01,9.71644e-01
1.01928e+00,8.86021e-01
1.04854e+00,8.07518e-01
1.07864e+00,7.35581e-01
1.10961e+00,6.69695e-01
1.14147e+00,6.09383e-01
1.17424e+00,5.54203e-01
1.20795e+00,5.03744e-01
1.24263e+00,4.57625e-01
1.27831e+00,4.15495e-01
1.31501e+00,3.77028e-01
1.35276e+00,3.41922e-01
1.39160e+00,3.09900e-01
1.43156e+00,2.80704e-01
1.47266e+00,2.54098e-01
1.51494e+00,2.29863e-01
1.55843e+00,2.07798e-01
1.60317e+00,1.87718e-01
1.64920e+00,1.69451e-01
1.69655e+00,1.52842e-01
1.74526e+00,1.37746e-01
1.79536e+00,1.24032e-01
1.84691e+00,1.11577e-01
1.89993e+00,1.00270e-01
1.95448e+00,9.00097e-02
2.01059e+00,8.07024e-02
2.06832e+00,7.22628e-02
2.12770e+00,6.46125e-02
2.18879e+00,5.76802e-02
2.25163e+00,5.14005e-02
2.31627e+00,4.57139e-02
2.38277e+00,4.05659e-02
2.45118e+00,3.59070e-02
2.52156e+00,3.16919e-02
2.59395e+00,2.78794e-02
2.66842e+00,2.44321e-02
2.74503e+00,2.13157e-02
2.82384e+00,1.84993e-02
2.90492e+00,1.59547e-02
2.98832e+00,1.36560e-02
3.07411e+00,1.15801e-02
3.16237e+00,9.70579e-03
3.25316e+00,8.01385e-03
3.34656e+00,6.48685e-03
3.44264e+00,5.10899e-03
3.54148e+00,3.86595e-03
3.64316e+00,2.74475e-03
3.74775e+00,1.73362e-03
3.85535e+00,8.21915e-04
3.96604e+00,0.00000e+00
