m1=21437.601, m2=89.973, gsp=2.256, rhosp=235.074
fGW[Hz],dPh[rad]
1.94739e-03,1.19791e+03
1.99352e-03,1.13801e+03
2.04074e-03,1.08108e+03
2.08909e-03,1.02698e+03
2.13858e-03,9.75569e+02
2.18924e-03,9.26708e+02
2.24110e-03,8.80273e+02
2.29419e-03,8.36144e+02
2.34853e-03,7.94208e+02
2.40417e-03,7.54356e+02
2.46112e-03,7.16485e+02
2.51942e-03,6.80496e+02
2.57911e-03,6.46297e+02
2.64020e-03,6.13799e+02
2.70275e-03,5.82918e+02
2.76677e-03,5.53573e+02
2.83231e-03,5.25690e+02
2.89941e-03,4.99194e+02
2.96809e-03,4.74018e+02
3.03840e-03,4.50097e+02
3.11038e-03,4.27367e+02
3.18406e-03,4.05771e+02
3.25949e-03,3.85251e+02
3.33670e-03,3.65755e+02
3.41575e-03,3.47232e+02
3.49666e-03,3.29634e+02
3.57949e-03,3.12914e+02
3.66429e-03,2.97030e+02
3.75109e-03,2.81940e+02
3.83995e-03,2.67603e+02
3.93092e-03,2.53985e+02
4.02404e-03,2.41047e+02
4.11936e-03,2.28757e+02
4.21695e-03,2.17083e+02
4.31684e-03,2.05994e+02
4.41910e-03,1.95460e+02
4.52379e-03,1.85455e+02
4.63095e-03,1.75953e+02
4.74065e-03,1.66927e+02
4.85296e-03,1.58355e+02
4.96792e-03,1.50214e+02
5.08560e-03,1.42482e+02
5.20608e-03,1.35139e+02
5.32940e-03,1.28167e+02
5.45565e-03,1.21545e+02
5.58489e-03,1.15258e+02
5.71719e-03,1.09288e+02
5.85263e-03,1.03620e+02
5.99127e-03,9.82376e+01
6.13320e-03,9.31279e+01
6.27849e-03,8.82769e+01
6.42722e-03,8.36717e+01
6.57947e-03,7.93000e+01
6.73533e-03,7.51502e+01
6.89489e-03,7.12112e+01
7.05822e-03,6.74725e+01
7.22542e-03,6.39241e+01
7.39658e-03,6.05565e+01
7.57180e-03,5.73606e+01
7.75117e-03,5.43280e+01
7.93479e-03,5.14503e+01
8.12276e-03,4.87199e+01
8.31518e-03,4.61294e+01
8.51215e-03,4.36717e+01
8.71380e-03,4.13402e+01
8.92022e-03,3.91287e+01
9.13153e-03,3.70310e+01
9.34785e-03,3.50414e+01
9.56929e-03,3.31546e+01
9.79598e-03,3.13654e+01
1.00280e-02,2.96687e+01
1.02656e-02,2.80601e+01
1.05088e-02,2.65350e+01
1.07577e-02,2.50893e+01
1.10126e-02,2.37189e+01
1.12734e-02,2.24200e+01
1.15405e-02,2.11891e+01
1.18139e-02,2.00226e+01
1.20937e-02,1.89174e+01
1.23802e-02,1.78703e+01
1.26735e-02,1.68783e+01
1.29737e-02,1.59388e+01
1.32810e-02,1.50489e+01
1.35957e-02,1.42062e+01
1.39177e-02,1.34083e+01
1.42474e-02,1.26528e+01
1.45849e-02,1.19377e+01
1.49304e-02,1.12609e+01
1.52841e-02,1.06203e+01
1.56462e-02,1.00142e+01
1.60168e-02,9.44079e+00
1.63963e-02,8.89835e+00
1.67847e-02,8.38530e+00
1.71823e-02,7.90013e+00
1.75893e-02,7.44140e+00
1.80060e-02,7.00774e+00
1.84325e-02,6.59786e+00
1.88692e-02,6.21050e+00
1.93162e-02,5.84451e+00
1.97738e-02,5.49877e+00
2.02422e-02,5.17222e+00
2.07217e-02,4.86385e+00
2.12126e-02,4.57272e+00
2.17151e-02,4.29791e+00
2.22295e-02,4.03856e+00
2.27561e-02,3.79386e+00
2.32951e-02,3.56303e+00
2.38470e-02,3.34533e+00
2.44119e-02,3.14006e+00
2.49902e-02,2.94656e+00
2.55822e-02,2.76420e+00
2.61882e-02,2.59237e+00
2.68086e-02,2.43052e+00
2.74436e-02,2.27810e+00
2.80938e-02,2.13459e+00
2.87593e-02,1.99952e+00
2.94406e-02,1.87242e+00
3.01380e-02,1.75285e+00
3.08519e-02,1.64041e+00
3.15828e-02,1.53469e+00
3.23309e-02,1.43532e+00
3.30968e-02,1.34195e+00
3.38808e-02,1.25425e+00
3.46835e-02,1.17188e+00
3.55051e-02,1.09457e+00
3.63461e-02,1.02201e+00
3.72072e-02,9.53933e-01
3.80886e-02,8.90089e-01
3.89908e-02,8.30232e-01
3.99145e-02,7.74131e-01
4.08600e-02,7.21568e-01
4.18280e-02,6.72337e-01
4.28188e-02,6.26242e-01
4.38332e-02,5.83100e-01
4.48715e-02,5.42734e-01
4.59345e-02,5.04979e-01
4.70226e-02,4.69679e-01
4.81365e-02,4.36687e-01
4.92769e-02,4.05862e-01
5.04442e-02,3.77072e-01
5.16392e-02,3.50193e-01
5.28624e-02,3.25108e-01
5.41147e-02,3.01704e-01
5.53966e-02,2.79878e-01
5.67089e-02,2.59531e-01
5.80523e-02,2.40569e-01
5.94275e-02,2.22904e-01
6.08353e-02,2.06454e-01
6.22764e-02,1.91141e-01
6.37517e-02,1.76892e-01
6.52619e-02,1.63637e-01
6.68079e-02,1.51311e-01
6.83905e-02,1.39854e-01
7.00106e-02,1.29209e-01
7.16691e-02,1.19321e-01
7.33668e-02,1.10139e-01
7.51048e-02,1.01617e-01
7.68840e-02,9.37093e-02
7.87053e-02,8.63747e-02
8.05697e-02,7.95738e-02
8.24784e-02,7.32699e-02
8.44322e-02,6.74288e-02
8.64323e-02,6.20183e-02
8.84798e-02,5.70082e-02
9.05758e-02,5.23705e-02
9.27215e-02,4.80789e-02
9.49179e-02,4.41088e-02
9.71665e-02,4.04372e-02
9.94682e-02,3.70428e-02
1.01825e-01,3.39056e-02
1.04237e-01,3.10070e-02
1.06706e-01,2.83296e-02
1.09234e-01,2.58573e-02
1.11821e-01,2.35749e-02
1.14470e-01,2.14686e-02
1.17182e-01,1.95251e-02
1.19958e-01,1.77325e-02
1.22800e-01,1.60794e-02
1.25709e-01,1.45554e-02
1.28686e-01,1.31507e-02
1.31735e-01,1.18564e-02
1.34856e-01,1.06640e-02
1.38050e-01,9.56576e-03
1.41320e-01,8.55448e-03
1.44668e-01,7.62349e-03
1.48095e-01,6.76661e-03
1.51604e-01,5.97808e-03
1.55195e-01,5.25263e-03
1.58871e-01,4.58532e-03
1.62635e-01,3.97164e-03
1.66487e-01,3.40736e-03
1.70431e-01,2.88862e-03
1.74469e-01,2.41182e-03
1.78602e-01,1.97366e-03
1.82833e-01,1.57106e-03
1.87164e-01,1.20120e-03
1.91597e-01,8.61485e-04
1.96136e-01,5.49496e-04
2.00782e-01,2.63017e-04
2.05539e-01,0.00000e+00
