m1=77251.592, m2=9.087, gsp=2.387, rhosp=8597.783
fGW[Hz],dPh[rad]
3.33762e-03,2.32335e+05
3.38553e-03,2.22092e+05
3.43413e-03,2.12276e+05
3.48343e-03,2.02870e+05
3.53344e-03,1.93859e+05
3.58416e-03,1.85227e+05
3.63561e-03,1.76959e+05
3.68780e-03,1.69041e+05
3.74074e-03,1.61460e+05
3.79444e-03,1.54201e+05
3.84891e-03,1.47252e+05
3.90417e-03,1.40601e+05
3.96021e-03,1.34236e+05
4.01706e-03,1.28145e+05
4.07473e-03,1.22317e+05
4.13322e-03,1.16742e+05
4.19256e-03,1.11409e+05
4.25274e-03,1.06308e+05
4.31379e-03,1.01431e+05
4.37572e-03,9.67675e+04
4.43854e-03,9.23089e+04
4.50225e-03,8.80468e+04
4.56688e-03,8.39731e+04
4.63244e-03,8.00800e+04
4.69895e-03,7.63599e+04
4.76640e-03,7.28055e+04
4.83482e-03,6.94098e+04
4.90423e-03,6.61663e+04
4.97463e-03,6.30684e+04
5.04605e-03,6.01099e+04
5.11848e-03,5.72849e+04
5.19196e-03,5.45878e+04
5.26649e-03,5.20129e+04
5.34210e-03,4.95551e+04
5.41879e-03,4.72093e+04
5.49657e-03,4.49706e+04
5.57548e-03,4.28344e+04
5.65552e-03,4.07962e+04
5.73671e-03,3.88517e+04
5.81906e-03,3.69969e+04
5.90259e-03,3.52277e+04
5.98733e-03,3.35405e+04
6.07328e-03,3.19315e+04
6.16046e-03,3.03973e+04
6.24890e-03,2.89345e+04
6.33861e-03,2.75401e+04
6.42960e-03,2.62109e+04
6.52190e-03,2.49440e+04
6.61552e-03,2.37366e+04
6.71049e-03,2.25860e+04
6.80682e-03,2.14896e+04
6.90454e-03,2.04450e+04
7.00366e-03,1.94499e+04
7.10420e-03,1.85019e+04
7.20618e-03,1.75989e+04
7.30963e-03,1.67389e+04
7.41456e-03,1.59199e+04
7.52100e-03,1.51400e+04
7.62897e-03,1.43973e+04
7.73849e-03,1.36903e+04
7.84958e-03,1.30171e+04
7.96226e-03,1.23764e+04
8.07656e-03,1.17664e+04
8.19250e-03,1.11858e+04
8.31011e-03,1.06333e+04
8.42941e-03,1.01075e+04
8.55041e-03,9.60715e+03
8.67316e-03,9.13105e+03
8.79767e-03,8.67807e+03
8.92396e-03,8.24712e+03
9.05207e-03,7.83715e+03
9.18201e-03,7.44716e+03
9.31383e-03,7.07622e+03
9.44753e-03,6.72341e+03
9.58315e-03,6.38786e+03
9.72072e-03,6.06876e+03
9.86027e-03,5.76532e+03
1.00018e-02,5.47678e+03
1.01454e-02,5.20243e+03
1.02910e-02,4.94159e+03
1.04388e-02,4.69361e+03
1.05886e-02,4.45787e+03
1.07406e-02,4.23377e+03
1.08948e-02,4.02076e+03
1.10512e-02,3.81829e+03
1.12099e-02,3.62586e+03
1.13708e-02,3.44297e+03
1.15340e-02,3.26916e+03
1.16996e-02,3.10400e+03
1.18675e-02,2.94705e+03
1.20379e-02,2.79791e+03
1.22107e-02,2.65622e+03
1.23860e-02,2.52159e+03
1.25638e-02,2.39368e+03
1.27442e-02,2.27216e+03
1.29271e-02,2.15673e+03
1.31127e-02,2.04707e+03
1.33009e-02,1.94290e+03
1.34919e-02,1.84396e+03
1.36856e-02,1.74998e+03
1.38820e-02,1.66073e+03
1.40813e-02,1.57595e+03
1.42834e-02,1.49545e+03
1.44885e-02,1.41899e+03
1.46965e-02,1.34638e+03
1.49075e-02,1.27743e+03
1.51215e-02,1.21196e+03
1.53385e-02,1.14980e+03
1.55587e-02,1.09077e+03
1.57821e-02,1.03473e+03
1.60086e-02,9.81514e+02
1.62384e-02,9.30995e+02
1.64716e-02,8.83033e+02
1.67080e-02,8.37500e+02
1.69479e-02,7.94275e+02
1.71912e-02,7.53241e+02
1.74379e-02,7.14289e+02
1.76883e-02,6.77315e+02
1.79422e-02,6.42218e+02
1.81998e-02,6.08904e+02
1.84610e-02,5.77284e+02
1.87260e-02,5.47272e+02
1.89949e-02,5.18787e+02
1.92675e-02,4.91753e+02
1.95441e-02,4.66095e+02
1.98247e-02,4.41745e+02
2.01093e-02,4.18636e+02
2.03980e-02,3.96705e+02
2.06908e-02,3.75894e+02
2.09878e-02,3.56145e+02
2.12891e-02,3.37404e+02
2.15947e-02,3.19620e+02
2.19047e-02,3.02745e+02
2.22192e-02,2.86733e+02
2.25381e-02,2.71540e+02
2.28617e-02,2.57124e+02
2.31899e-02,2.43445e+02
2.35228e-02,2.30467e+02
2.38605e-02,2.18153e+02
2.42030e-02,2.06470e+02
2.45504e-02,1.95386e+02
2.49029e-02,1.84870e+02
2.52604e-02,1.74893e+02
2.56230e-02,1.65428e+02
2.59908e-02,1.56448e+02
2.63639e-02,1.47930e+02
2.67424e-02,1.39848e+02
2.71263e-02,1.32182e+02
2.75157e-02,1.24909e+02
2.79107e-02,1.18010e+02
2.83114e-02,1.11465e+02
2.87178e-02,1.05257e+02
2.91300e-02,9.93676e+01
2.95482e-02,9.37813e+01
2.99724e-02,8.84824e+01
3.04027e-02,8.34560e+01
3.08391e-02,7.86883e+01
3.12818e-02,7.41660e+01
3.17309e-02,6.98766e+01
3.21864e-02,6.58079e+01
3.26484e-02,6.19488e+01
3.31171e-02,5.82885e+01
3.35925e-02,5.48168e+01
3.40748e-02,5.15240e+01
3.45639e-02,4.84009e+01
3.50601e-02,4.54388e+01
3.55634e-02,4.26294e+01
3.60739e-02,3.99649e+01
3.65918e-02,3.74378e+01
3.71171e-02,3.50411e+01
3.76499e-02,3.27680e+01
3.81904e-02,3.06122e+01
3.87386e-02,2.85677e+01
3.92947e-02,2.66287e+01
3.98588e-02,2.47898e+01
4.04310e-02,2.30458e+01
4.10114e-02,2.13919e+01
4.16002e-02,1.98234e+01
4.21974e-02,1.83359e+01
4.28031e-02,1.69253e+01
4.34176e-02,1.55876e+01
4.40409e-02,1.43189e+01
4.46731e-02,1.31159e+01
4.53144e-02,1.19750e+01
4.59649e-02,1.08931e+01
4.66247e-02,9.86709e+00
4.72941e-02,8.89416e+00
4.79730e-02,7.97153e+00
4.86617e-02,7.09661e+00
4.93602e-02,6.26695e+00
5.00688e-02,5.48019e+00
5.07876e-02,4.73414e+00
5.15166e-02,4.02667e+00
5.22562e-02,3.35582e+00
5.30063e-02,2.71967e+00
5.37673e-02,2.11644e+00
5.45391e-02,1.54444e+00
5.53221e-02,1.00203e+00
5.61162e-02,4.87704e-01
5.69218e-02,0.00000e+00
