m1=1174.019, m2=5.465, gsp=2.091, rhosp=29.559
fGW[Hz],dPh[rad]
1.15093e-02,6.94985e+01
1.18490e-02,6.50437e+01
1.21986e-02,6.08741e+01
1.25586e-02,5.69714e+01
1.29292e-02,5.33184e+01
1.33107e-02,4.98994e+01
1.37035e-02,4.66992e+01
1.41079e-02,4.37039e+01
1.45242e-02,4.09004e+01
1.49528e-02,3.82764e+01
1.53941e-02,3.58204e+01
1.58483e-02,3.35216e+01
1.63160e-02,3.13701e+01
1.67975e-02,2.93564e+01
1.72932e-02,2.74717e+01
1.78035e-02,2.57076e+01
1.83289e-02,2.40566e+01
1.88697e-02,2.25113e+01
1.94266e-02,2.10650e+01
1.99998e-02,1.97114e+01
2.05900e-02,1.84445e+01
2.11976e-02,1.72588e+01
2.18232e-02,1.61491e+01
2.24672e-02,1.51105e+01
2.31302e-02,1.41385e+01
2.38127e-02,1.32288e+01
2.45154e-02,1.23774e+01
2.52389e-02,1.15806e+01
2.59836e-02,1.08349e+01
2.67504e-02,1.01371e+01
2.75398e-02,9.48394e+00
2.83525e-02,8.87272e+00
2.91892e-02,8.30071e+00
3.00505e-02,7.76541e+00
3.09373e-02,7.26446e+00
3.18502e-02,6.79566e+00
3.27901e-02,6.35696e+00
3.37577e-02,5.94643e+00
3.47539e-02,5.56226e+00
3.57795e-02,5.20276e+00
3.68353e-02,4.86635e+00
3.79223e-02,4.55156e+00
3.90414e-02,4.25700e+00
4.01935e-02,3.98138e+00
4.13796e-02,3.72347e+00
4.26007e-02,3.48215e+00
4.38578e-02,3.25636e+00
4.51520e-02,3.04509e+00
4.64844e-02,2.84741e+00
4.78562e-02,2.66246e+00
4.92684e-02,2.48942e+00
5.07223e-02,2.32753e+00
5.22191e-02,2.17606e+00
5.37600e-02,2.03436e+00
5.53465e-02,1.90179e+00
5.69797e-02,1.77777e+00
5.86611e-02,1.66176e+00
6.03922e-02,1.55323e+00
6.21744e-02,1.45170e+00
6.40091e-02,1.35674e+00
6.58980e-02,1.26791e+00
6.78426e-02,1.18482e+00
6.98446e-02,1.10711e+00
7.19057e-02,1.03443e+00
7.40276e-02,9.66447e-01
7.62121e-02,9.02871e-01
7.84611e-02,8.43415e-01
8.07764e-02,7.87813e-01
8.31601e-02,7.35819e-01
8.56141e-02,6.87200e-01
8.81405e-02,6.41740e-01
9.07415e-02,5.99234e-01
9.34193e-02,5.59493e-01
9.61760e-02,5.22338e-01
9.90141e-02,4.87604e-01
1.01936e-01,4.55134e-01
1.04944e-01,4.24782e-01
1.08041e-01,3.96411e-01
1.11229e-01,3.69895e-01
1.14512e-01,3.45112e-01
1.17891e-01,3.21952e-01
1.21370e-01,3.00310e-01
1.24951e-01,2.80087e-01
1.28638e-01,2.61192e-01
1.32434e-01,2.43539e-01
1.36343e-01,2.27048e-01
1.40366e-01,2.11643e-01
1.44508e-01,1.97254e-01
1.48772e-01,1.83815e-01
1.53163e-01,1.71265e-01
1.57682e-01,1.59546e-01
1.62336e-01,1.48604e-01
1.67126e-01,1.38388e-01
1.72058e-01,1.28852e-01
1.77135e-01,1.19951e-01
1.82362e-01,1.11644e-01
1.87744e-01,1.03892e-01
1.93284e-01,9.66589e-02
1.98988e-01,8.99108e-02
2.04860e-01,8.36161e-02
2.10905e-01,7.77452e-02
2.17129e-01,7.22702e-02
2.23536e-01,6.71653e-02
2.30133e-01,6.24062e-02
2.36924e-01,5.79701e-02
2.43915e-01,5.38359e-02
2.51113e-01,4.99836e-02
2.58523e-01,4.63947e-02
2.66152e-01,4.30518e-02
2.74006e-01,3.99387e-02
2.82092e-01,3.70400e-02
2.90416e-01,3.43416e-02
2.98986e-01,3.18303e-02
3.07809e-01,2.94935e-02
3.16893e-01,2.73196e-02
3.26244e-01,2.52977e-02
3.35871e-01,2.34177e-02
3.45783e-01,2.16701e-02
3.55987e-01,2.00459e-02
3.66492e-01,1.85369e-02
3.77307e-01,1.71352e-02
3.88441e-01,1.58337e-02
3.99903e-01,1.46255e-02
4.11704e-01,1.35042e-02
4.23854e-01,1.24640e-02
4.36361e-01,1.14993e-02
4.49238e-01,1.06049e-02
4.62495e-01,9.77593e-03
4.76143e-01,9.00795e-03
4.90194e-01,8.29671e-03
5.04659e-01,7.63825e-03
5.19551e-01,7.02889e-03
5.34883e-01,6.46520e-03
5.50667e-01,5.94395e-03
5.66917e-01,5.46216e-03
5.83647e-01,5.01702e-03
6.00870e-01,4.60593e-03
6.18601e-01,4.22644e-03
6.36856e-01,3.87629e-03
6.55649e-01,3.55335e-03
6.74997e-01,3.25566e-03
6.94916e-01,2.98137e-03
7.15423e-01,2.72876e-03
7.36534e-01,2.49623e-03
7.58269e-01,2.28230e-03
7.80645e-01,2.08558e-03
8.03682e-01,1.90477e-03
8.27398e-01,1.73868e-03
8.51814e-01,1.58619e-03
8.76951e-01,1.44627e-03
9.02829e-01,1.31794e-03
9.29471e-01,1.20031e-03
9.56900e-01,1.09254e-03
9.85137e-01,9.93874e-04
1.01421e+00,9.03581e-04
1.04414e+00,8.21001e-04
1.07495e+00,7.45516e-04
1.10667e+00,6.76557e-04
1.13933e+00,6.13594e-04
1.17295e+00,5.56139e-04
1.20756e+00,5.03739e-04
1.24320e+00,4.55977e-04
1.27988e+00,4.12466e-04
1.31765e+00,3.72851e-04
1.35653e+00,3.36801e-04
1.39657e+00,3.04016e-04
1.43778e+00,2.74215e-04
1.48021e+00,2.47141e-04
1.52389e+00,2.22558e-04
1.56885e+00,2.00250e-04
1.61515e+00,1.80015e-04
1.66281e+00,1.61671e-04
1.71188e+00,1.45049e-04
1.76240e+00,1.29996e-04
1.81441e+00,1.16370e-04
1.86795e+00,1.04042e-04
1.92307e+00,9.28930e-05
1.97982e+00,8.28158e-05
2.03824e+00,7.37112e-05
2.09839e+00,6.54891e-05
2.16031e+00,5.80672e-05
2.22406e+00,5.13705e-05
2.28969e+00,4.53307e-05
2.35726e+00,3.98855e-05
2.42682e+00,3.49784e-05
2.49844e+00,3.05580e-05
2.57217e+00,2.65774e-05
2.64807e+00,2.29942e-05
2.72621e+00,1.97699e-05
2.80666e+00,1.68696e-05
2.88949e+00,1.42615e-05
2.97475e+00,1.19171e-05
3.06254e+00,9.81021e-06
3.15291e+00,7.91747e-06
3.24595e+00,6.21760e-06
3.34174e+00,4.69136e-06
3.44035e+00,3.32141e-06
3.54187e+00,2.09207e-06
3.64639e+00,9.89183e-07
3.75400e+00,0.00000e+00
