m1=3105.024, m2=12.822, gsp=2.283, rhosp=31.376
fGW[Hz],dPh[rad]
6.55446e-03,2.39172e+03
6.73399e-03,2.25638e+03
6.91845e-03,2.12868e+03
7.10795e-03,2.00817e+03
7.30265e-03,1.89447e+03
7.50268e-03,1.78718e+03
7.70819e-03,1.68595e+03
7.91933e-03,1.59043e+03
8.13625e-03,1.50030e+03
8.35911e-03,1.41525e+03
8.58808e-03,1.33501e+03
8.82332e-03,1.25930e+03
9.06501e-03,1.18786e+03
9.31331e-03,1.12045e+03
9.56842e-03,1.05685e+03
9.83051e-03,9.96846e+02
1.00998e-02,9.40228e+02
1.03764e-02,8.86809e+02
1.06607e-02,8.36408e+02
1.09527e-02,7.88855e+02
1.12527e-02,7.43990e+02
1.15609e-02,7.01660e+02
1.18776e-02,6.61724e+02
1.22029e-02,6.24045e+02
1.25372e-02,5.88497e+02
1.28806e-02,5.54960e+02
1.32334e-02,5.23320e+02
1.35959e-02,4.93471e+02
1.39683e-02,4.65310e+02
1.43509e-02,4.38744e+02
1.47440e-02,4.13682e+02
1.51479e-02,3.90039e+02
1.55628e-02,3.67735e+02
1.59891e-02,3.46695e+02
1.64270e-02,3.26847e+02
1.68770e-02,3.08125e+02
1.73393e-02,2.90464e+02
1.78142e-02,2.73804e+02
1.83022e-02,2.58090e+02
1.88035e-02,2.43267e+02
1.93186e-02,2.29286e+02
1.98477e-02,2.16099e+02
2.03914e-02,2.03661e+02
2.09499e-02,1.91930e+02
2.15238e-02,1.80866e+02
2.21133e-02,1.70430e+02
2.27191e-02,1.60589e+02
2.33414e-02,1.51308e+02
2.39807e-02,1.42555e+02
2.46376e-02,1.34300e+02
2.53124e-02,1.26517e+02
2.60058e-02,1.19176e+02
2.67181e-02,1.12255e+02
2.74500e-02,1.05729e+02
2.82019e-02,9.95751e+01
2.89744e-02,9.37731e+01
2.97680e-02,8.83027e+01
3.05834e-02,8.31453e+01
3.14211e-02,7.82831e+01
3.22818e-02,7.36994e+01
3.31660e-02,6.93784e+01
3.40745e-02,6.53052e+01
3.50079e-02,6.14658e+01
3.59668e-02,5.78469e+01
3.69520e-02,5.44361e+01
3.79641e-02,5.12215e+01
3.90040e-02,4.81919e+01
4.00724e-02,4.53370e+01
4.11700e-02,4.26467e+01
4.22977e-02,4.01118e+01
4.34563e-02,3.77233e+01
4.46467e-02,3.54730e+01
4.58696e-02,3.33530e+01
4.71260e-02,3.13559e+01
4.84169e-02,2.94747e+01
4.97431e-02,2.77028e+01
5.11056e-02,2.60340e+01
5.25055e-02,2.44624e+01
5.39437e-02,2.29824e+01
5.54213e-02,2.15888e+01
5.69394e-02,2.02768e+01
5.84990e-02,1.90415e+01
6.01014e-02,1.78788e+01
6.17477e-02,1.67843e+01
6.34390e-02,1.57542e+01
6.51767e-02,1.47848e+01
6.69620e-02,1.38726e+01
6.87962e-02,1.30143e+01
7.06806e-02,1.22069e+01
7.26166e-02,1.14475e+01
7.46057e-02,1.07331e+01
7.66493e-02,1.00614e+01
7.87488e-02,9.42972e+00
8.09059e-02,8.83586e+00
8.31220e-02,8.27762e+00
8.53988e-02,7.75292e+00
8.77380e-02,7.25984e+00
9.01413e-02,6.79653e+00
9.26104e-02,6.36128e+00
9.51471e-02,5.95245e+00
9.77533e-02,5.56849e+00
1.00431e-01,5.20798e+00
1.03182e-01,4.86952e+00
1.06008e-01,4.55184e+00
1.08912e-01,4.25372e+00
1.11895e-01,3.97402e+00
1.14960e-01,3.71164e+00
1.18109e-01,3.46556e+00
1.21344e-01,3.23484e+00
1.24668e-01,3.01855e+00
1.28083e-01,2.81585e+00
1.31591e-01,2.62593e+00
1.35196e-01,2.44802e+00
1.38899e-01,2.28141e+00
1.42704e-01,2.12542e+00
1.46612e-01,1.97942e+00
1.50628e-01,1.84280e+00
1.54754e-01,1.71501e+00
1.58993e-01,1.59550e+00
1.63348e-01,1.48377e+00
1.67823e-01,1.37934e+00
1.72420e-01,1.28178e+00
1.77142e-01,1.19067e+00
1.81995e-01,1.10559e+00
1.86980e-01,1.02619e+00
1.92101e-01,9.52101e-01
1.97363e-01,8.83004e-01
2.02769e-01,8.18582e-01
2.08323e-01,7.58543e-01
2.14030e-01,7.02609e-01
2.19892e-01,6.50520e-01
2.25915e-01,6.02032e-01
2.32104e-01,5.56913e-01
2.38461e-01,5.14948e-01
2.44993e-01,4.75932e-01
2.51704e-01,4.39673e-01
2.58598e-01,4.05992e-01
2.65682e-01,3.74718e-01
2.72959e-01,3.45694e-01
2.80436e-01,3.18768e-01
2.88117e-01,2.93802e-01
2.96009e-01,2.70663e-01
3.04117e-01,2.49227e-01
3.12448e-01,2.29378e-01
3.21006e-01,2.11008e-01
3.29799e-01,1.94015e-01
3.38833e-01,1.78303e-01
3.48114e-01,1.63782e-01
3.57649e-01,1.50369e-01
3.67446e-01,1.37985e-01
3.77510e-01,1.26558e-01
3.87851e-01,1.16017e-01
3.98475e-01,1.06299e-01
4.09390e-01,9.73452e-02
4.20603e-01,8.90983e-02
4.32124e-01,8.15066e-02
4.43961e-01,7.45214e-02
4.56122e-01,6.80974e-02
4.68615e-01,6.21924e-02
4.81451e-01,5.67670e-02
4.94639e-01,5.17847e-02
5.08188e-01,4.72114e-02
5.22108e-01,4.30154e-02
5.36409e-01,3.91676e-02
5.51102e-01,3.56405e-02
5.66198e-01,3.24089e-02
5.81707e-01,2.94493e-02
5.97641e-01,2.67401e-02
6.14011e-01,2.42612e-02
6.30830e-01,2.19939e-02
6.48109e-01,1.99211e-02
6.65861e-01,1.80268e-02
6.84100e-01,1.62964e-02
7.02839e-01,1.47163e-02
7.22091e-01,1.32740e-02
7.41870e-01,1.19581e-02
7.62191e-01,1.07578e-02
7.83068e-01,9.66346e-03
8.04518e-01,8.66604e-03
8.26554e-01,7.75729e-03
8.49195e-01,6.92959e-03
8.72456e-01,6.17598e-03
8.96354e-01,5.49004e-03
9.20906e-01,4.86588e-03
9.46131e-01,4.29813e-03
9.72047e-01,3.78183e-03
9.98673e-01,3.31246e-03
1.02603e+00,2.88588e-03
1.05413e+00,2.49828e-03
1.08301e+00,2.14620e-03
1.11267e+00,1.82647e-03
1.14315e+00,1.53618e-03
1.17446e+00,1.27269e-03
1.20663e+00,1.03358e-03
1.23968e+00,8.16645e-04
1.27364e+00,6.19868e-04
1.30853e+00,4.41416e-04
1.34437e+00,2.79614e-04
1.38119e+00,1.32938e-04
1.41903e+00,0.00000e+00
