m1=404195.138, m2=24.451, gsp=2.096, rhosp=3725.881
fGW[Hz],dPh[rad]
1.52250e-03,4.34197e+02
1.53762e-03,4.18241e+02
1.55289e-03,4.02862e+02
1.56831e-03,3.88041e+02
1.58389e-03,3.73756e+02
1.59961e-03,3.59990e+02
1.61550e-03,3.46723e+02
1.63154e-03,3.33938e+02
1.64774e-03,3.21618e+02
1.66411e-03,3.09746e+02
1.68063e-03,2.98306e+02
1.69732e-03,2.87283e+02
1.71418e-03,2.76662e+02
1.73120e-03,2.66429e+02
1.74839e-03,2.56568e+02
1.76576e-03,2.47068e+02
1.78329e-03,2.37916e+02
1.80100e-03,2.29098e+02
1.81889e-03,2.20602e+02
1.83695e-03,2.12418e+02
1.85519e-03,2.04534e+02
1.87362e-03,1.96939e+02
1.89222e-03,1.89622e+02
1.91101e-03,1.82574e+02
1.92999e-03,1.75785e+02
1.94916e-03,1.69245e+02
1.96851e-03,1.62946e+02
1.98806e-03,1.56879e+02
2.00781e-03,1.51035e+02
2.02774e-03,1.45406e+02
2.04788e-03,1.39985e+02
2.06822e-03,1.34763e+02
2.08876e-03,1.29734e+02
2.10950e-03,1.24891e+02
2.13045e-03,1.20227e+02
2.15161e-03,1.15735e+02
2.17297e-03,1.11409e+02
2.19455e-03,1.07243e+02
2.21635e-03,1.03231e+02
2.23836e-03,9.93673e+01
2.26058e-03,9.56470e+01
2.28303e-03,9.20645e+01
2.30571e-03,8.86149e+01
2.32860e-03,8.52931e+01
2.35173e-03,8.20946e+01
2.37508e-03,7.90148e+01
2.39867e-03,7.60494e+01
2.42249e-03,7.31941e+01
2.44655e-03,7.04450e+01
2.47084e-03,6.77980e+01
2.49538e-03,6.52495e+01
2.52016e-03,6.27958e+01
2.54519e-03,6.04335e+01
2.57046e-03,5.81591e+01
2.59599e-03,5.59694e+01
2.62177e-03,5.38614e+01
2.64781e-03,5.18319e+01
2.67410e-03,4.98781e+01
2.70066e-03,4.79971e+01
2.72748e-03,4.61864e+01
2.75456e-03,4.44433e+01
2.78192e-03,4.27652e+01
2.80954e-03,4.11499e+01
2.83744e-03,3.95949e+01
2.86562e-03,3.80980e+01
2.89408e-03,3.66571e+01
2.92282e-03,3.52701e+01
2.95184e-03,3.39350e+01
2.98116e-03,3.26498e+01
3.01076e-03,3.14128e+01
3.04066e-03,3.02221e+01
3.07086e-03,2.90760e+01
3.10135e-03,2.79728e+01
3.13215e-03,2.69110e+01
3.16326e-03,2.58890e+01
3.19467e-03,2.49053e+01
3.22640e-03,2.39586e+01
3.25844e-03,2.30473e+01
3.29080e-03,2.21702e+01
3.32348e-03,2.13261e+01
3.35648e-03,2.05137e+01
3.38981e-03,1.97318e+01
3.42348e-03,1.89792e+01
3.45747e-03,1.82550e+01
3.49181e-03,1.75579e+01
3.52648e-03,1.68871e+01
3.56151e-03,1.62415e+01
3.59687e-03,1.56202e+01
3.63259e-03,1.50222e+01
3.66867e-03,1.44468e+01
3.70510e-03,1.38930e+01
3.74189e-03,1.33601e+01
3.77905e-03,1.28472e+01
3.81658e-03,1.23536e+01
3.85448e-03,1.18787e+01
3.89276e-03,1.14216e+01
3.93142e-03,1.09818e+01
3.97046e-03,1.05585e+01
4.00989e-03,1.01512e+01
4.04971e-03,9.75926e+00
4.08993e-03,9.38209e+00
4.13055e-03,9.01915e+00
4.17156e-03,8.66990e+00
4.21299e-03,8.33383e+00
4.25483e-03,8.01045e+00
4.29708e-03,7.69927e+00
4.33976e-03,7.39984e+00
4.38285e-03,7.11172e+00
4.42638e-03,6.83447e+00
4.47033e-03,6.56770e+00
4.51473e-03,6.31101e+00
4.55956e-03,6.06402e+00
4.60484e-03,5.82636e+00
4.65057e-03,5.59768e+00
4.69676e-03,5.37764e+00
4.74340e-03,5.16593e+00
4.79050e-03,4.96222e+00
4.83808e-03,4.76622e+00
4.88612e-03,4.57762e+00
4.93464e-03,4.39617e+00
4.98365e-03,4.22157e+00
5.03314e-03,4.05359e+00
5.08312e-03,3.89196e+00
5.13360e-03,3.73644e+00
5.18458e-03,3.58682e+00
5.23607e-03,3.44286e+00
5.28807e-03,3.30435e+00
5.34058e-03,3.17108e+00
5.39362e-03,3.04286e+00
5.44718e-03,2.91950e+00
5.50127e-03,2.80081e+00
5.55591e-03,2.68662e+00
5.61108e-03,2.57675e+00
5.66680e-03,2.47105e+00
5.72308e-03,2.36935e+00
5.77991e-03,2.27151e+00
5.83731e-03,2.17738e+00
5.89528e-03,2.08681e+00
5.95382e-03,1.99968e+00
6.01295e-03,1.91585e+00
6.07266e-03,1.83520e+00
6.13297e-03,1.75761e+00
6.19387e-03,1.68296e+00
6.25538e-03,1.61115e+00
6.31750e-03,1.54206e+00
6.38024e-03,1.47558e+00
6.44360e-03,1.41164e+00
6.50759e-03,1.35011e+00
6.57222e-03,1.29093e+00
6.63748e-03,1.23398e+00
6.70340e-03,1.17920e+00
6.76997e-03,1.12650e+00
6.83720e-03,1.07580e+00
6.90510e-03,1.02703e+00
6.97367e-03,9.80103e-01
7.04292e-03,9.34961e-01
7.11286e-03,8.91533e-01
7.18350e-03,8.49754e-01
7.25484e-03,8.09562e-01
7.32688e-03,7.70896e-01
7.39964e-03,7.33699e-01
7.47313e-03,6.97916e-01
7.54734e-03,6.63491e-01
7.62229e-03,6.30374e-01
7.69799e-03,5.98516e-01
7.77443e-03,5.67868e-01
7.85164e-03,5.38385e-01
7.92961e-03,5.10022e-01
8.00836e-03,4.82737e-01
8.08789e-03,4.56489e-01
8.16821e-03,4.31238e-01
8.24932e-03,4.06947e-01
8.33124e-03,3.83580e-01
8.41398e-03,3.61101e-01
8.49754e-03,3.39477e-01
8.58192e-03,3.18675e-01
8.66715e-03,2.98663e-01
8.75322e-03,2.79413e-01
8.84014e-03,2.60895e-01
8.92793e-03,2.43080e-01
9.01659e-03,2.25944e-01
9.10614e-03,2.09459e-01
9.19657e-03,1.93601e-01
9.28789e-03,1.78346e-01
9.38013e-03,1.63671e-01
9.47328e-03,1.49555e-01
9.56736e-03,1.35975e-01
9.66237e-03,1.22913e-01
9.75832e-03,1.10347e-01
9.85523e-03,9.82590e-02
9.95310e-03,8.66312e-02
1.00519e-02,7.54458e-02
1.01518e-02,6.46860e-02
1.02526e-02,5.43356e-02
1.03544e-02,4.43791e-02
1.04572e-02,3.48015e-02
1.05611e-02,2.55883e-02
1.06659e-02,1.67259e-02
1.07719e-02,8.20070e-03
1.08788e-02,0.00000e+00
