m1=2091.579, m2=18.690, gsp=2.171, rhosp=154.904
fGW[Hz],dPh[rad]
6.28522e-03,2.13952e+02
6.47165e-03,2.00494e+02
6.66362e-03,1.87882e+02
6.86128e-03,1.76062e+02
7.06480e-03,1.64985e+02
7.27436e-03,1.54604e+02
7.49014e-03,1.44876e+02
7.71232e-03,1.35759e+02
7.94109e-03,1.27215e+02
8.17664e-03,1.19208e+02
8.41918e-03,1.11705e+02
8.66892e-03,1.04673e+02
8.92606e-03,9.80827e+01
9.19083e-03,9.19070e+01
9.46346e-03,8.61195e+01
9.74417e-03,8.06959e+01
1.00332e-02,7.56133e+01
1.03308e-02,7.08502e+01
1.06373e-02,6.63866e+01
1.09528e-02,6.22037e+01
1.12777e-02,5.82838e+01
1.16122e-02,5.46104e+01
1.19566e-02,5.11680e+01
1.23113e-02,4.79421e+01
1.26765e-02,4.49192e+01
1.30525e-02,4.20863e+01
1.34397e-02,3.94317e+01
1.38383e-02,3.69441e+01
1.42488e-02,3.46129e+01
1.46715e-02,3.24285e+01
1.51067e-02,3.03815e+01
1.55548e-02,2.84633e+01
1.60162e-02,2.66658e+01
1.64913e-02,2.49815e+01
1.69804e-02,2.34032e+01
1.74841e-02,2.19242e+01
1.80028e-02,2.05384e+01
1.85368e-02,1.92398e+01
1.90866e-02,1.80230e+01
1.96528e-02,1.68828e+01
2.02357e-02,1.58144e+01
2.08360e-02,1.48134e+01
2.14540e-02,1.38754e+01
2.20904e-02,1.29965e+01
2.27457e-02,1.21730e+01
2.34204e-02,1.14014e+01
2.41151e-02,1.06785e+01
2.48304e-02,1.00011e+01
2.55669e-02,9.36644e+00
2.63253e-02,8.77182e+00
2.71062e-02,8.21470e+00
2.79102e-02,7.69274e+00
2.87381e-02,7.20372e+00
2.95906e-02,6.74556e+00
3.04683e-02,6.31633e+00
3.13721e-02,5.91421e+00
3.23027e-02,5.53748e+00
3.32608e-02,5.18456e+00
3.42474e-02,4.85394e+00
3.52633e-02,4.54422e+00
3.63093e-02,4.25408e+00
3.73863e-02,3.98229e+00
3.84953e-02,3.72770e+00
3.96372e-02,3.48922e+00
4.08129e-02,3.26584e+00
4.20236e-02,3.05660e+00
4.32701e-02,2.86063e+00
4.45536e-02,2.67707e+00
4.58752e-02,2.50514e+00
4.72360e-02,2.34413e+00
4.86371e-02,2.19333e+00
5.00798e-02,2.05210e+00
5.15653e-02,1.91984e+00
5.30949e-02,1.79599e+00
5.46698e-02,1.68001e+00
5.62915e-02,1.57140e+00
5.79612e-02,1.46971e+00
5.96805e-02,1.37449e+00
6.14508e-02,1.28534e+00
6.32736e-02,1.20187e+00
6.51504e-02,1.12372e+00
6.70830e-02,1.05057e+00
6.90728e-02,9.82084e-01
7.11217e-02,9.17977e-01
7.32314e-02,8.57971e-01
7.54036e-02,8.01806e-01
7.76403e-02,7.49239e-01
7.99433e-02,7.00043e-01
8.23146e-02,6.54004e-01
8.47563e-02,6.10922e-01
8.72704e-02,5.70609e-01
8.98591e-02,5.32891e-01
9.25245e-02,4.97603e-01
9.52691e-02,4.64590e-01
9.80950e-02,4.33708e-01
1.01005e-01,4.04822e-01
1.04001e-01,3.77805e-01
1.07086e-01,3.52538e-01
1.10262e-01,3.28910e-01
1.13533e-01,3.06817e-01
1.16901e-01,2.86161e-01
1.20368e-01,2.66850e-01
1.23939e-01,2.48799e-01
1.27615e-01,2.31926e-01
1.31400e-01,2.16158e-01
1.35298e-01,2.01423e-01
1.39311e-01,1.87656e-01
1.43444e-01,1.74794e-01
1.47699e-01,1.62779e-01
1.52080e-01,1.51558e-01
1.56591e-01,1.41079e-01
1.61236e-01,1.31294e-01
1.66018e-01,1.22159e-01
1.70943e-01,1.13632e-01
1.76014e-01,1.05674e-01
1.81235e-01,9.82487e-02
1.86611e-01,9.13207e-02
1.92146e-01,8.48583e-02
1.97845e-01,7.88314e-02
2.03714e-01,7.32115e-02
2.09757e-01,6.79725e-02
2.15979e-01,6.30893e-02
2.22385e-01,5.85389e-02
2.28982e-01,5.42995e-02
2.35774e-01,5.03508e-02
2.42768e-01,4.66738e-02
2.49969e-01,4.32505e-02
2.57383e-01,4.00643e-02
2.65018e-01,3.70996e-02
2.72879e-01,3.43416e-02
2.80974e-01,3.17768e-02
2.89308e-01,2.93923e-02
2.97890e-01,2.71761e-02
3.06726e-01,2.51169e-02
3.15824e-01,2.32042e-02
3.25192e-01,2.14282e-02
3.34838e-01,1.97797e-02
3.44771e-01,1.82500e-02
3.54998e-01,1.68312e-02
3.65528e-01,1.55156e-02
3.76370e-01,1.42962e-02
3.87534e-01,1.31665e-02
3.99030e-01,1.21202e-02
4.10866e-01,1.11515e-02
4.23053e-01,1.02552e-02
4.35602e-01,9.42606e-03
4.48523e-01,8.65950e-03
4.61828e-01,7.95108e-03
4.75527e-01,7.29669e-03
4.89632e-01,6.69250e-03
5.04156e-01,6.13491e-03
5.19111e-01,5.62059e-03
5.34509e-01,5.14641e-03
5.50364e-01,4.70946e-03
5.66689e-01,4.30702e-03
5.83498e-01,3.93656e-03
6.00807e-01,3.59572e-03
6.18628e-01,3.28229e-03
6.36978e-01,2.99423e-03
6.55873e-01,2.72963e-03
6.75328e-01,2.48671e-03
6.95360e-01,2.26381e-03
7.15986e-01,2.05941e-03
7.37224e-01,1.87207e-03
7.59092e-01,1.70047e-03
7.81609e-01,1.54337e-03
8.04793e-01,1.39963e-03
8.28666e-01,1.26818e-03
8.53246e-01,1.14806e-03
8.78555e-01,1.03833e-03
9.04616e-01,9.38171e-04
9.31449e-01,8.46787e-04
9.59078e-01,7.63460e-04
9.87527e-01,6.87523e-04
1.01682e+00,6.18359e-04
1.04698e+00,5.55399e-04
1.07804e+00,4.98118e-04
1.11002e+00,4.46033e-04
1.14294e+00,3.98697e-04
1.17684e+00,3.55702e-04
1.21175e+00,3.16669e-04
1.24770e+00,2.81252e-04
1.28471e+00,2.49133e-04
1.32281e+00,2.20019e-04
1.36205e+00,1.93642e-04
1.40245e+00,1.69756e-04
1.44405e+00,1.48137e-04
1.48689e+00,1.28579e-04
1.53099e+00,1.10893e-04
1.57641e+00,9.49075e-05
1.62317e+00,8.04653e-05
1.67132e+00,6.74230e-05
1.72089e+00,5.56498e-05
1.77194e+00,4.50267e-05
1.82450e+00,3.54450e-05
1.87862e+00,2.68061e-05
1.93434e+00,1.90201e-05
1.99172e+00,1.20053e-05
2.05080e+00,5.68776e-06
2.11163e+00,0.00000e+00
