m1=3867.958, m2=66.841, gsp=2.000, rhosp=248.426
fGW[Hz],dPh[rad]
3.34564e-03,4.40304e+00
3.44522e-03,4.11155e+00
3.54777e-03,3.83935e+00
3.65337e-03,3.58516e+00
3.76212e-03,3.34778e+00
3.87410e-03,3.12612e+00
3.98941e-03,2.91912e+00
4.10816e-03,2.72582e+00
4.23044e-03,2.54532e+00
4.35636e-03,2.37675e+00
4.48603e-03,2.21935e+00
4.61956e-03,2.07235e+00
4.75706e-03,1.93509e+00
4.89865e-03,1.80691e+00
5.04447e-03,1.68722e+00
5.19462e-03,1.57544e+00
5.34924e-03,1.47107e+00
5.50846e-03,1.37360e+00
5.67242e-03,1.28258e+00
5.84126e-03,1.19759e+00
6.01513e-03,1.11823e+00
6.19417e-03,1.04411e+00
6.37854e-03,9.74908e-01
6.56840e-03,9.10283e-01
6.76391e-03,8.49937e-01
6.96524e-03,7.93586e-01
7.17257e-03,7.40966e-01
7.38606e-03,6.91830e-01
7.60591e-03,6.45947e-01
7.83230e-03,6.03103e-01
8.06544e-03,5.63095e-01
8.30551e-03,5.25737e-01
8.55272e-03,4.90854e-01
8.80730e-03,4.58280e-01
9.06945e-03,4.27864e-01
9.33941e-03,3.99463e-01
9.61740e-03,3.72943e-01
9.90366e-03,3.48179e-01
1.01984e-02,3.25057e-01
1.05020e-02,3.03466e-01
1.08146e-02,2.83306e-01
1.11365e-02,2.64482e-01
1.14680e-02,2.46905e-01
1.18093e-02,2.30494e-01
1.21608e-02,2.15170e-01
1.25228e-02,2.00861e-01
1.28956e-02,1.87502e-01
1.32794e-02,1.75028e-01
1.36747e-02,1.63381e-01
1.40817e-02,1.52506e-01
1.45009e-02,1.42353e-01
1.49325e-02,1.32873e-01
1.53770e-02,1.24022e-01
1.58347e-02,1.15759e-01
1.63060e-02,1.08043e-01
1.67913e-02,1.00840e-01
1.72911e-02,9.41145e-02
1.78058e-02,8.78356e-02
1.83358e-02,8.19736e-02
1.88816e-02,7.65008e-02
1.94436e-02,7.13916e-02
2.00223e-02,6.66217e-02
2.06183e-02,6.21686e-02
2.12320e-02,5.80116e-02
2.18640e-02,5.41307e-02
2.25148e-02,5.05079e-02
2.31850e-02,4.71260e-02
2.38751e-02,4.39690e-02
2.45857e-02,4.10220e-02
2.53175e-02,3.82711e-02
2.60711e-02,3.57032e-02
2.68471e-02,3.33064e-02
2.76462e-02,3.10691e-02
2.84691e-02,2.89808e-02
2.93165e-02,2.70317e-02
3.01892e-02,2.52125e-02
3.10877e-02,2.35146e-02
3.20131e-02,2.19300e-02
3.29660e-02,2.04510e-02
3.39472e-02,1.90708e-02
3.49577e-02,1.77827e-02
3.59982e-02,1.65807e-02
3.70697e-02,1.54590e-02
3.81731e-02,1.44122e-02
3.93093e-02,1.34355e-02
4.04794e-02,1.25241e-02
4.16843e-02,1.16738e-02
4.29250e-02,1.08804e-02
4.42027e-02,1.01401e-02
4.55184e-02,9.44955e-03
4.68733e-02,8.80528e-03
4.82685e-02,8.20426e-03
4.97052e-02,7.64361e-03
5.11847e-02,7.12064e-03
5.27082e-02,6.63285e-03
5.42771e-02,6.17788e-03
5.58927e-02,5.75356e-03
5.75564e-02,5.35784e-03
5.92696e-02,4.98881e-03
6.10337e-02,4.64470e-03
6.28504e-02,4.32384e-03
6.47212e-02,4.02467e-03
6.66477e-02,3.74576e-03
6.86314e-02,3.48574e-03
7.06743e-02,3.24335e-03
7.27779e-02,3.01742e-03
7.49442e-02,2.80685e-03
7.71749e-02,2.61060e-03
7.94721e-02,2.42771e-03
8.18376e-02,2.25730e-03
8.42735e-02,2.09853e-03
8.67820e-02,1.95060e-03
8.93651e-02,1.81281e-03
9.20250e-02,1.68446e-03
9.47642e-02,1.56492e-03
9.75849e-02,1.45360e-03
1.00490e-01,1.34994e-03
1.03481e-01,1.25343e-03
1.06561e-01,1.16359e-03
1.09733e-01,1.07997e-03
1.12999e-01,1.00214e-03
1.16362e-01,9.29716e-04
1.19826e-01,8.62332e-04
1.23393e-01,7.99646e-04
1.27065e-01,7.41340e-04
1.30848e-01,6.87115e-04
1.34742e-01,6.36694e-04
1.38753e-01,5.89820e-04
1.42883e-01,5.46249e-04
1.47136e-01,5.05757e-04
1.51515e-01,4.68132e-04
1.56025e-01,4.33180e-04
1.60670e-01,4.00717e-04
1.65452e-01,3.70571e-04
1.70377e-01,3.42584e-04
1.75448e-01,3.16607e-04
1.80670e-01,2.92501e-04
1.86048e-01,2.70137e-04
1.91586e-01,2.49394e-04
1.97288e-01,2.30160e-04
2.03161e-01,2.12330e-04
2.09208e-01,1.95805e-04
2.15435e-01,1.80495e-04
2.21848e-01,1.66314e-04
2.28451e-01,1.53184e-04
2.35251e-01,1.41029e-04
2.42253e-01,1.29782e-04
2.49464e-01,1.19378e-04
2.56889e-01,1.09757e-04
2.64536e-01,1.00863e-04
2.72410e-01,9.26447e-05
2.80518e-01,8.50530e-05
2.88868e-01,7.80430e-05
2.97466e-01,7.15726e-05
3.06320e-01,6.56028e-05
3.15438e-01,6.00970e-05
3.24827e-01,5.50213e-05
3.34496e-01,5.03442e-05
3.44452e-01,4.60363e-05
3.54705e-01,4.20701e-05
3.65263e-01,3.84203e-05
3.76135e-01,3.50633e-05
3.87331e-01,3.19769e-05
3.98860e-01,2.91408e-05
4.10732e-01,2.65360e-05
4.22958e-01,2.41449e-05
4.35548e-01,2.19509e-05
4.48512e-01,1.99390e-05
4.61862e-01,1.80949e-05
4.75609e-01,1.64056e-05
4.89766e-01,1.48589e-05
5.04344e-01,1.34436e-05
5.19356e-01,1.21492e-05
5.34815e-01,1.09660e-05
5.50734e-01,9.88515e-06
5.67127e-01,8.89827e-06
5.84008e-01,7.99774e-06
6.01391e-01,7.17645e-06
6.19291e-01,6.42787e-06
6.37725e-01,5.74595e-06
6.56707e-01,5.12510e-06
6.76254e-01,4.56019e-06
6.96383e-01,4.04647e-06
7.17111e-01,3.57956e-06
7.38456e-01,3.15544e-06
7.60437e-01,2.77041e-06
7.83071e-01,2.42106e-06
8.06380e-01,2.10425e-06
8.30382e-01,1.81713e-06
8.55099e-01,1.55704e-06
8.80551e-01,1.32158e-06
9.06761e-01,1.10852e-06
9.33751e-01,9.15829e-07
9.61545e-01,7.41659e-07
9.90165e-01,5.84308e-07
1.01964e+00,4.42223e-07
1.04999e+00,3.13987e-07
1.08124e+00,1.98306e-07
1.11342e+00,9.40023e-08
1.14657e+00,0.00000e+00
