m1=2443.981, m2=5.645, gsp=2.068, rhosp=24.868
fGW[Hz],dPh[rad]
9.46331e-03,7.25960e+01
9.71624e-03,6.83133e+01
9.97592e-03,6.42821e+01
1.02425e-02,6.04878e+01
1.05163e-02,5.69164e+01
1.07974e-02,5.35548e+01
1.10859e-02,5.03909e+01
1.13822e-02,4.74129e+01
1.16864e-02,4.46100e+01
1.19988e-02,4.19718e+01
1.23195e-02,3.94889e+01
1.26487e-02,3.71519e+01
1.29868e-02,3.49524e+01
1.33339e-02,3.28824e+01
1.36903e-02,3.09341e+01
1.40561e-02,2.91006e+01
1.44318e-02,2.73749e+01
1.48175e-02,2.57509e+01
1.52136e-02,2.42225e+01
1.56202e-02,2.27842e+01
1.60377e-02,2.14305e+01
1.64663e-02,2.01567e+01
1.69064e-02,1.89580e+01
1.73582e-02,1.78299e+01
1.78222e-02,1.67684e+01
1.82985e-02,1.57695e+01
1.87875e-02,1.48295e+01
1.92897e-02,1.39450e+01
1.98052e-02,1.31128e+01
2.03346e-02,1.23297e+01
2.08780e-02,1.15928e+01
2.14360e-02,1.08996e+01
2.20089e-02,1.02473e+01
2.25972e-02,9.63355e+00
2.32011e-02,9.05616e+00
2.38212e-02,8.51294e+00
2.44579e-02,8.00188e+00
2.51116e-02,7.52110e+00
2.57827e-02,7.06882e+00
2.64718e-02,6.64335e+00
2.71793e-02,6.24312e+00
2.79057e-02,5.86665e+00
2.86515e-02,5.51253e+00
2.94173e-02,5.17945e+00
3.02035e-02,4.86617e+00
3.10108e-02,4.57152e+00
3.18396e-02,4.29441e+00
3.26906e-02,4.03380e+00
3.35643e-02,3.78872e+00
3.44613e-02,3.55825e+00
3.53824e-02,3.34153e+00
3.63280e-02,3.13775e+00
3.72990e-02,2.94614e+00
3.82958e-02,2.76599e+00
3.93194e-02,2.59662e+00
4.03703e-02,2.43740e+00
4.14492e-02,2.28772e+00
4.25570e-02,2.14701e+00
4.36944e-02,2.01476e+00
4.48622e-02,1.89045e+00
4.60613e-02,1.77362e+00
4.72923e-02,1.66382e+00
4.85563e-02,1.56065e+00
4.98541e-02,1.46370e+00
5.11865e-02,1.37260e+00
5.25545e-02,1.28701e+00
5.39591e-02,1.20661e+00
5.54013e-02,1.13108e+00
5.68820e-02,1.06013e+00
5.84023e-02,9.93494e-01
5.99632e-02,9.30913e-01
6.15658e-02,8.72145e-01
6.32112e-02,8.16964e-01
6.49007e-02,7.65155e-01
6.66353e-02,7.16517e-01
6.84162e-02,6.70860e-01
7.02447e-02,6.28007e-01
7.21222e-02,5.87789e-01
7.40498e-02,5.50049e-01
7.60289e-02,5.14639e-01
7.80609e-02,4.81418e-01
8.01472e-02,4.50255e-01
8.22893e-02,4.21027e-01
8.44886e-02,3.93617e-01
8.67467e-02,3.67915e-01
8.90651e-02,3.43819e-01
9.14456e-02,3.21231e-01
9.38896e-02,3.00060e-01
9.63990e-02,2.80221e-01
9.89754e-02,2.61633e-01
1.01621e-01,2.44220e-01
1.04337e-01,2.27910e-01
1.07125e-01,2.12636e-01
1.09988e-01,1.98335e-01
1.12928e-01,1.84948e-01
1.15946e-01,1.72419e-01
1.19045e-01,1.60695e-01
1.22227e-01,1.49727e-01
1.25493e-01,1.39467e-01
1.28848e-01,1.29873e-01
1.32291e-01,1.20904e-01
1.35827e-01,1.12520e-01
1.39457e-01,1.04685e-01
1.43184e-01,9.73658e-02
1.47011e-01,9.05293e-02
1.50940e-01,8.41457e-02
1.54974e-01,7.81864e-02
1.59116e-01,7.26248e-02
1.63369e-01,6.74359e-02
1.67735e-01,6.25961e-02
1.72218e-01,5.80832e-02
1.76821e-01,5.38765e-02
1.81547e-01,4.99563e-02
1.86399e-01,4.63044e-02
1.91381e-01,4.29034e-02
1.96496e-01,3.97373e-02
2.01748e-01,3.67908e-02
2.07140e-01,3.40496e-02
2.12676e-01,3.15003e-02
2.18360e-01,2.91303e-02
2.24196e-01,2.69279e-02
2.30188e-01,2.48820e-02
2.36341e-01,2.29821e-02
2.42657e-01,2.12186e-02
2.49143e-01,1.95823e-02
2.55801e-01,1.80646e-02
2.62638e-01,1.66576e-02
2.69658e-01,1.53536e-02
2.76865e-01,1.41457e-02
2.84264e-01,1.30272e-02
2.91862e-01,1.19920e-02
2.99662e-01,1.10343e-02
3.07671e-01,1.01487e-02
3.15894e-01,9.33011e-03
3.24337e-01,8.57378e-03
3.33006e-01,7.87532e-03
3.41906e-01,7.23058e-03
3.51044e-01,6.63571e-03
3.60426e-01,6.08710e-03
3.70059e-01,5.58139e-03
3.79950e-01,5.11543e-03
3.90104e-01,4.68631e-03
4.00531e-01,4.29129e-03
4.11236e-01,3.92784e-03
4.22227e-01,3.59357e-03
4.33511e-01,3.28630e-03
4.45098e-01,3.00398e-03
4.56994e-01,2.74469e-03
4.69208e-01,2.50667e-03
4.81748e-01,2.28827e-03
4.94624e-01,2.08797e-03
5.07843e-01,1.90434e-03
5.21416e-01,1.73609e-03
5.35352e-01,1.58198e-03
5.49660e-01,1.44089e-03
5.64351e-01,1.31177e-03
5.79434e-01,1.19367e-03
5.94920e-01,1.08568e-03
6.10821e-01,9.86987e-04
6.27146e-01,8.96821e-04
6.43908e-01,8.14482e-04
6.61117e-01,7.39319e-04
6.78787e-01,6.70734e-04
6.96928e-01,6.08176e-04
7.15555e-01,5.51136e-04
7.34679e-01,4.99147e-04
7.54315e-01,4.51780e-04
7.74475e-01,4.08638e-04
7.95175e-01,3.69359e-04
8.16427e-01,3.33609e-04
8.38248e-01,3.01082e-04
8.60651e-01,2.71496e-04
8.83654e-01,2.44596e-04
9.07271e-01,2.20143e-04
9.31519e-01,1.97923e-04
9.56416e-01,1.77738e-04
9.81978e-01,1.59406e-04
1.00822e+00,1.42762e-04
1.03517e+00,1.27655e-04
1.06284e+00,1.13946e-04
1.09124e+00,1.01510e-04
1.12041e+00,9.02303e-05
1.15035e+00,8.00025e-05
1.18110e+00,7.07307e-05
1.21266e+00,6.23273e-05
1.24507e+00,5.47128e-05
1.27835e+00,4.78145e-05
1.31252e+00,4.15664e-05
1.34760e+00,3.59083e-05
1.38361e+00,3.07855e-05
1.42059e+00,2.61482e-05
1.45856e+00,2.19512e-05
1.49754e+00,1.81534e-05
1.53757e+00,1.47173e-05
1.57866e+00,1.16090e-05
1.62086e+00,8.79772e-06
1.66418e+00,6.25541e-06
1.70865e+00,3.95670e-06
1.75432e+00,1.87853e-06
1.80121e+00,0.00000e+00
