m1=58177.178, m2=77.015, gsp=2.489, rhosp=3673.366
fGW[Hz],dPh[rad]
1.60779e-03,2.38061e+05
1.63920e-03,2.28277e+05
1.67123e-03,2.18879e+05
1.70389e-03,2.09852e+05
1.73718e-03,2.01183e+05
1.77113e-03,1.92857e+05
1.80574e-03,1.84861e+05
1.84102e-03,1.77183e+05
1.87699e-03,1.69809e+05
1.91367e-03,1.62729e+05
1.95106e-03,1.55931e+05
1.98919e-03,1.49404e+05
2.02806e-03,1.43137e+05
2.06769e-03,1.37122e+05
2.10809e-03,1.31346e+05
2.14928e-03,1.25803e+05
2.19128e-03,1.20482e+05
2.23410e-03,1.15374e+05
2.27775e-03,1.10473e+05
2.32226e-03,1.05769e+05
2.36764e-03,1.01255e+05
2.41390e-03,9.69230e+04
2.46107e-03,9.27668e+04
2.50916e-03,8.87793e+04
2.55819e-03,8.49537e+04
2.60818e-03,8.12839e+04
2.65914e-03,7.77637e+04
2.71110e-03,7.43873e+04
2.76408e-03,7.11491e+04
2.81809e-03,6.80436e+04
2.87315e-03,6.50657e+04
2.92930e-03,6.22104e+04
2.98653e-03,5.94729e+04
3.04489e-03,5.68484e+04
3.10439e-03,5.43327e+04
3.16505e-03,5.19213e+04
3.22690e-03,4.96103e+04
3.28995e-03,4.73956e+04
3.35424e-03,4.52734e+04
3.41978e-03,4.32401e+04
3.48660e-03,4.12922e+04
3.55473e-03,3.94262e+04
3.62419e-03,3.76389e+04
3.69501e-03,3.59273e+04
3.76721e-03,3.42882e+04
3.84082e-03,3.27188e+04
3.91587e-03,3.12163e+04
3.99239e-03,2.97780e+04
4.07040e-03,2.84014e+04
4.14994e-03,2.70839e+04
4.23103e-03,2.58233e+04
4.31370e-03,2.46171e+04
4.39799e-03,2.34633e+04
4.48393e-03,2.23597e+04
4.57155e-03,2.13042e+04
4.66088e-03,2.02950e+04
4.75195e-03,1.93300e+04
4.84481e-03,1.84076e+04
4.93948e-03,1.75260e+04
5.03599e-03,1.66834e+04
5.13440e-03,1.58784e+04
5.23473e-03,1.51093e+04
5.33701e-03,1.43747e+04
5.44130e-03,1.36732e+04
5.54762e-03,1.30033e+04
5.65603e-03,1.23638e+04
5.76655e-03,1.17533e+04
5.87922e-03,1.11708e+04
5.99411e-03,1.06149e+04
6.11123e-03,1.00846e+04
6.23065e-03,9.57886e+03
6.35239e-03,9.09654e+03
6.47652e-03,8.63667e+03
6.60307e-03,8.19830e+03
6.73210e-03,7.78051e+03
6.86365e-03,7.38242e+03
6.99776e-03,7.00317e+03
7.13450e-03,6.64194e+03
7.27391e-03,6.29797e+03
7.41604e-03,5.97048e+03
7.56096e-03,5.65876e+03
7.70870e-03,5.36212e+03
7.85933e-03,5.07989e+03
8.01290e-03,4.81143e+03
8.16947e-03,4.55612e+03
8.32911e-03,4.31338e+03
8.49186e-03,4.08264e+03
8.65779e-03,3.86336e+03
8.82697e-03,3.65503e+03
8.99945e-03,3.45713e+03
9.17530e-03,3.26919e+03
9.35459e-03,3.09076e+03
9.53738e-03,2.92140e+03
9.72374e-03,2.76068e+03
9.91374e-03,2.60820e+03
1.01075e-02,2.46357e+03
1.03050e-02,2.32643e+03
1.05063e-02,2.19641e+03
1.07116e-02,2.07318e+03
1.09209e-02,1.95642e+03
1.11343e-02,1.84581e+03
1.13519e-02,1.74106e+03
1.15737e-02,1.64187e+03
1.17999e-02,1.54798e+03
1.20304e-02,1.45913e+03
1.22655e-02,1.37507e+03
1.25052e-02,1.29556e+03
1.27495e-02,1.22037e+03
1.29987e-02,1.14929e+03
1.32527e-02,1.08210e+03
1.35116e-02,1.01862e+03
1.37756e-02,9.58651e+02
1.40448e-02,9.02013e+02
1.43193e-02,8.48536e+02
1.45991e-02,7.98055e+02
1.48843e-02,7.50414e+02
1.51752e-02,7.05465e+02
1.54717e-02,6.63066e+02
1.57740e-02,6.23082e+02
1.60822e-02,5.85385e+02
1.63965e-02,5.49852e+02
1.67169e-02,5.16367e+02
1.70435e-02,4.84820e+02
1.73766e-02,4.55105e+02
1.77161e-02,4.27122e+02
1.80623e-02,4.00777e+02
1.84152e-02,3.75979e+02
1.87751e-02,3.52643e+02
1.91419e-02,3.30687e+02
1.95160e-02,3.10034e+02
1.98973e-02,2.90612e+02
2.02861e-02,2.72350e+02
2.06825e-02,2.55183e+02
2.10867e-02,2.39049e+02
2.14987e-02,2.23889e+02
2.19188e-02,2.09646e+02
2.23471e-02,1.96269e+02
2.27837e-02,1.83707e+02
2.32289e-02,1.71912e+02
2.36828e-02,1.60840e+02
2.41456e-02,1.50448e+02
2.46174e-02,1.40697e+02
2.50984e-02,1.31548e+02
2.55889e-02,1.22967e+02
2.60889e-02,1.14919e+02
2.65987e-02,1.07372e+02
2.71184e-02,1.00296e+02
2.76483e-02,9.36637e+01
2.81886e-02,8.74475e+01
2.87394e-02,8.16224e+01
2.93010e-02,7.61646e+01
2.98735e-02,7.10518e+01
3.04572e-02,6.62630e+01
3.10524e-02,6.17781e+01
3.16591e-02,5.75786e+01
3.22778e-02,5.36469e+01
3.29085e-02,4.99664e+01
3.35515e-02,4.65214e+01
3.42071e-02,4.32974e+01
3.48755e-02,4.02806e+01
3.55570e-02,3.74580e+01
3.62518e-02,3.48175e+01
3.69602e-02,3.23475e+01
3.76824e-02,3.00374e+01
3.84187e-02,2.78771e+01
3.91694e-02,2.58570e+01
3.99348e-02,2.39683e+01
4.07151e-02,2.22027e+01
4.15107e-02,2.05522e+01
4.23218e-02,1.90096e+01
4.31488e-02,1.75678e+01
4.39919e-02,1.62206e+01
4.48516e-02,1.49617e+01
4.57280e-02,1.37855e+01
4.66215e-02,1.26867e+01
4.75325e-02,1.16602e+01
4.84613e-02,1.07015e+01
4.94082e-02,9.80597e+00
5.03737e-02,8.96968e+00
5.13580e-02,8.18871e+00
5.23615e-02,7.45948e+00
5.33847e-02,6.77860e+00
5.44278e-02,6.14291e+00
5.54914e-02,5.54946e+00
5.65757e-02,4.99548e+00
5.76812e-02,4.47837e+00
5.88083e-02,3.99572e+00
5.99574e-02,3.54526e+00
6.11290e-02,3.12486e+00
6.23235e-02,2.73255e+00
6.35413e-02,2.36647e+00
6.47829e-02,2.02488e+00
6.60488e-02,1.70616e+00
6.73394e-02,1.40881e+00
6.86552e-02,1.13139e+00
6.99967e-02,8.72592e-01
7.13645e-02,6.31172e-01
7.27590e-02,4.05975e-01
7.41807e-02,1.95921e-01
7.56302e-02,0.00000e+00
