m1=1983.382, m2=50.066, gsp=2.258, rhosp=4254.178
fGW[Hz],dPh[rad]
4.41044e-03,7.24936e+02
4.55076e-03,6.77468e+02
4.69553e-03,6.33106e+02
4.84492e-03,5.91649e+02
4.99906e-03,5.52905e+02
5.15810e-03,5.16697e+02
5.32220e-03,4.82860e+02
5.49152e-03,4.51238e+02
5.66622e-03,4.21686e+02
5.84649e-03,3.94068e+02
6.03249e-03,3.68258e+02
6.22441e-03,3.44139e+02
6.42243e-03,3.21598e+02
6.62675e-03,3.00532e+02
6.83758e-03,2.80846e+02
7.05511e-03,2.62449e+02
7.27956e-03,2.45256e+02
7.51115e-03,2.29189e+02
7.75011e-03,2.14174e+02
7.99668e-03,2.00141e+02
8.25108e-03,1.87028e+02
8.51358e-03,1.74773e+02
8.78443e-03,1.63320e+02
9.06390e-03,1.52618e+02
9.35226e-03,1.42616e+02
9.64979e-03,1.33269e+02
9.95679e-03,1.24534e+02
1.02736e-02,1.16371e+02
1.06004e-02,1.08743e+02
1.09376e-02,1.01614e+02
1.12856e-02,9.49520e+01
1.16447e-02,8.87263e+01
1.20151e-02,8.29083e+01
1.23974e-02,7.74714e+01
1.27918e-02,7.23905e+01
1.31987e-02,6.76425e+01
1.36186e-02,6.32054e+01
1.40519e-02,5.90590e+01
1.44990e-02,5.51841e+01
1.49602e-02,5.15631e+01
1.54362e-02,4.81793e+01
1.59273e-02,4.50172e+01
1.64340e-02,4.20622e+01
1.69568e-02,3.93009e+01
1.74963e-02,3.67205e+01
1.80529e-02,3.43091e+01
1.86272e-02,3.20558e+01
1.92198e-02,2.99501e+01
1.98313e-02,2.79824e+01
2.04622e-02,2.61437e+01
2.11132e-02,2.44255e+01
2.17849e-02,2.28200e+01
2.24780e-02,2.13197e+01
2.31931e-02,1.99177e+01
2.39309e-02,1.86077e+01
2.46923e-02,1.73835e+01
2.54778e-02,1.62396e+01
2.62884e-02,1.51708e+01
2.71247e-02,1.41720e+01
2.79877e-02,1.32388e+01
2.88781e-02,1.23668e+01
2.97968e-02,1.15520e+01
3.07448e-02,1.07906e+01
3.17229e-02,1.00792e+01
3.27321e-02,9.41453e+00
3.37735e-02,8.79347e+00
3.48479e-02,8.21317e+00
3.59566e-02,7.67098e+00
3.71005e-02,7.16439e+00
3.82808e-02,6.69107e+00
3.94987e-02,6.24884e+00
4.07553e-02,5.83566e+00
4.20519e-02,5.44964e+00
4.33897e-02,5.08899e+00
4.47701e-02,4.75204e+00
4.61944e-02,4.43725e+00
4.76641e-02,4.14316e+00
4.91805e-02,3.86842e+00
5.07451e-02,3.61175e+00
5.23595e-02,3.37197e+00
5.40253e-02,3.14798e+00
5.57440e-02,2.93873e+00
5.75175e-02,2.74327e+00
5.93473e-02,2.56069e+00
6.12354e-02,2.39013e+00
6.31836e-02,2.23082e+00
6.51937e-02,2.08202e+00
6.72678e-02,1.94303e+00
6.94078e-02,1.81322e+00
7.16160e-02,1.69197e+00
7.38944e-02,1.57873e+00
7.62452e-02,1.47298e+00
7.86709e-02,1.37421e+00
8.11737e-02,1.28198e+00
8.37562e-02,1.19584e+00
8.64208e-02,1.11541e+00
8.91702e-02,1.04031e+00
9.20071e-02,9.70184e-01
9.49342e-02,9.04707e-01
9.79545e-02,8.43574e-01
1.01071e-01,7.86499e-01
1.04286e-01,7.33215e-01
1.07604e-01,6.83473e-01
1.11027e-01,6.37040e-01
1.14560e-01,5.93697e-01
1.18204e-01,5.53242e-01
1.21965e-01,5.15484e-01
1.25845e-01,4.80246e-01
1.29849e-01,4.47361e-01
1.33980e-01,4.16674e-01
1.38242e-01,3.88041e-01
1.42640e-01,3.61325e-01
1.47178e-01,3.36400e-01
1.51860e-01,3.13148e-01
1.56692e-01,2.91459e-01
1.61677e-01,2.71229e-01
1.66820e-01,2.52361e-01
1.72127e-01,2.34766e-01
1.77603e-01,2.18359e-01
1.83254e-01,2.03061e-01
1.89084e-01,1.88799e-01
1.95099e-01,1.75505e-01
2.01306e-01,1.63114e-01
2.07711e-01,1.51565e-01
2.14319e-01,1.40804e-01
2.21137e-01,1.30778e-01
2.28172e-01,1.21437e-01
2.35431e-01,1.12736e-01
2.42921e-01,1.04633e-01
2.50650e-01,9.70878e-02
2.58624e-01,9.00625e-02
2.66852e-01,8.35228e-02
2.75341e-01,7.74360e-02
2.84101e-01,7.17720e-02
2.93140e-01,6.65021e-02
3.02465e-01,6.16001e-02
3.12088e-01,5.70411e-02
3.22017e-01,5.28021e-02
3.32262e-01,4.88613e-02
3.42832e-01,4.51987e-02
3.53739e-01,4.17955e-02
3.64993e-01,3.86340e-02
3.76605e-01,3.56978e-02
3.88586e-01,3.29717e-02
4.00949e-01,3.04411e-02
4.13704e-01,2.80929e-02
4.26866e-01,2.59144e-02
4.40446e-01,2.38941e-02
4.54459e-01,2.20210e-02
4.68917e-01,2.02850e-02
4.83835e-01,1.86766e-02
4.99228e-01,1.71870e-02
5.15110e-01,1.58078e-02
5.31498e-01,1.45314e-02
5.48407e-01,1.33505e-02
5.65854e-01,1.22585e-02
5.83856e-01,1.12490e-02
6.02431e-01,1.03163e-02
6.21597e-01,9.45482e-03
6.41372e-01,8.65953e-03
6.61777e-01,7.92567e-03
6.82831e-01,7.24881e-03
7.04554e-01,6.62483e-03
7.26969e-01,6.04990e-03
7.50097e-01,5.52041e-03
7.73961e-01,5.03304e-03
7.98583e-01,4.58467e-03
8.23990e-01,4.17241e-03
8.50204e-01,3.79356e-03
8.77252e-01,3.44561e-03
9.05161e-01,3.12622e-03
9.33958e-01,2.83322e-03
9.63671e-01,2.56460e-03
9.94330e-01,2.31847e-03
1.02596e+00,2.09309e-03
1.05860e+00,1.88683e-03
1.09228e+00,1.69820e-03
1.12703e+00,1.52580e-03
1.16289e+00,1.36833e-03
1.19988e+00,1.22459e-03
1.23806e+00,1.09347e-03
1.27744e+00,9.73937e-04
1.31808e+00,8.65044e-04
1.36002e+00,7.65906e-04
1.40329e+00,6.75709e-04
1.44793e+00,5.93701e-04
1.49399e+00,5.19187e-04
1.54152e+00,4.51527e-04
1.59057e+00,3.90131e-04
1.64117e+00,3.34454e-04
1.69338e+00,2.83997e-04
1.74725e+00,2.38300e-04
1.80284e+00,1.96939e-04
1.86020e+00,1.59527e-04
1.91938e+00,1.25708e-04
1.98044e+00,9.51547e-05
2.04345e+00,6.75694e-05
2.10846e+00,4.26782e-05
2.17554e+00,2.02312e-05
2.24475e+00,0.00000e+00
