m1=95239.344, m2=18.147, gsp=2.168, rhosp=20.209
fGW[Hz],dPh[rad]
2.44381e-03,9.61327e+02
2.48016e-03,9.18585e+02
2.51706e-03,8.77628e+02
2.55451e-03,8.38386e+02
2.59252e-03,8.00792e+02
2.63109e-03,7.64783e+02
2.67023e-03,7.30296e+02
2.70996e-03,6.97272e+02
2.75027e-03,6.65653e+02
2.79119e-03,6.35383e+02
2.83272e-03,6.06410e+02
2.87486e-03,5.78682e+02
2.91763e-03,5.52148e+02
2.96104e-03,5.26762e+02
3.00509e-03,5.02477e+02
3.04980e-03,4.79248e+02
3.09518e-03,4.57034e+02
3.14122e-03,4.35792e+02
3.18796e-03,4.15484e+02
3.23539e-03,3.96070e+02
3.28352e-03,3.77515e+02
3.33237e-03,3.59782e+02
3.38195e-03,3.42839e+02
3.43227e-03,3.26651e+02
3.48333e-03,3.11189e+02
3.53515e-03,2.96420e+02
3.58775e-03,2.82317e+02
3.64113e-03,2.68851e+02
3.69530e-03,2.55996e+02
3.75027e-03,2.43725e+02
3.80607e-03,2.32013e+02
3.86269e-03,2.20837e+02
3.92016e-03,2.10174e+02
3.97848e-03,2.00002e+02
4.03767e-03,1.90299e+02
4.09774e-03,1.81045e+02
4.15871e-03,1.72220e+02
4.22058e-03,1.63806e+02
4.28337e-03,1.55786e+02
4.34710e-03,1.48140e+02
4.41177e-03,1.40854e+02
4.47741e-03,1.33911e+02
4.54402e-03,1.27296e+02
4.61163e-03,1.20994e+02
4.68024e-03,1.14991e+02
4.74987e-03,1.09274e+02
4.82053e-03,1.03830e+02
4.89225e-03,9.86459e+01
4.96504e-03,9.37111e+01
5.03891e-03,8.90137e+01
5.11387e-03,8.45429e+01
5.18995e-03,8.02883e+01
5.26717e-03,7.62400e+01
5.34553e-03,7.23885e+01
5.42506e-03,6.87247e+01
5.50577e-03,6.52398e+01
5.58768e-03,6.19255e+01
5.67082e-03,5.87739e+01
5.75518e-03,5.57774e+01
5.84081e-03,5.29286e+01
5.92770e-03,5.02206e+01
6.01589e-03,4.76467e+01
6.10540e-03,4.52006e+01
6.19623e-03,4.28762e+01
6.28841e-03,4.06678e+01
6.38197e-03,3.85696e+01
6.47692e-03,3.65766e+01
6.57328e-03,3.46835e+01
6.67107e-03,3.28857e+01
6.77032e-03,3.11784e+01
6.87105e-03,2.95573e+01
6.97327e-03,2.80183e+01
7.07702e-03,2.65572e+01
7.18231e-03,2.51703e+01
7.28916e-03,2.38540e+01
7.39761e-03,2.26048e+01
7.50767e-03,2.14193e+01
7.61936e-03,2.02946e+01
7.73272e-03,1.92274e+01
7.84777e-03,1.82150e+01
7.96452e-03,1.72547e+01
8.08302e-03,1.63438e+01
8.20327e-03,1.54800e+01
8.32532e-03,1.46607e+01
8.44918e-03,1.38839e+01
8.57488e-03,1.31473e+01
8.70245e-03,1.24490e+01
8.83192e-03,1.17870e+01
8.96332e-03,1.11595e+01
9.09668e-03,1.05647e+01
9.23201e-03,1.00009e+01
9.36936e-03,9.46665e+00
9.50876e-03,8.96036e+00
9.65022e-03,8.48062e+00
9.79379e-03,8.02607e+00
9.93950e-03,7.59543e+00
1.00874e-02,7.18745e+00
1.02375e-02,6.80098e+00
1.03898e-02,6.43491e+00
1.05443e-02,6.08818e+00
1.07012e-02,5.75979e+00
1.08604e-02,5.44880e+00
1.10220e-02,5.15429e+00
1.11860e-02,4.87542e+00
1.13524e-02,4.61137e+00
1.15213e-02,4.36137e+00
1.16927e-02,4.12468e+00
1.18667e-02,3.90061e+00
1.20432e-02,3.68850e+00
1.22224e-02,3.48772e+00
1.24042e-02,3.29767e+00
1.25888e-02,3.11779e+00
1.27761e-02,2.94755e+00
1.29661e-02,2.78644e+00
1.31590e-02,2.63398e+00
1.33548e-02,2.48970e+00
1.35535e-02,2.35318e+00
1.37551e-02,2.22401e+00
1.39598e-02,2.10179e+00
1.41675e-02,1.98616e+00
1.43783e-02,1.87677e+00
1.45922e-02,1.77328e+00
1.48093e-02,1.67538e+00
1.50296e-02,1.58277e+00
1.52532e-02,1.49518e+00
1.54801e-02,1.41232e+00
1.57104e-02,1.33396e+00
1.59442e-02,1.25984e+00
1.61814e-02,1.18974e+00
1.64221e-02,1.12345e+00
1.66664e-02,1.06076e+00
1.69144e-02,1.00147e+00
1.71660e-02,9.45411e-01
1.74214e-02,8.92401e-01
1.76806e-02,8.42278e-01
1.79437e-02,7.94884e-01
1.82106e-02,7.50075e-01
1.84816e-02,7.07708e-01
1.87565e-02,6.67654e-01
1.90356e-02,6.29787e-01
1.93188e-02,5.93987e-01
1.96062e-02,5.60145e-01
1.98979e-02,5.28152e-01
2.01939e-02,4.97910e-01
2.04943e-02,4.69323e-01
2.07993e-02,4.42301e-01
2.11087e-02,4.16759e-01
2.14227e-02,3.92617e-01
2.17415e-02,3.69798e-01
2.20649e-02,3.48231e-01
2.23932e-02,3.27847e-01
2.27264e-02,3.08583e-01
2.30645e-02,2.90376e-01
2.34076e-02,2.73169e-01
2.37559e-02,2.56907e-01
2.41093e-02,2.41540e-01
2.44680e-02,2.27018e-01
2.48320e-02,2.13294e-01
2.52014e-02,2.00326e-01
2.55764e-02,1.88072e-01
2.59569e-02,1.76492e-01
2.63431e-02,1.65550e-01
2.67350e-02,1.55212e-01
2.71327e-02,1.45443e-01
2.75364e-02,1.36212e-01
2.79461e-02,1.27491e-01
2.83619e-02,1.19250e-01
2.87838e-02,1.11465e-01
2.92120e-02,1.04109e-01
2.96467e-02,9.71591e-02
3.00877e-02,9.05931e-02
3.05354e-02,8.43897e-02
3.09897e-02,7.85291e-02
3.14507e-02,7.29923e-02
3.19186e-02,6.77616e-02
3.23935e-02,6.28200e-02
3.28754e-02,5.81517e-02
3.33645e-02,5.37416e-02
3.38609e-02,4.95755e-02
3.43647e-02,4.56400e-02
3.48759e-02,4.19222e-02
3.53948e-02,3.84102e-02
3.59214e-02,3.50927e-02
3.64558e-02,3.19589e-02
3.69982e-02,2.89987e-02
3.75486e-02,2.62024e-02
3.81073e-02,2.35611e-02
3.86742e-02,2.10661e-02
3.92496e-02,1.87095e-02
3.98335e-02,1.64834e-02
4.04262e-02,1.43808e-02
4.10276e-02,1.23948e-02
4.16380e-02,1.05189e-02
4.22575e-02,8.74707e-03
4.28862e-02,7.07353e-03
4.35242e-02,5.49285e-03
4.41717e-02,3.99987e-03
4.48289e-02,2.58976e-03
4.54959e-02,1.25791e-03
4.61727e-02,0.00000e+00
