m1=143608.155, m2=3.918, gsp=2.234, rhosp=7739.477
fGW[Hz],dPh[rad]
3.91831e-03,9.84568e+03
3.95900e-03,9.47112e+03
4.00012e-03,9.11067e+03
4.04166e-03,8.76380e+03
4.08363e-03,8.43000e+03
4.12604e-03,8.10880e+03
4.16889e-03,7.79972e+03
4.21218e-03,7.50231e+03
4.25592e-03,7.21613e+03
4.30012e-03,6.94078e+03
4.34478e-03,6.67583e+03
4.38990e-03,6.42091e+03
4.43549e-03,6.17563e+03
4.48155e-03,5.93965e+03
4.52809e-03,5.71260e+03
4.57511e-03,5.49416e+03
4.62263e-03,5.28400e+03
4.67063e-03,5.08182e+03
4.71914e-03,4.88730e+03
4.76815e-03,4.70018e+03
4.81766e-03,4.52016e+03
4.86769e-03,4.34698e+03
4.91824e-03,4.18038e+03
4.96932e-03,4.02012e+03
5.02093e-03,3.86595e+03
5.07307e-03,3.71765e+03
5.12575e-03,3.57500e+03
5.17898e-03,3.43778e+03
5.23277e-03,3.30578e+03
5.28711e-03,3.17882e+03
5.34202e-03,3.05670e+03
5.39749e-03,2.93924e+03
5.45354e-03,2.82625e+03
5.51018e-03,2.71758e+03
5.56740e-03,2.61306e+03
5.62522e-03,2.51253e+03
5.68364e-03,2.41584e+03
5.74266e-03,2.32284e+03
5.80230e-03,2.23340e+03
5.86256e-03,2.14738e+03
5.92344e-03,2.06465e+03
5.98495e-03,1.98509e+03
6.04711e-03,1.90857e+03
6.10991e-03,1.83498e+03
6.17336e-03,1.76420e+03
6.23747e-03,1.69614e+03
6.30224e-03,1.63069e+03
6.36769e-03,1.56774e+03
6.43382e-03,1.50721e+03
6.50064e-03,1.44899e+03
6.56814e-03,1.39301e+03
6.63635e-03,1.33918e+03
6.70527e-03,1.28742e+03
6.77491e-03,1.23764e+03
6.84526e-03,1.18977e+03
6.91635e-03,1.14374e+03
6.98818e-03,1.09948e+03
7.06075e-03,1.05691e+03
7.13408e-03,1.01599e+03
7.20816e-03,9.76634e+02
7.28302e-03,9.38793e+02
7.35865e-03,9.02408e+02
7.43507e-03,8.67422e+02
7.51229e-03,8.33782e+02
7.59030e-03,8.01436e+02
7.66913e-03,7.70334e+02
7.74877e-03,7.40430e+02
7.82924e-03,7.11677e+02
7.91055e-03,6.84031e+02
7.99270e-03,6.57450e+02
8.07570e-03,6.31893e+02
8.15957e-03,6.07320e+02
8.24430e-03,5.83695e+02
8.32992e-03,5.60979e+02
8.41643e-03,5.39140e+02
8.50383e-03,5.18142e+02
8.59214e-03,4.97954e+02
8.68137e-03,4.78545e+02
8.77153e-03,4.59884e+02
8.86262e-03,4.41943e+02
8.95466e-03,4.24695e+02
9.04765e-03,4.08112e+02
9.14161e-03,3.92169e+02
9.23655e-03,3.76841e+02
9.33247e-03,3.62105e+02
9.42939e-03,3.47938e+02
9.52731e-03,3.34319e+02
9.62625e-03,3.21225e+02
9.72622e-03,3.08637e+02
9.82723e-03,2.96536e+02
9.92928e-03,2.84902e+02
1.00324e-02,2.73717e+02
1.01366e-02,2.62965e+02
1.02419e-02,2.52629e+02
1.03482e-02,2.42692e+02
1.04557e-02,2.33139e+02
1.05643e-02,2.23956e+02
1.06740e-02,2.15127e+02
1.07848e-02,2.06641e+02
1.08968e-02,1.98482e+02
1.10100e-02,1.90639e+02
1.11243e-02,1.83100e+02
1.12398e-02,1.75852e+02
1.13566e-02,1.68885e+02
1.14745e-02,1.62187e+02
1.15937e-02,1.55749e+02
1.17141e-02,1.49560e+02
1.18357e-02,1.43610e+02
1.19586e-02,1.37891e+02
1.20828e-02,1.32394e+02
1.22083e-02,1.27109e+02
1.23351e-02,1.22029e+02
1.24632e-02,1.17145e+02
1.25926e-02,1.12451e+02
1.27234e-02,1.07939e+02
1.28555e-02,1.03601e+02
1.29890e-02,9.94318e+01
1.31239e-02,9.54239e+01
1.32602e-02,9.15713e+01
1.33979e-02,8.78680e+01
1.35371e-02,8.43082e+01
1.36776e-02,8.08865e+01
1.38197e-02,7.75973e+01
1.39632e-02,7.44357e+01
1.41082e-02,7.13967e+01
1.42547e-02,6.84755e+01
1.44027e-02,6.56675e+01
1.45523e-02,6.29685e+01
1.47034e-02,6.03741e+01
1.48561e-02,5.78804e+01
1.50104e-02,5.54833e+01
1.51663e-02,5.31793e+01
1.53238e-02,5.09646e+01
1.54829e-02,4.88358e+01
1.56437e-02,4.67897e+01
1.58062e-02,4.48229e+01
1.59703e-02,4.29324e+01
1.61362e-02,4.11153e+01
1.63038e-02,3.93687e+01
1.64731e-02,3.76899e+01
1.66442e-02,3.60762e+01
1.68170e-02,3.45252e+01
1.69916e-02,3.30344e+01
1.71681e-02,3.16014e+01
1.73464e-02,3.02241e+01
1.75265e-02,2.89002e+01
1.77085e-02,2.76278e+01
1.78924e-02,2.64047e+01
1.80783e-02,2.52291e+01
1.82660e-02,2.40992e+01
1.84557e-02,2.30132e+01
1.86474e-02,2.19693e+01
1.88410e-02,2.09659e+01
1.90367e-02,2.00016e+01
1.92344e-02,1.90746e+01
1.94341e-02,1.81837e+01
1.96359e-02,1.73274e+01
1.98399e-02,1.65043e+01
2.00459e-02,1.57133e+01
2.02541e-02,1.49529e+01
2.04644e-02,1.42221e+01
2.06769e-02,1.35197e+01
2.08917e-02,1.28445e+01
2.11086e-02,1.21956e+01
2.13278e-02,1.15719e+01
2.15493e-02,1.09725e+01
2.17731e-02,1.03963e+01
2.19992e-02,9.84253e+00
2.22277e-02,9.31027e+00
2.24585e-02,8.79869e+00
2.26917e-02,8.30700e+00
2.29274e-02,7.83441e+00
2.31655e-02,7.38019e+00
2.34061e-02,6.94363e+00
2.36491e-02,6.52403e+00
2.38947e-02,6.12074e+00
2.41429e-02,5.73313e+00
2.43936e-02,5.36058e+00
2.46469e-02,5.00252e+00
2.49029e-02,4.65837e+00
2.51615e-02,4.32760e+00
2.54228e-02,4.00970e+00
2.56868e-02,3.70415e+00
2.59536e-02,3.41047e+00
2.62231e-02,3.12822e+00
2.64954e-02,2.85694e+00
2.67706e-02,2.59621e+00
2.70486e-02,2.34561e+00
2.73295e-02,2.10476e+00
2.76133e-02,1.87327e+00
2.79001e-02,1.65079e+00
2.81898e-02,1.43695e+00
2.84826e-02,1.23143e+00
2.87784e-02,1.03391e+00
2.90772e-02,8.44061e-01
2.93792e-02,6.61598e-01
2.96843e-02,4.86231e-01
2.99926e-02,3.17684e-01
3.03040e-02,1.55692e-01
3.06187e-02,0.00000e+00
