m1=24517.772, m2=38.154, gsp=2.373, rhosp=43.328
fGW[Hz],dPh[rad]
2.59684e-03,1.81631e+04
2.65271e-03,1.73416e+04
2.70978e-03,1.65565e+04
2.76807e-03,1.58060e+04
2.82762e-03,1.50888e+04
2.88845e-03,1.44033e+04
2.95059e-03,1.37481e+04
3.01407e-03,1.31221e+04
3.07892e-03,1.25237e+04
3.14515e-03,1.19520e+04
3.21282e-03,1.14056e+04
3.28193e-03,1.08835e+04
3.35254e-03,1.03846e+04
3.42467e-03,9.90792e+03
3.49834e-03,9.45247e+03
3.57360e-03,9.01733e+03
3.65048e-03,8.60160e+03
3.72902e-03,8.20443e+03
3.80924e-03,7.82501e+03
3.89119e-03,7.46257e+03
3.97490e-03,7.11635e+03
4.06042e-03,6.78564e+03
4.14777e-03,6.46977e+03
4.23700e-03,6.16808e+03
4.32816e-03,5.87995e+03
4.42127e-03,5.60479e+03
4.51639e-03,5.34202e+03
4.61355e-03,5.09110e+03
4.71280e-03,4.85151e+03
4.81419e-03,4.62274e+03
4.91776e-03,4.40433e+03
5.02356e-03,4.19582e+03
5.13163e-03,3.99676e+03
5.24203e-03,3.80675e+03
5.35481e-03,3.62538e+03
5.47001e-03,3.45227e+03
5.58769e-03,3.28706e+03
5.70790e-03,3.12940e+03
5.83069e-03,2.97895e+03
5.95613e-03,2.83540e+03
6.08427e-03,2.69843e+03
6.21516e-03,2.56777e+03
6.34887e-03,2.44311e+03
6.48546e-03,2.32421e+03
6.62498e-03,2.21081e+03
6.76751e-03,2.10265e+03
6.91310e-03,1.99951e+03
7.06182e-03,1.90116e+03
7.21375e-03,1.80739e+03
7.36894e-03,1.71800e+03
7.52747e-03,1.63278e+03
7.68941e-03,1.55156e+03
7.85484e-03,1.47415e+03
8.02382e-03,1.40038e+03
8.19644e-03,1.33009e+03
8.37278e-03,1.26313e+03
8.55290e-03,1.19934e+03
8.73691e-03,1.13857e+03
8.92487e-03,1.08070e+03
9.11687e-03,1.02559e+03
9.31301e-03,9.73122e+02
9.51336e-03,9.23169e+02
9.71803e-03,8.75619e+02
9.92710e-03,8.30364e+02
1.01407e-02,7.87298e+02
1.03588e-02,7.46322e+02
1.05817e-02,7.07340e+02
1.08093e-02,6.70262e+02
1.10419e-02,6.34998e+02
1.12794e-02,6.01467e+02
1.15221e-02,5.69589e+02
1.17700e-02,5.39286e+02
1.20232e-02,5.10486e+02
1.22818e-02,4.83120e+02
1.25461e-02,4.57120e+02
1.28160e-02,4.32423e+02
1.30917e-02,4.08969e+02
1.33733e-02,3.86698e+02
1.36610e-02,3.65556e+02
1.39549e-02,3.45489e+02
1.42551e-02,3.26447e+02
1.45618e-02,3.08380e+02
1.48751e-02,2.91243e+02
1.51951e-02,2.74991e+02
1.55220e-02,2.59582e+02
1.58559e-02,2.44975e+02
1.61971e-02,2.31132e+02
1.65455e-02,2.18016e+02
1.69015e-02,2.05592e+02
1.72651e-02,1.93826e+02
1.76365e-02,1.82685e+02
1.80159e-02,1.72140e+02
1.84035e-02,1.62161e+02
1.87994e-02,1.52719e+02
1.92039e-02,1.43789e+02
1.96170e-02,1.35344e+02
2.00390e-02,1.27362e+02
2.04701e-02,1.19817e+02
2.09105e-02,1.12688e+02
2.13604e-02,1.05955e+02
2.18199e-02,9.95961e+01
2.22893e-02,9.35931e+01
2.27689e-02,8.79276e+01
2.32587e-02,8.25821e+01
2.37591e-02,7.75399e+01
2.42702e-02,7.27853e+01
2.47924e-02,6.83031e+01
2.53257e-02,6.40789e+01
2.58706e-02,6.00992e+01
2.64271e-02,5.63508e+01
2.69957e-02,5.28214e+01
2.75764e-02,4.94992e+01
2.81697e-02,4.63730e+01
2.87757e-02,4.34320e+01
2.93948e-02,4.06663e+01
3.00272e-02,3.80660e+01
3.06732e-02,3.56221e+01
3.13330e-02,3.33258e+01
3.20071e-02,3.11690e+01
3.26957e-02,2.91437e+01
3.33991e-02,2.72425e+01
3.41176e-02,2.54584e+01
3.48516e-02,2.37846e+01
3.56014e-02,2.22148e+01
3.63673e-02,2.07430e+01
3.71497e-02,1.93635e+01
3.79489e-02,1.80708e+01
3.87653e-02,1.68600e+01
3.95993e-02,1.57261e+01
4.04512e-02,1.46645e+01
4.13215e-02,1.36710e+01
4.22104e-02,1.27414e+01
4.31185e-02,1.18719e+01
4.40461e-02,1.10589e+01
4.49937e-02,1.02988e+01
4.59617e-02,9.58844e+00
4.69505e-02,8.92475e+00
4.79606e-02,8.30483e+00
4.89924e-02,7.72593e+00
5.00463e-02,7.18551e+00
5.11230e-02,6.68112e+00
5.22228e-02,6.21050e+00
5.33463e-02,5.77149e+00
5.44940e-02,5.36208e+00
5.56664e-02,4.98036e+00
5.68639e-02,4.62455e+00
5.80873e-02,4.29298e+00
5.93369e-02,3.98405e+00
6.06135e-02,3.69631e+00
6.19175e-02,3.42834e+00
6.32495e-02,3.17886e+00
6.46102e-02,2.94664e+00
6.60002e-02,2.73053e+00
6.74201e-02,2.52945e+00
6.88706e-02,2.34241e+00
7.03522e-02,2.16845e+00
7.18657e-02,2.00670e+00
7.34118e-02,1.85632e+00
7.49911e-02,1.71655e+00
7.66045e-02,1.58666e+00
7.82525e-02,1.46597e+00
7.99360e-02,1.35386e+00
8.16557e-02,1.24973e+00
8.34123e-02,1.15303e+00
8.52068e-02,1.06324e+00
8.70399e-02,9.79891e-01
8.89124e-02,9.02528e-01
9.08253e-02,8.30733e-01
9.27792e-02,7.64114e-01
9.47752e-02,7.02308e-01
9.68142e-02,6.44976e-01
9.88970e-02,5.91802e-01
1.01025e-01,5.42490e-01
1.03198e-01,4.96767e-01
1.05418e-01,4.54376e-01
1.07686e-01,4.15080e-01
1.10003e-01,3.78658e-01
1.12369e-01,3.44903e-01
1.14787e-01,3.13624e-01
1.17256e-01,2.84642e-01
1.19779e-01,2.57793e-01
1.22356e-01,2.32920e-01
1.24988e-01,2.09882e-01
1.27677e-01,1.88546e-01
1.30424e-01,1.68787e-01
1.33229e-01,1.50491e-01
1.36096e-01,1.33551e-01
1.39024e-01,1.17867e-01
1.42014e-01,1.03349e-01
1.45070e-01,8.99104e-02
1.48191e-01,7.74721e-02
1.51379e-01,6.59605e-02
1.54635e-01,5.53076e-02
1.57962e-01,4.54500e-02
1.61360e-01,3.63289e-02
1.64832e-01,2.78900e-02
1.68378e-01,2.00828e-02
1.72000e-01,1.28604e-02
1.75701e-01,6.17957e-03
1.79480e-01,0.00000e+00
