m1=12570.992, m2=15.224, gsp=2.113, rhosp=559.797
fGW[Hz],dPh[rad]
4.33098e-03,5.34173e+02
4.42764e-03,5.07330e+02
4.52644e-03,4.81812e+02
4.62746e-03,4.57554e+02
4.73072e-03,4.34496e+02
4.83630e-03,4.12578e+02
4.94422e-03,3.91744e+02
5.05456e-03,3.71942e+02
5.16736e-03,3.53121e+02
5.28268e-03,3.35233e+02
5.40057e-03,3.18232e+02
5.52109e-03,3.02074e+02
5.64430e-03,2.86719e+02
5.77025e-03,2.72127e+02
5.89903e-03,2.58261e+02
6.03067e-03,2.45084e+02
6.16525e-03,2.32564e+02
6.30284e-03,2.20667e+02
6.44349e-03,2.09364e+02
6.58729e-03,1.98625e+02
6.73429e-03,1.88423e+02
6.88457e-03,1.78730e+02
7.03821e-03,1.69523e+02
7.19528e-03,1.60777e+02
7.35585e-03,1.52469e+02
7.52001e-03,1.44578e+02
7.68782e-03,1.37083e+02
7.85939e-03,1.29965e+02
8.03478e-03,1.23205e+02
8.21409e-03,1.16786e+02
8.39739e-03,1.10690e+02
8.58479e-03,1.04903e+02
8.77637e-03,9.94075e+01
8.97223e-03,9.41904e+01
9.17245e-03,8.92377e+01
9.37715e-03,8.45362e+01
9.58641e-03,8.00735e+01
9.80034e-03,7.58378e+01
1.00191e-02,7.18178e+01
1.02426e-02,6.80028e+01
1.04712e-02,6.43827e+01
1.07049e-02,6.09478e+01
1.09438e-02,5.76888e+01
1.11880e-02,5.45970e+01
1.14377e-02,5.16641e+01
1.16929e-02,4.88822e+01
1.19539e-02,4.62437e+01
1.22206e-02,4.37415e+01
1.24934e-02,4.13687e+01
1.27722e-02,3.91189e+01
1.30572e-02,3.69859e+01
1.33486e-02,3.49639e+01
1.36465e-02,3.30473e+01
1.39510e-02,3.12307e+01
1.42623e-02,2.95093e+01
1.45806e-02,2.78782e+01
1.49060e-02,2.63327e+01
1.52387e-02,2.48687e+01
1.55787e-02,2.34820e+01
1.59264e-02,2.21687e+01
1.62818e-02,2.09250e+01
1.66451e-02,1.97475e+01
1.70166e-02,1.86327e+01
1.73964e-02,1.75775e+01
1.77846e-02,1.65788e+01
1.81815e-02,1.56338e+01
1.85872e-02,1.47397e+01
1.90020e-02,1.38939e+01
1.94260e-02,1.30939e+01
1.98596e-02,1.23373e+01
2.03028e-02,1.16220e+01
2.07558e-02,1.09457e+01
2.12190e-02,1.03066e+01
2.16926e-02,9.70253e+00
2.21767e-02,9.13182e+00
2.26716e-02,8.59269e+00
2.31775e-02,8.08350e+00
2.36947e-02,7.60267e+00
2.42235e-02,7.14872e+00
2.47641e-02,6.72024e+00
2.53167e-02,6.31588e+00
2.58817e-02,5.93437e+00
2.64593e-02,5.57449e+00
2.70498e-02,5.23509e+00
2.76534e-02,4.91508e+00
2.82705e-02,4.61343e+00
2.89014e-02,4.32914e+00
2.95464e-02,4.06129e+00
3.02058e-02,3.80898e+00
3.08798e-02,3.57137e+00
3.15690e-02,3.34767e+00
3.22735e-02,3.13711e+00
3.29937e-02,2.93897e+00
3.37300e-02,2.75257e+00
3.44827e-02,2.57726e+00
3.52522e-02,2.41242e+00
3.60389e-02,2.25749e+00
3.68432e-02,2.11189e+00
3.76654e-02,1.97510e+00
3.85059e-02,1.84664e+00
3.93652e-02,1.72603e+00
4.02437e-02,1.61282e+00
4.11418e-02,1.50658e+00
4.20599e-02,1.40693e+00
4.29986e-02,1.31348e+00
4.39581e-02,1.22587e+00
4.49391e-02,1.14376e+00
4.59420e-02,1.06684e+00
4.69672e-02,9.94787e-01
4.80154e-02,9.27324e-01
4.90869e-02,8.64178e-01
5.01823e-02,8.05091e-01
5.13022e-02,7.49819e-01
5.24471e-02,6.98134e-01
5.36175e-02,6.49817e-01
5.48140e-02,6.04665e-01
5.60373e-02,5.62483e-01
5.72878e-02,5.23089e-01
5.85663e-02,4.86311e-01
5.98733e-02,4.51986e-01
6.12094e-02,4.19961e-01
6.25754e-02,3.90091e-01
6.39718e-02,3.62241e-01
6.53994e-02,3.36282e-01
6.68589e-02,3.12094e-01
6.83509e-02,2.89563e-01
6.98763e-02,2.68583e-01
7.14356e-02,2.49052e-01
7.30298e-02,2.30877e-01
7.46596e-02,2.13968e-01
7.63257e-02,1.98243e-01
7.80290e-02,1.83623e-01
7.97703e-02,1.70034e-01
8.15505e-02,1.57408e-01
8.33704e-02,1.45680e-01
8.52309e-02,1.34790e-01
8.71329e-02,1.24680e-01
8.90774e-02,1.15297e-01
9.10653e-02,1.06592e-01
9.30975e-02,9.85178e-02
9.51751e-02,9.10309e-02
9.72991e-02,8.40905e-02
9.94704e-02,7.76585e-02
1.01690e-01,7.16992e-02
1.03960e-01,6.61794e-02
1.06280e-01,6.10680e-02
1.08651e-01,5.63360e-02
1.11076e-01,5.19563e-02
1.13555e-01,4.79038e-02
1.16089e-01,4.41548e-02
1.18680e-01,4.06875e-02
1.21328e-01,3.74815e-02
1.24036e-01,3.45178e-02
1.26804e-01,3.17787e-02
1.29633e-01,2.92476e-02
1.32526e-01,2.69094e-02
1.35484e-01,2.47498e-02
1.38507e-01,2.27555e-02
1.41598e-01,2.09143e-02
1.44758e-01,1.92147e-02
1.47989e-01,1.76462e-02
1.51291e-01,1.61990e-02
1.54668e-01,1.48638e-02
1.58119e-01,1.36323e-02
1.61648e-01,1.24966e-02
1.65255e-01,1.14495e-02
1.68943e-01,1.04841e-02
1.72713e-01,9.59426e-03
1.76567e-01,8.77419e-03
1.80508e-01,8.01853e-03
1.84536e-01,7.32232e-03
1.88654e-01,6.68099e-03
1.92864e-01,6.09030e-03
1.97168e-01,5.54631e-03
2.01568e-01,5.04541e-03
2.06067e-01,4.58424e-03
2.10665e-01,4.15971e-03
2.15366e-01,3.76895e-03
2.20173e-01,3.40933e-03
2.25086e-01,3.07839e-03
2.30109e-01,2.77388e-03
2.35244e-01,2.49373e-03
2.40494e-01,2.23601e-03
2.45861e-01,1.99896e-03
2.51348e-01,1.78093e-03
2.56957e-01,1.58042e-03
2.62691e-01,1.39605e-03
2.68553e-01,1.22651e-03
2.74547e-01,1.07065e-03
2.80673e-01,9.27362e-04
2.86937e-01,7.95646e-04
2.93340e-01,6.74578e-04
2.99887e-01,5.63307e-04
3.06579e-01,4.61046e-04
3.13421e-01,3.67073e-04
3.20415e-01,2.80723e-04
3.27565e-01,2.01383e-04
3.34875e-01,1.28488e-04
3.42349e-01,6.15201e-05
3.49989e-01,0.00000e+00
