m1=18299.672, m2=16.325, gsp=2.487, rhosp=2237.501
fGW[Hz],dPh[rad]
3.84086e-03,5.55377e+05
3.92154e-03,5.31076e+05
4.00391e-03,5.07799e+05
4.08801e-03,4.85506e+05
4.17387e-03,4.64154e+05
4.26154e-03,4.43706e+05
4.35105e-03,4.24124e+05
4.44244e-03,4.05372e+05
4.53575e-03,3.87416e+05
4.63102e-03,3.70223e+05
4.72829e-03,3.53761e+05
4.82761e-03,3.38000e+05
4.92901e-03,3.22910e+05
5.03254e-03,3.08465e+05
5.13824e-03,2.94638e+05
5.24617e-03,2.81402e+05
5.35636e-03,2.68734e+05
5.46886e-03,2.56609e+05
5.58373e-03,2.45005e+05
5.70102e-03,2.33900e+05
5.82076e-03,2.23274e+05
5.94302e-03,2.13107e+05
6.06785e-03,2.03379e+05
6.19530e-03,1.94073e+05
6.32543e-03,1.85170e+05
6.45829e-03,1.76654e+05
6.59394e-03,1.68509e+05
6.73244e-03,1.60719e+05
6.87385e-03,1.53269e+05
7.01823e-03,1.46145e+05
7.16564e-03,1.39333e+05
7.31615e-03,1.32821e+05
7.46982e-03,1.26595e+05
7.62672e-03,1.20644e+05
7.78692e-03,1.14957e+05
7.95047e-03,1.09521e+05
8.11747e-03,1.04326e+05
8.28797e-03,9.93628e+04
8.46205e-03,9.46209e+04
8.63979e-03,9.00910e+04
8.82126e-03,8.57642e+04
9.00655e-03,8.16317e+04
9.19572e-03,7.76855e+04
9.38887e-03,7.39175e+04
9.58608e-03,7.03201e+04
9.78743e-03,6.68861e+04
9.99300e-03,6.36085e+04
1.02029e-02,6.04806e+04
1.04172e-02,5.74960e+04
1.06360e-02,5.46484e+04
1.08594e-02,5.19321e+04
1.10875e-02,4.93413e+04
1.13204e-02,4.68707e+04
1.15582e-02,4.45150e+04
1.18009e-02,4.22692e+04
1.20488e-02,4.01286e+04
1.23019e-02,3.80885e+04
1.25603e-02,3.61446e+04
1.28241e-02,3.42927e+04
1.30935e-02,3.25288e+04
1.33685e-02,3.08489e+04
1.36493e-02,2.92493e+04
1.39360e-02,2.77266e+04
1.42287e-02,2.62772e+04
1.45275e-02,2.48980e+04
1.48327e-02,2.35857e+04
1.51442e-02,2.23375e+04
1.54623e-02,2.11503e+04
1.57871e-02,2.00216e+04
1.61187e-02,1.89486e+04
1.64572e-02,1.79287e+04
1.68029e-02,1.69597e+04
1.71559e-02,1.60391e+04
1.75162e-02,1.51648e+04
1.78841e-02,1.43345e+04
1.82598e-02,1.35464e+04
1.86433e-02,1.27983e+04
1.90349e-02,1.20885e+04
1.94347e-02,1.14152e+04
1.98429e-02,1.07766e+04
2.02597e-02,1.01712e+04
2.06852e-02,9.59721e+03
2.11197e-02,9.05332e+03
2.15633e-02,8.53802e+03
2.20162e-02,8.04995e+03
2.24787e-02,7.58779e+03
2.29508e-02,7.15028e+03
2.34329e-02,6.73623e+03
2.39251e-02,6.34448e+03
2.44276e-02,5.97394e+03
2.49407e-02,5.62355e+03
2.54645e-02,5.29231e+03
2.59994e-02,4.97927e+03
2.65455e-02,4.68351e+03
2.71031e-02,4.40415e+03
2.76723e-02,4.14037e+03
2.82536e-02,3.89136e+03
2.88470e-02,3.65636e+03
2.94529e-02,3.43466e+03
3.00716e-02,3.22556e+03
3.07032e-02,3.02840e+03
3.13481e-02,2.84256e+03
3.20065e-02,2.66743e+03
3.26788e-02,2.50245e+03
3.33652e-02,2.34707e+03
3.40660e-02,2.20078e+03
3.47815e-02,2.06309e+03
3.55121e-02,1.93353e+03
3.62580e-02,1.81165e+03
3.70196e-02,1.69704e+03
3.77972e-02,1.58928e+03
3.85911e-02,1.48801e+03
3.94016e-02,1.39285e+03
4.02292e-02,1.30346e+03
4.10742e-02,1.21952e+03
4.19370e-02,1.14072e+03
4.28178e-02,1.06675e+03
4.37172e-02,9.97356e+02
4.46354e-02,9.32258e+02
4.55729e-02,8.71210e+02
4.65302e-02,8.13976e+02
4.75075e-02,7.60331e+02
4.85054e-02,7.10064e+02
4.95242e-02,6.62974e+02
5.05644e-02,6.18871e+02
5.16265e-02,5.77578e+02
5.27108e-02,5.38923e+02
5.38180e-02,5.02749e+02
5.49484e-02,4.68903e+02
5.61025e-02,4.37244e+02
5.72809e-02,4.07636e+02
5.84841e-02,3.79955e+02
5.97125e-02,3.54080e+02
6.09667e-02,3.29898e+02
6.22473e-02,3.07305e+02
6.35547e-02,2.86200e+02
6.48896e-02,2.66490e+02
6.62526e-02,2.48085e+02
6.76442e-02,2.30904e+02
6.90650e-02,2.14868e+02
7.05157e-02,1.99904e+02
7.19968e-02,1.85943e+02
7.35090e-02,1.72920e+02
7.50530e-02,1.60774e+02
7.66295e-02,1.49449e+02
7.82390e-02,1.38890e+02
7.98824e-02,1.29048e+02
8.15602e-02,1.19876e+02
8.32733e-02,1.11329e+02
8.50224e-02,1.03366e+02
8.68083e-02,9.59487e+01
8.86316e-02,8.90403e+01
9.04932e-02,8.26071e+01
9.23940e-02,7.66172e+01
9.43346e-02,7.10410e+01
9.63161e-02,6.58505e+01
9.83391e-02,6.10198e+01
1.00405e-01,5.65245e+01
1.02514e-01,5.23419e+01
1.04667e-01,4.84508e+01
1.06865e-01,4.48312e+01
1.09110e-01,4.14647e+01
1.11402e-01,3.83339e+01
1.13742e-01,3.54226e+01
1.16131e-01,3.27159e+01
1.18570e-01,3.01995e+01
1.21060e-01,2.78603e+01
1.23603e-01,2.56861e+01
1.26199e-01,2.36654e+01
1.28850e-01,2.17877e+01
1.31556e-01,2.00428e+01
1.34320e-01,1.84217e+01
1.37141e-01,1.69156e+01
1.40021e-01,1.55165e+01
1.42963e-01,1.42170e+01
1.45965e-01,1.30100e+01
1.49031e-01,1.18890e+01
1.52162e-01,1.08480e+01
1.55358e-01,9.88131e+00
1.58621e-01,8.98376e+00
1.61952e-01,8.15043e+00
1.65354e-01,7.37679e+00
1.68827e-01,6.65860e+00
1.72373e-01,5.99194e+00
1.75994e-01,5.37314e+00
1.79691e-01,4.79881e+00
1.83465e-01,4.26578e+00
1.87318e-01,3.77110e+00
1.91253e-01,3.31205e+00
1.95270e-01,2.88608e+00
1.99371e-01,2.49083e+00
2.03559e-01,2.12410e+00
2.07835e-01,1.78385e+00
2.12200e-01,1.46819e+00
2.16657e-01,1.17534e+00
2.21208e-01,9.03678e-01
2.25854e-01,6.51676e-01
2.30598e-01,4.17922e-01
2.35442e-01,2.01103e-01
2.40387e-01,0.00000e+00
