m1=517927.072, m2=11.382, gsp=2.095, rhosp=170.146
fGW[Hz],dPh[rad]
1.90620e-03,9.94794e+01
1.92056e-03,9.65999e+01
1.93503e-03,9.38033e+01
1.94961e-03,9.10870e+01
1.96430e-03,8.84489e+01
1.97910e-03,8.58867e+01
1.99401e-03,8.33983e+01
2.00904e-03,8.09814e+01
2.02417e-03,7.86341e+01
2.03943e-03,7.63544e+01
2.05479e-03,7.41404e+01
2.07027e-03,7.19901e+01
2.08587e-03,6.99017e+01
2.10159e-03,6.78735e+01
2.11742e-03,6.59037e+01
2.13338e-03,6.39907e+01
2.14945e-03,6.21327e+01
2.16565e-03,6.03284e+01
2.18196e-03,5.85760e+01
2.19840e-03,5.68742e+01
2.21497e-03,5.52214e+01
2.23166e-03,5.36163e+01
2.24847e-03,5.20574e+01
2.26541e-03,5.05435e+01
2.28248e-03,4.90733e+01
2.29968e-03,4.76455e+01
2.31700e-03,4.62589e+01
2.33446e-03,4.49123e+01
2.35205e-03,4.36045e+01
2.36977e-03,4.23345e+01
2.38763e-03,4.11012e+01
2.40562e-03,3.99034e+01
2.42374e-03,3.87403e+01
2.44200e-03,3.76107e+01
2.46040e-03,3.65137e+01
2.47894e-03,3.54484e+01
2.49762e-03,3.44139e+01
2.51644e-03,3.34093e+01
2.53540e-03,3.24336e+01
2.55450e-03,3.14862e+01
2.57375e-03,3.05661e+01
2.59314e-03,2.96727e+01
2.61268e-03,2.88050e+01
2.63236e-03,2.79624e+01
2.65220e-03,2.71442e+01
2.67218e-03,2.63496e+01
2.69231e-03,2.55780e+01
2.71260e-03,2.48287e+01
2.73304e-03,2.41011e+01
2.75363e-03,2.33945e+01
2.77438e-03,2.27083e+01
2.79528e-03,2.20420e+01
2.81634e-03,2.13949e+01
2.83756e-03,2.07666e+01
2.85894e-03,2.01565e+01
2.88048e-03,1.95640e+01
2.90219e-03,1.89886e+01
2.92405e-03,1.84299e+01
2.94608e-03,1.78873e+01
2.96828e-03,1.73605e+01
2.99065e-03,1.68489e+01
3.01318e-03,1.63521e+01
3.03588e-03,1.58697e+01
3.05876e-03,1.54013e+01
3.08180e-03,1.49464e+01
3.10502e-03,1.45047e+01
3.12842e-03,1.40758e+01
3.15199e-03,1.36593e+01
3.17574e-03,1.32548e+01
3.19966e-03,1.28621e+01
3.22377e-03,1.24807e+01
3.24806e-03,1.21104e+01
3.27253e-03,1.17508e+01
3.29719e-03,1.14017e+01
3.32203e-03,1.10626e+01
3.34706e-03,1.07334e+01
3.37228e-03,1.04137e+01
3.39769e-03,1.01033e+01
3.42329e-03,9.80184e+00
3.44908e-03,9.50914e+00
3.47507e-03,9.22493e+00
3.50125e-03,8.94895e+00
3.52763e-03,8.68097e+00
3.55421e-03,8.42076e+00
3.58099e-03,8.16809e+00
3.60797e-03,7.92274e+00
3.63516e-03,7.68451e+00
3.66255e-03,7.45318e+00
3.69014e-03,7.22857e+00
3.71795e-03,7.01046e+00
3.74596e-03,6.79868e+00
3.77418e-03,6.59304e+00
3.80262e-03,6.39336e+00
3.83127e-03,6.19947e+00
3.86014e-03,6.01121e+00
3.88922e-03,5.82840e+00
3.91853e-03,5.65090e+00
3.94805e-03,5.47855e+00
3.97780e-03,5.31120e+00
4.00777e-03,5.14870e+00
4.03797e-03,4.99091e+00
4.06839e-03,4.83771e+00
4.09904e-03,4.68894e+00
4.12993e-03,4.54450e+00
4.16104e-03,4.40424e+00
4.19240e-03,4.26806e+00
4.22398e-03,4.13583e+00
4.25581e-03,4.00743e+00
4.28787e-03,3.88276e+00
4.32018e-03,3.76171e+00
4.35273e-03,3.64417e+00
4.38553e-03,3.53004e+00
4.41857e-03,3.41923e+00
4.45186e-03,3.31163e+00
4.48541e-03,3.20716e+00
4.51920e-03,3.10571e+00
4.55325e-03,3.00722e+00
4.58756e-03,2.91158e+00
4.62212e-03,2.81872e+00
4.65695e-03,2.72855e+00
4.69204e-03,2.64100e+00
4.72739e-03,2.55600e+00
4.76301e-03,2.47346e+00
4.79889e-03,2.39332e+00
4.83505e-03,2.31551e+00
4.87148e-03,2.23995e+00
4.90819e-03,2.16659e+00
4.94517e-03,2.09536e+00
4.98243e-03,2.02620e+00
5.01997e-03,1.95905e+00
5.05779e-03,1.89385e+00
5.09590e-03,1.83054e+00
5.13429e-03,1.76907e+00
5.17298e-03,1.70939e+00
5.21195e-03,1.65144e+00
5.25122e-03,1.59517e+00
5.29079e-03,1.54054e+00
5.33065e-03,1.48749e+00
5.37082e-03,1.43599e+00
5.41128e-03,1.38598e+00
5.45205e-03,1.33742e+00
5.49313e-03,1.29028e+00
5.53452e-03,1.24450e+00
5.57622e-03,1.20006e+00
5.61824e-03,1.15691e+00
5.66057e-03,1.11501e+00
5.70322e-03,1.07432e+00
5.74619e-03,1.03482e+00
5.78948e-03,9.96472e-01
5.83310e-03,9.59234e-01
5.87705e-03,9.23078e-01
5.92133e-03,8.87973e-01
5.96595e-03,8.53888e-01
6.01090e-03,8.20794e-01
6.05619e-03,7.88662e-01
6.10182e-03,7.57463e-01
6.14779e-03,7.27171e-01
6.19411e-03,6.97760e-01
6.24078e-03,6.69203e-01
6.28781e-03,6.41477e-01
6.33518e-03,6.14556e-01
6.38291e-03,5.88418e-01
6.43101e-03,5.63040e-01
6.47946e-03,5.38399e-01
6.52828e-03,5.14475e-01
6.57747e-03,4.91246e-01
6.62703e-03,4.68692e-01
6.67696e-03,4.46794e-01
6.72727e-03,4.25533e-01
6.77795e-03,4.04890e-01
6.82902e-03,3.84847e-01
6.88047e-03,3.65386e-01
6.93232e-03,3.46492e-01
6.98455e-03,3.28146e-01
7.03717e-03,3.10334e-01
7.09019e-03,2.93040e-01
7.14362e-03,2.76249e-01
7.19744e-03,2.59946e-01
7.25167e-03,2.44118e-01
7.30631e-03,2.28749e-01
7.36136e-03,2.13827e-01
7.41682e-03,1.99339e-01
7.47270e-03,1.85273e-01
7.52901e-03,1.71615e-01
7.58573e-03,1.58355e-01
7.64289e-03,1.45480e-01
7.70048e-03,1.32980e-01
7.75849e-03,1.20843e-01
7.81695e-03,1.09059e-01
7.87585e-03,9.76179e-02
7.93519e-03,8.65095e-02
7.99498e-03,7.57241e-02
8.05522e-03,6.52525e-02
8.11591e-03,5.50853e-02
8.17706e-03,4.52139e-02
8.23867e-03,3.56296e-02
8.30074e-03,2.63240e-02
8.36328e-03,1.72891e-02
8.42630e-03,8.51697e-03
8.48979e-03,0.00000e+00
