m1=1327.696, m2=38.721, gsp=2.004, rhosp=4939.010
fGW[Hz],dPh[rad]
5.37175e-03,8.99635e+00
5.54839e-03,8.34271e+00
5.73084e-03,7.73656e+00
5.91929e-03,7.17443e+00
6.11393e-03,6.65314e+00
6.31498e-03,6.16973e+00
6.52264e-03,5.72143e+00
6.73712e-03,5.30569e+00
6.95866e-03,4.92016e+00
7.18748e-03,4.56264e+00
7.42383e-03,4.23109e+00
7.66795e-03,3.92363e+00
7.92009e-03,3.63850e+00
8.18053e-03,3.37409e+00
8.44953e-03,3.12889e+00
8.72738e-03,2.90150e+00
9.01436e-03,2.69063e+00
9.31079e-03,2.49508e+00
9.61695e-03,2.31374e+00
9.93319e-03,2.14558e+00
1.02598e-02,1.98963e+00
1.05972e-02,1.84501e+00
1.09457e-02,1.71090e+00
1.13056e-02,1.58654e+00
1.16774e-02,1.47121e+00
1.20613e-02,1.36426e+00
1.24580e-02,1.26508e+00
1.28676e-02,1.17310e+00
1.32908e-02,1.08781e+00
1.37278e-02,1.00872e+00
1.41792e-02,9.35376e-01
1.46455e-02,8.67361e-01
1.51271e-02,8.04288e-01
1.56245e-02,7.45799e-01
1.61383e-02,6.91560e-01
1.66689e-02,6.41262e-01
1.72171e-02,5.94620e-01
1.77832e-02,5.51368e-01
1.83680e-02,5.11259e-01
1.89720e-02,4.74066e-01
1.95958e-02,4.39575e-01
2.02402e-02,4.07592e-01
2.09058e-02,3.77933e-01
2.15932e-02,3.50430e-01
2.23033e-02,3.24927e-01
2.30367e-02,3.01277e-01
2.37942e-02,2.79346e-01
2.45766e-02,2.59010e-01
2.53848e-02,2.40153e-01
2.62195e-02,2.22666e-01
2.70817e-02,2.06451e-01
2.79722e-02,1.91415e-01
2.88920e-02,1.77472e-01
2.98421e-02,1.64543e-01
3.08234e-02,1.52555e-01
3.18370e-02,1.41438e-01
3.28839e-02,1.31130e-01
3.39652e-02,1.21571e-01
3.50821e-02,1.12708e-01
3.62357e-02,1.04490e-01
3.74272e-02,9.68697e-02
3.86580e-02,8.98037e-02
3.99292e-02,8.32519e-02
4.12422e-02,7.71769e-02
4.25983e-02,7.15440e-02
4.39991e-02,6.63210e-02
4.54459e-02,6.14783e-02
4.69403e-02,5.69881e-02
4.84839e-02,5.28248e-02
5.00782e-02,4.89646e-02
5.17249e-02,4.53856e-02
5.34258e-02,4.20672e-02
5.51826e-02,3.89905e-02
5.69972e-02,3.61380e-02
5.88714e-02,3.34933e-02
6.08073e-02,3.10413e-02
6.28068e-02,2.87680e-02
6.48721e-02,2.66605e-02
6.70053e-02,2.47066e-02
6.92087e-02,2.28952e-02
7.14845e-02,2.12158e-02
7.38351e-02,1.96590e-02
7.62630e-02,1.82158e-02
7.87708e-02,1.68779e-02
8.13610e-02,1.56377e-02
8.40365e-02,1.44880e-02
8.67998e-02,1.34223e-02
8.96541e-02,1.24344e-02
9.26022e-02,1.15187e-02
9.56473e-02,1.06699e-02
9.87924e-02,9.88318e-03
1.02041e-01,9.15399e-03
1.05396e-01,8.47815e-03
1.08862e-01,7.85176e-03
1.12442e-01,7.27123e-03
1.16139e-01,6.73321e-03
1.19958e-01,6.23461e-03
1.23903e-01,5.77255e-03
1.27977e-01,5.34437e-03
1.32186e-01,4.94759e-03
1.36532e-01,4.57993e-03
1.41022e-01,4.23927e-03
1.45659e-01,3.92363e-03
1.50449e-01,3.63119e-03
1.55396e-01,3.36025e-03
1.60506e-01,3.10925e-03
1.65784e-01,2.87672e-03
1.71236e-01,2.66133e-03
1.76866e-01,2.46181e-03
1.82682e-01,2.27702e-03
1.88689e-01,2.10586e-03
1.94894e-01,1.94734e-03
2.01303e-01,1.80055e-03
2.07922e-01,1.66462e-03
2.14760e-01,1.53875e-03
2.21821e-01,1.42221e-03
2.29116e-01,1.31432e-03
2.36650e-01,1.21444e-03
2.44432e-01,1.12198e-03
2.52469e-01,1.03640e-03
2.60771e-01,9.57201e-04
2.69346e-01,8.83905e-04
2.78203e-01,8.16081e-04
2.87351e-01,7.53328e-04
2.96800e-01,6.95271e-04
3.06560e-01,6.41567e-04
3.16641e-01,5.91893e-04
3.27053e-01,5.45953e-04
3.37807e-01,5.03471e-04
3.48916e-01,4.64192e-04
3.60389e-01,4.27880e-04
3.72240e-01,3.94315e-04
3.84480e-01,3.63294e-04
3.97123e-01,3.34628e-04
4.10182e-01,3.08143e-04
4.23670e-01,2.83677e-04
4.37601e-01,2.61080e-04
4.51991e-01,2.40213e-04
4.66854e-01,2.20947e-04
4.82206e-01,2.03162e-04
4.98062e-01,1.86749e-04
5.14440e-01,1.71604e-04
5.31356e-01,1.57633e-04
5.48829e-01,1.44747e-04
5.66876e-01,1.32866e-04
5.85517e-01,1.21913e-04
6.04771e-01,1.11818e-04
6.24657e-01,1.02518e-04
6.45198e-01,9.39506e-05
6.66414e-01,8.60616e-05
6.88328e-01,7.87993e-05
7.10963e-01,7.21158e-05
7.34341e-01,6.59671e-05
7.58489e-01,6.03121e-05
7.83430e-01,5.51131e-05
8.09192e-01,5.03351e-05
8.35801e-01,4.59454e-05
8.63284e-01,4.19141e-05
8.91672e-01,3.82135e-05
9.20993e-01,3.48177e-05
9.51278e-01,3.17030e-05
9.82559e-01,2.88473e-05
1.01487e+00,2.62303e-05
1.04824e+00,2.38331e-05
1.08271e+00,2.16383e-05
1.11831e+00,1.96298e-05
1.15509e+00,1.77926e-05
1.19307e+00,1.61132e-05
1.23230e+00,1.45786e-05
1.27282e+00,1.31772e-05
1.31468e+00,1.18982e-05
1.35791e+00,1.07314e-05
1.40256e+00,9.66776e-06
1.44868e+00,8.69861e-06
1.49632e+00,7.81613e-06
1.54552e+00,7.01304e-06
1.59634e+00,6.28268e-06
1.64884e+00,5.61887e-06
1.70306e+00,5.01593e-06
1.75906e+00,4.46865e-06
1.81690e+00,3.97221e-06
1.87665e+00,3.52220e-06
1.93836e+00,3.11453e-06
2.00210e+00,2.74549e-06
2.06793e+00,2.41164e-06
2.13593e+00,2.10983e-06
2.20617e+00,1.83718e-06
2.27871e+00,1.59105e-06
2.35365e+00,1.36899e-06
2.43104e+00,1.16881e-06
2.51098e+00,9.88475e-07
2.59355e+00,8.26124e-07
2.67883e+00,6.80068e-07
2.76692e+00,5.48762e-07
2.85791e+00,4.30798e-07
2.95188e+00,3.24890e-07
3.04895e+00,2.29872e-07
3.14921e+00,1.44680e-07
3.25277e+00,6.83486e-08
3.35973e+00,0.00000e+00
