m1=91270.281, m2=8.146, gsp=2.294, rhosp=323.935
fGW[Hz],dPh[rad]
3.33522e-03,2.17719e+04
3.38027e-03,2.08101e+04
3.42594e-03,1.98890e+04
3.47222e-03,1.90070e+04
3.51913e-03,1.81625e+04
3.56667e-03,1.73540e+04
3.61485e-03,1.65801e+04
3.66369e-03,1.58393e+04
3.71318e-03,1.51303e+04
3.76334e-03,1.44518e+04
3.81418e-03,1.38026e+04
3.86571e-03,1.31815e+04
3.91793e-03,1.25873e+04
3.97086e-03,1.20189e+04
4.02451e-03,1.14753e+04
4.07888e-03,1.09554e+04
4.13398e-03,1.04582e+04
4.18983e-03,9.98279e+03
4.24643e-03,9.52829e+03
4.30379e-03,9.09379e+03
4.36194e-03,8.67846e+03
4.42086e-03,8.28149e+03
4.48059e-03,7.90209e+03
4.54112e-03,7.53954e+03
4.60246e-03,7.19311e+03
4.66464e-03,6.86211e+03
4.72766e-03,6.54589e+03
4.79152e-03,6.24382e+03
4.85626e-03,5.95528e+03
4.92186e-03,5.67970e+03
4.98835e-03,5.41652e+03
5.05574e-03,5.16519e+03
5.12404e-03,4.92521e+03
5.19326e-03,4.69608e+03
5.26342e-03,4.47733e+03
5.33453e-03,4.26851e+03
5.40659e-03,4.06918e+03
5.47963e-03,3.87893e+03
5.55366e-03,3.69736e+03
5.62869e-03,3.52407e+03
5.70473e-03,3.35872e+03
5.78179e-03,3.20095e+03
5.85990e-03,3.05041e+03
5.93907e-03,2.90680e+03
6.01930e-03,2.76979e+03
6.10062e-03,2.63911e+03
6.18303e-03,2.51445e+03
6.26656e-03,2.39556e+03
6.35122e-03,2.28218e+03
6.43702e-03,2.17405e+03
6.52398e-03,2.07094e+03
6.61211e-03,1.97263e+03
6.70144e-03,1.87889e+03
6.79197e-03,1.78952e+03
6.88373e-03,1.70432e+03
6.97672e-03,1.62311e+03
7.07097e-03,1.54569e+03
7.16650e-03,1.47190e+03
7.26331e-03,1.40157e+03
7.36143e-03,1.33454e+03
7.46088e-03,1.27067e+03
7.56167e-03,1.20980e+03
7.66383e-03,1.15179e+03
7.76736e-03,1.09653e+03
7.87229e-03,1.04387e+03
7.97864e-03,9.93700e+02
8.08643e-03,9.45905e+02
8.19567e-03,9.00373e+02
8.30639e-03,8.57000e+02
8.41861e-03,8.15685e+02
8.53234e-03,7.76333e+02
8.64760e-03,7.38852e+02
8.76443e-03,7.03154e+02
8.88283e-03,6.69157e+02
9.00283e-03,6.36780e+02
9.12445e-03,6.05948e+02
9.24772e-03,5.76589e+02
9.37265e-03,5.48633e+02
9.49927e-03,5.22014e+02
9.62760e-03,4.96670e+02
9.75766e-03,4.72540e+02
9.88948e-03,4.49567e+02
1.00231e-02,4.27696e+02
1.01585e-02,4.06876e+02
1.02957e-02,3.87056e+02
1.04348e-02,3.68189e+02
1.05758e-02,3.50231e+02
1.07186e-02,3.33137e+02
1.08635e-02,3.16867e+02
1.10102e-02,3.01382e+02
1.11590e-02,2.86644e+02
1.13097e-02,2.72618e+02
1.14625e-02,2.59269e+02
1.16173e-02,2.46566e+02
1.17743e-02,2.34477e+02
1.19333e-02,2.22974e+02
1.20946e-02,2.12027e+02
1.22579e-02,2.01612e+02
1.24235e-02,1.91701e+02
1.25914e-02,1.82271e+02
1.27615e-02,1.73299e+02
1.29339e-02,1.64762e+02
1.31086e-02,1.56640e+02
1.32857e-02,1.48914e+02
1.34652e-02,1.41563e+02
1.36471e-02,1.34569e+02
1.38315e-02,1.27916e+02
1.40183e-02,1.21588e+02
1.42077e-02,1.15567e+02
1.43996e-02,1.09841e+02
1.45942e-02,1.04393e+02
1.47913e-02,9.92114e+01
1.49911e-02,9.42827e+01
1.51937e-02,8.95946e+01
1.53989e-02,8.51357e+01
1.56069e-02,8.08946e+01
1.58178e-02,7.68609e+01
1.60315e-02,7.30245e+01
1.62480e-02,6.93758e+01
1.64675e-02,6.59057e+01
1.66900e-02,6.26056e+01
1.69155e-02,5.94670e+01
1.71440e-02,5.64823e+01
1.73756e-02,5.36439e+01
1.76103e-02,5.09446e+01
1.78482e-02,4.83777e+01
1.80894e-02,4.59368e+01
1.83337e-02,4.36157e+01
1.85814e-02,4.14085e+01
1.88324e-02,3.93097e+01
1.90869e-02,3.73140e+01
1.93447e-02,3.54163e+01
1.96060e-02,3.36119e+01
1.98709e-02,3.18963e+01
2.01393e-02,3.02649e+01
2.04114e-02,2.87139e+01
2.06872e-02,2.72391e+01
2.09666e-02,2.58369e+01
2.12499e-02,2.45038e+01
2.15370e-02,2.32362e+01
2.18279e-02,2.20311e+01
2.21228e-02,2.08854e+01
2.24216e-02,1.97961e+01
2.27246e-02,1.87605e+01
2.30315e-02,1.77759e+01
2.33427e-02,1.68399e+01
2.36580e-02,1.59500e+01
2.39776e-02,1.51040e+01
2.43016e-02,1.42998e+01
2.46299e-02,1.35352e+01
2.49626e-02,1.28084e+01
2.52998e-02,1.21174e+01
2.56416e-02,1.14606e+01
2.59880e-02,1.08361e+01
2.63391e-02,1.02426e+01
2.66949e-02,9.67829e+00
2.70556e-02,9.14190e+00
2.74211e-02,8.63201e+00
2.77915e-02,8.14731e+00
2.81669e-02,7.68657e+00
2.85475e-02,7.24861e+00
2.89331e-02,6.83229e+00
2.93240e-02,6.43657e+00
2.97201e-02,6.06041e+00
3.01216e-02,5.70285e+00
3.05286e-02,5.36298e+00
3.09410e-02,5.03993e+00
3.13590e-02,4.73286e+00
3.17826e-02,4.44099e+00
3.22120e-02,4.16356e+00
3.26471e-02,3.89986e+00
3.30882e-02,3.64922e+00
3.35352e-02,3.41098e+00
3.39882e-02,3.18454e+00
3.44474e-02,2.96932e+00
3.49127e-02,2.76475e+00
3.53844e-02,2.57032e+00
3.58624e-02,2.38551e+00
3.63469e-02,2.20987e+00
3.68379e-02,2.04292e+00
3.73356e-02,1.88425e+00
3.78400e-02,1.73344e+00
3.83512e-02,1.59010e+00
3.88693e-02,1.45387e+00
3.93944e-02,1.32439e+00
3.99265e-02,1.20133e+00
4.04659e-02,1.08437e+00
4.10126e-02,9.73208e-01
4.15667e-02,8.67560e-01
4.21282e-02,7.67150e-01
4.26973e-02,6.71720e-01
4.32741e-02,5.81023e-01
4.38587e-02,4.94824e-01
4.44512e-02,4.12901e-01
4.50518e-02,3.35043e-01
4.56604e-02,2.61047e-01
4.62772e-02,1.90722e-01
4.69024e-02,1.23886e-01
4.75360e-02,6.03670e-02
4.81782e-02,0.00000e+00
