m1=2651.864, m2=63.723, gsp=2.121, rhosp=5146.234
fGW[Hz],dPh[rad]
3.74629e-03,7.19058e+01
3.86300e-03,6.71023e+01
3.98333e-03,6.26196e+01
4.10742e-03,5.84363e+01
4.23537e-03,5.45323e+01
4.36731e-03,5.08890e+01
4.50336e-03,4.74891e+01
4.64364e-03,4.43162e+01
4.78830e-03,4.13552e+01
4.93746e-03,3.85920e+01
5.09127e-03,3.60133e+01
5.24987e-03,3.36068e+01
5.41341e-03,3.13611e+01
5.58205e-03,2.92653e+01
5.75593e-03,2.73095e+01
5.93524e-03,2.54844e+01
6.12013e-03,2.37811e+01
6.31078e-03,2.21916e+01
6.50737e-03,2.07083e+01
6.71008e-03,1.93241e+01
6.91911e-03,1.80323e+01
7.13465e-03,1.68268e+01
7.35691e-03,1.57018e+01
7.58608e-03,1.46520e+01
7.82240e-03,1.36723e+01
8.06608e-03,1.27581e+01
8.31735e-03,1.19049e+01
8.57645e-03,1.11088e+01
8.84361e-03,1.03658e+01
9.11911e-03,9.67247e+00
9.40318e-03,9.02546e+00
9.69610e-03,8.42168e+00
9.99815e-03,7.85824e+00
1.03096e-02,7.33245e+00
1.06308e-02,6.84179e+00
1.09619e-02,6.38392e+00
1.13034e-02,5.95665e+00
1.16555e-02,5.55793e+00
1.20186e-02,5.18586e+00
1.23930e-02,4.83866e+00
1.27791e-02,4.51467e+00
1.31771e-02,4.21233e+00
1.35876e-02,3.93020e+00
1.40109e-02,3.66693e+00
1.44474e-02,3.42126e+00
1.48974e-02,3.19202e+00
1.53615e-02,2.97810e+00
1.58400e-02,2.77849e+00
1.63335e-02,2.59222e+00
1.68423e-02,2.41841e+00
1.73669e-02,2.25623e+00
1.79079e-02,2.10489e+00
1.84658e-02,1.96367e+00
1.90410e-02,1.83191e+00
1.96342e-02,1.70895e+00
2.02458e-02,1.59423e+00
2.08765e-02,1.48718e+00
2.15268e-02,1.38729e+00
2.21974e-02,1.29409e+00
2.28889e-02,1.20713e+00
2.36019e-02,1.12599e+00
2.43372e-02,1.05028e+00
2.50953e-02,9.79639e-01
2.58771e-02,9.13730e-01
2.66832e-02,8.52236e-01
2.75144e-02,7.94860e-01
2.83715e-02,7.41329e-01
2.92553e-02,6.91385e-01
3.01666e-02,6.44787e-01
3.11064e-02,6.01313e-01
3.20754e-02,5.60754e-01
3.30746e-02,5.22914e-01
3.41049e-02,4.87612e-01
3.51673e-02,4.54677e-01
3.62628e-02,4.23953e-01
3.73925e-02,3.95290e-01
3.85573e-02,3.68552e-01
3.97584e-02,3.43608e-01
4.09969e-02,3.20340e-01
4.22740e-02,2.98635e-01
4.35909e-02,2.78388e-01
4.49489e-02,2.59502e-01
4.63491e-02,2.41885e-01
4.77929e-02,2.25454e-01
4.92817e-02,2.10128e-01
5.08169e-02,1.95833e-01
5.23999e-02,1.82500e-01
5.40323e-02,1.70066e-01
5.57155e-02,1.58469e-01
5.74511e-02,1.47654e-01
5.92408e-02,1.37568e-01
6.10862e-02,1.28163e-01
6.29891e-02,1.19392e-01
6.49513e-02,1.11213e-01
6.69746e-02,1.03587e-01
6.90610e-02,9.64765e-02
7.12123e-02,8.98467e-02
7.34307e-02,8.36655e-02
7.57182e-02,7.79028e-02
7.80769e-02,7.25305e-02
8.05091e-02,6.75224e-02
8.30171e-02,6.28540e-02
8.56031e-02,5.85025e-02
8.82698e-02,5.44466e-02
9.10195e-02,5.06665e-02
9.38549e-02,4.71435e-02
9.67786e-02,4.38604e-02
9.97934e-02,4.08011e-02
1.02902e-01,3.79504e-02
1.06108e-01,3.52943e-02
1.09413e-01,3.28198e-02
1.12821e-01,3.05146e-02
1.16336e-01,2.83672e-02
1.19960e-01,2.63671e-02
1.23697e-01,2.45042e-02
1.27550e-01,2.27693e-02
1.31524e-01,2.11538e-02
1.35621e-01,1.96496e-02
1.39846e-01,1.82491e-02
1.44202e-01,1.69454e-02
1.48694e-01,1.57319e-02
1.53326e-01,1.46024e-02
1.58102e-01,1.35513e-02
1.63027e-01,1.25733e-02
1.68106e-01,1.16634e-02
1.73343e-01,1.08169e-02
1.78743e-01,1.00296e-02
1.84311e-01,9.29734e-03
1.90052e-01,8.61647e-03
1.95973e-01,7.98346e-03
2.02077e-01,7.39502e-03
2.08372e-01,6.84813e-03
2.14864e-01,6.33992e-03
2.21557e-01,5.86775e-03
2.28459e-01,5.42915e-03
2.35575e-01,5.02181e-03
2.42914e-01,4.64357e-03
2.50481e-01,4.29243e-03
2.58284e-01,3.96652e-03
2.66330e-01,3.66409e-03
2.74626e-01,3.38353e-03
2.83181e-01,3.12330e-03
2.92003e-01,2.88201e-03
3.01099e-01,2.65832e-03
3.10479e-01,2.45101e-03
3.20151e-01,2.25894e-03
3.30124e-01,2.08103e-03
3.40408e-01,1.91629e-03
3.51012e-01,1.76380e-03
3.61946e-01,1.62269e-03
3.73221e-01,1.49214e-03
3.84848e-01,1.37142e-03
3.96836e-01,1.25983e-03
4.09198e-01,1.15670e-03
4.21945e-01,1.06143e-03
4.35090e-01,9.73468e-04
4.48643e-01,8.92273e-04
4.62619e-01,8.17358e-04
4.77030e-01,7.48268e-04
4.91890e-01,6.84576e-04
5.07213e-01,6.25887e-04
5.23014e-01,5.71833e-04
5.39306e-01,5.22070e-04
5.56107e-01,4.76281e-04
5.73430e-01,4.34168e-04
5.91293e-01,3.95457e-04
6.09713e-01,3.59889e-04
6.28706e-01,3.27228e-04
6.48291e-01,2.97251e-04
6.68487e-01,2.69753e-04
6.89311e-01,2.44543e-04
7.10784e-01,2.21443e-04
7.32926e-01,2.00290e-04
7.55757e-01,1.80929e-04
7.79300e-01,1.63220e-04
8.03577e-01,1.47032e-04
8.28609e-01,1.32242e-04
8.54421e-01,1.18738e-04
8.81038e-01,1.06416e-04
9.08483e-01,9.51789e-05
9.36784e-01,8.49381e-05
9.65966e-01,7.56109e-05
9.96057e-01,6.71210e-05
1.02709e+00,5.93982e-05
1.05908e+00,5.23776e-05
1.09207e+00,4.59993e-05
1.12609e+00,4.02083e-05
1.16117e+00,3.49536e-05
1.19734e+00,3.01888e-05
1.23464e+00,2.58707e-05
1.27310e+00,2.19598e-05
1.31276e+00,1.84201e-05
1.35366e+00,1.52181e-05
1.39583e+00,1.23234e-05
1.43931e+00,9.70815e-06
1.48414e+00,7.34665e-06
1.53038e+00,5.21555e-06
1.57805e+00,3.29348e-06
1.62721e+00,1.56090e-06
1.67790e+00,0.00000e+00
