m1=1791.152, m2=3.009, gsp=2.424, rhosp=225.570
fGW[Hz],dPh[rad]
1.29489e-02,1.69588e+05
1.32948e-02,1.60560e+05
1.36499e-02,1.52009e+05
1.40145e-02,1.43910e+05
1.43888e-02,1.36239e+05
1.47731e-02,1.28974e+05
1.51677e-02,1.22093e+05
1.55729e-02,1.15576e+05
1.59888e-02,1.09404e+05
1.64159e-02,1.03558e+05
1.68544e-02,9.80216e+04
1.73046e-02,9.27783e+04
1.77668e-02,8.78126e+04
1.82413e-02,8.31099e+04
1.87286e-02,7.86563e+04
1.92288e-02,7.44387e+04
1.97424e-02,7.04446e+04
2.02698e-02,6.66623e+04
2.08112e-02,6.30805e+04
2.13671e-02,5.96888e+04
2.19378e-02,5.64770e+04
2.25238e-02,5.34358e+04
2.31254e-02,5.05560e+04
2.37431e-02,4.78292e+04
2.43773e-02,4.52473e+04
2.50284e-02,4.28026e+04
2.56969e-02,4.04880e+04
2.63833e-02,3.82965e+04
2.70880e-02,3.62216e+04
2.78116e-02,3.42572e+04
2.85544e-02,3.23975e+04
2.93171e-02,3.06369e+04
3.01002e-02,2.89702e+04
3.09042e-02,2.73924e+04
3.17297e-02,2.58988e+04
3.25772e-02,2.44850e+04
3.34473e-02,2.31468e+04
3.43407e-02,2.18801e+04
3.52580e-02,2.06812e+04
3.61998e-02,1.95465e+04
3.71667e-02,1.84726e+04
3.81594e-02,1.74562e+04
3.91787e-02,1.64944e+04
4.02252e-02,1.55843e+04
4.12996e-02,1.47230e+04
4.24028e-02,1.39081e+04
4.35354e-02,1.31370e+04
4.46982e-02,1.24075e+04
4.58921e-02,1.17173e+04
4.71179e-02,1.10643e+04
4.83765e-02,1.04466e+04
4.96686e-02,9.86236e+03
5.09953e-02,9.30971e+03
5.23574e-02,8.78701e+03
5.37559e-02,8.29267e+03
5.51918e-02,7.82518e+03
5.66660e-02,7.38310e+03
5.81796e-02,6.96510e+03
5.97336e-02,6.56988e+03
6.13291e-02,6.19624e+03
6.29672e-02,5.84302e+03
6.46491e-02,5.50913e+03
6.63760e-02,5.19356e+03
6.81489e-02,4.89530e+03
6.99692e-02,4.61345e+03
7.18381e-02,4.34713e+03
7.37570e-02,4.09549e+03
7.57270e-02,3.85777e+03
7.77498e-02,3.63321e+03
7.98265e-02,3.42111e+03
8.19587e-02,3.22079e+03
8.41479e-02,3.03163e+03
8.63955e-02,2.85303e+03
8.87032e-02,2.68442e+03
9.10725e-02,2.52526e+03
9.35051e-02,2.37504e+03
9.60027e-02,2.23328e+03
9.85670e-02,2.09952e+03
1.01200e-01,1.97333e+03
1.03903e-01,1.85429e+03
1.06678e-01,1.74203e+03
1.09528e-01,1.63618e+03
1.12453e-01,1.53637e+03
1.15457e-01,1.44230e+03
1.18541e-01,1.35363e+03
1.21707e-01,1.27009e+03
1.24958e-01,1.19138e+03
1.28296e-01,1.11724e+03
1.31722e-01,1.04742e+03
1.35241e-01,9.81686e+02
1.38853e-01,9.19809e+02
1.42562e-01,8.61577e+02
1.46370e-01,8.06787e+02
1.50280e-01,7.55249e+02
1.54294e-01,7.06781e+02
1.58415e-01,6.61212e+02
1.62646e-01,6.18380e+02
1.66991e-01,5.78131e+02
1.71451e-01,5.40321e+02
1.76031e-01,5.04810e+02
1.80733e-01,4.71470e+02
1.85560e-01,4.40176e+02
1.90516e-01,4.10812e+02
1.95605e-01,3.83268e+02
2.00830e-01,3.57439e+02
2.06194e-01,3.33227e+02
2.11702e-01,3.10537e+02
2.17357e-01,2.89282e+02
2.23162e-01,2.69377e+02
2.29123e-01,2.50744e+02
2.35243e-01,2.33307e+02
2.41527e-01,2.16996e+02
2.47978e-01,2.01745e+02
2.54601e-01,1.87489e+02
2.61402e-01,1.74169e+02
2.68384e-01,1.61728e+02
2.75553e-01,1.50114e+02
2.82913e-01,1.39276e+02
2.90470e-01,1.29166e+02
2.98229e-01,1.19739e+02
3.06194e-01,1.10953e+02
3.14373e-01,1.02767e+02
3.22770e-01,9.51455e+01
3.31391e-01,8.80511e+01
3.40243e-01,8.14507e+01
3.49331e-01,7.53127e+01
3.58662e-01,6.96072e+01
3.68242e-01,6.43064e+01
3.78078e-01,5.93837e+01
3.88177e-01,5.48143e+01
3.98545e-01,5.05748e+01
4.09191e-01,4.66432e+01
4.20120e-01,4.29990e+01
4.31342e-01,3.96226e+01
4.42863e-01,3.64958e+01
4.54693e-01,3.36016e+01
4.66838e-01,3.09239e+01
4.79307e-01,2.84477e+01
4.92110e-01,2.61589e+01
5.05254e-01,2.40442e+01
5.18750e-01,2.20914e+01
5.32606e-01,2.02888e+01
5.46832e-01,1.86257e+01
5.61438e-01,1.70920e+01
5.76435e-01,1.56782e+01
5.91832e-01,1.43755e+01
6.07640e-01,1.31758e+01
6.23870e-01,1.20713e+01
6.40534e-01,1.10550e+01
6.57643e-01,1.01201e+01
6.75209e-01,9.26063e+00
6.93245e-01,8.47070e+00
7.11762e-01,7.74500e+00
7.30773e-01,7.07858e+00
7.50293e-01,6.46684e+00
7.70333e-01,5.90550e+00
7.90909e-01,5.39061e+00
8.12035e-01,4.91848e+00
8.33725e-01,4.48574e+00
8.55994e-01,4.08923e+00
8.78858e-01,3.72604e+00
9.02333e-01,3.39349e+00
9.26435e-01,3.08909e+00
9.51181e-01,2.81055e+00
9.76587e-01,2.55575e+00
1.00267e+00,2.32273e+00
1.02945e+00,2.10971e+00
1.05695e+00,1.91502e+00
1.08518e+00,1.73713e+00
1.11417e+00,1.57464e+00
1.14393e+00,1.42625e+00
1.17448e+00,1.29078e+00
1.20586e+00,1.16713e+00
1.23806e+00,1.05430e+00
1.27113e+00,9.51364e-01
1.30509e+00,8.57478e-01
1.33995e+00,7.71864e-01
1.37574e+00,6.93812e-01
1.41248e+00,6.22667e-01
1.45021e+00,5.57832e-01
1.48895e+00,4.98758e-01
1.52872e+00,4.44944e-01
1.56955e+00,3.95930e-01
1.61148e+00,3.51296e-01
1.65452e+00,3.10658e-01
1.69871e+00,2.73663e-01
1.74409e+00,2.39990e-01
1.79067e+00,2.09347e-01
1.83850e+00,1.81464e-01
1.88761e+00,1.56096e-01
1.93803e+00,1.33019e-01
1.98979e+00,1.12030e-01
2.04294e+00,9.29425e-02
2.09751e+00,7.55855e-02
2.15354e+00,5.98042e-02
2.21106e+00,4.54574e-02
2.27012e+00,3.24159e-02
2.33075e+00,2.05624e-02
2.39301e+00,9.78960e-03
2.45693e+00,0.00000e+00
