m1=833321.883, m2=13.860, gsp=2.117, rhosp=11.416
fGW[Hz],dPh[rad]
1.57196e-03,3.87738e+01
1.58156e-03,3.78554e+01
1.59121e-03,3.69586e+01
1.60093e-03,3.60827e+01
1.61070e-03,3.52274e+01
1.62053e-03,3.43922e+01
1.63042e-03,3.35765e+01
1.64037e-03,3.27799e+01
1.65038e-03,3.20020e+01
1.66046e-03,3.12423e+01
1.67059e-03,3.05005e+01
1.68079e-03,2.97761e+01
1.69105e-03,2.90686e+01
1.70137e-03,2.83777e+01
1.71175e-03,2.77031e+01
1.72220e-03,2.70442e+01
1.73271e-03,2.64008e+01
1.74329e-03,2.57725e+01
1.75393e-03,2.51589e+01
1.76464e-03,2.45598e+01
1.77541e-03,2.39747e+01
1.78624e-03,2.34033e+01
1.79715e-03,2.28453e+01
1.80812e-03,2.23004e+01
1.81915e-03,2.17683e+01
1.83026e-03,2.12487e+01
1.84143e-03,2.07413e+01
1.85267e-03,2.02457e+01
1.86397e-03,1.97619e+01
1.87535e-03,1.92893e+01
1.88680e-03,1.88279e+01
1.89832e-03,1.83773e+01
1.90990e-03,1.79372e+01
1.92156e-03,1.75075e+01
1.93329e-03,1.70879e+01
1.94509e-03,1.66782e+01
1.95696e-03,1.62780e+01
1.96891e-03,1.58873e+01
1.98092e-03,1.55057e+01
1.99301e-03,1.51331e+01
2.00518e-03,1.47692e+01
2.01742e-03,1.44139e+01
2.02973e-03,1.40670e+01
2.04212e-03,1.37281e+01
2.05459e-03,1.33973e+01
2.06713e-03,1.30742e+01
2.07974e-03,1.27587e+01
2.09244e-03,1.24506e+01
2.10521e-03,1.21497e+01
2.11806e-03,1.18559e+01
2.13099e-03,1.15690e+01
2.14399e-03,1.12889e+01
2.15708e-03,1.10153e+01
2.17025e-03,1.07482e+01
2.18349e-03,1.04873e+01
2.19682e-03,1.02326e+01
2.21023e-03,9.98383e+00
2.22372e-03,9.74092e+00
2.23729e-03,9.50373e+00
2.25095e-03,9.27211e+00
2.26469e-03,9.04593e+00
2.27851e-03,8.82507e+00
2.29242e-03,8.60940e+00
2.30641e-03,8.39880e+00
2.32049e-03,8.19315e+00
2.33465e-03,7.99233e+00
2.34890e-03,7.79623e+00
2.36324e-03,7.60474e+00
2.37766e-03,7.41776e+00
2.39218e-03,7.23516e+00
2.40678e-03,7.05687e+00
2.42147e-03,6.88276e+00
2.43625e-03,6.71275e+00
2.45112e-03,6.54673e+00
2.46608e-03,6.38462e+00
2.48113e-03,6.22632e+00
2.49627e-03,6.07174e+00
2.51151e-03,5.92079e+00
2.52684e-03,5.77340e+00
2.54226e-03,5.62947e+00
2.55778e-03,5.48893e+00
2.57339e-03,5.35169e+00
2.58910e-03,5.21768e+00
2.60490e-03,5.08682e+00
2.62080e-03,4.95904e+00
2.63680e-03,4.83426e+00
2.65289e-03,4.71242e+00
2.66909e-03,4.59344e+00
2.68538e-03,4.47726e+00
2.70177e-03,4.36382e+00
2.71826e-03,4.25304e+00
2.73485e-03,4.14487e+00
2.75154e-03,4.03925e+00
2.76834e-03,3.93611e+00
2.78524e-03,3.83539e+00
2.80224e-03,3.73705e+00
2.81934e-03,3.64102e+00
2.83655e-03,3.54725e+00
2.85386e-03,3.45568e+00
2.87128e-03,3.36627e+00
2.88881e-03,3.27896e+00
2.90644e-03,3.19371e+00
2.92418e-03,3.11046e+00
2.94203e-03,3.02917e+00
2.95999e-03,2.94980e+00
2.97805e-03,2.87229e+00
2.99623e-03,2.79660e+00
3.01452e-03,2.72270e+00
3.03292e-03,2.65054e+00
3.05143e-03,2.58007e+00
3.07005e-03,2.51127e+00
3.08879e-03,2.44408e+00
3.10765e-03,2.37847e+00
3.12661e-03,2.31441e+00
3.14570e-03,2.25185e+00
3.16490e-03,2.19077e+00
3.18422e-03,2.13113e+00
3.20365e-03,2.07289e+00
3.22321e-03,2.01602e+00
3.24288e-03,1.96049e+00
3.26267e-03,1.90626e+00
3.28259e-03,1.85332e+00
3.30262e-03,1.80161e+00
3.32278e-03,1.75113e+00
3.34306e-03,1.70183e+00
3.36347e-03,1.65370e+00
3.38400e-03,1.60670e+00
3.40465e-03,1.56080e+00
3.42543e-03,1.51599e+00
3.44634e-03,1.47223e+00
3.46738e-03,1.42950e+00
3.48854e-03,1.38777e+00
3.50984e-03,1.34703e+00
3.53126e-03,1.30725e+00
3.55281e-03,1.26840e+00
3.57450e-03,1.23047e+00
3.59632e-03,1.19344e+00
3.61827e-03,1.15727e+00
3.64035e-03,1.12196e+00
3.66257e-03,1.08747e+00
3.68493e-03,1.05380e+00
3.70742e-03,1.02093e+00
3.73005e-03,9.88824e-01
3.75281e-03,9.57476e-01
3.77572e-03,9.26867e-01
3.79877e-03,8.96979e-01
3.82195e-03,8.67794e-01
3.84528e-03,8.39297e-01
3.86875e-03,8.11471e-01
3.89237e-03,7.84300e-01
3.91612e-03,7.57769e-01
3.94003e-03,7.31863e-01
3.96407e-03,7.06568e-01
3.98827e-03,6.81867e-01
4.01261e-03,6.57749e-01
4.03711e-03,6.34199e-01
4.06175e-03,6.11203e-01
4.08654e-03,5.88749e-01
4.11148e-03,5.66824e-01
4.13658e-03,5.45415e-01
4.16183e-03,5.24511e-01
4.18723e-03,5.04099e-01
4.21279e-03,4.84168e-01
4.23850e-03,4.64706e-01
4.26437e-03,4.45703e-01
4.29040e-03,4.27147e-01
4.31659e-03,4.09028e-01
4.34293e-03,3.91337e-01
4.36944e-03,3.74061e-01
4.39611e-03,3.57193e-01
4.42294e-03,3.40723e-01
4.44994e-03,3.24640e-01
4.47710e-03,3.08936e-01
4.50443e-03,2.93602e-01
4.53192e-03,2.78630e-01
4.55958e-03,2.64010e-01
4.58741e-03,2.49734e-01
4.61542e-03,2.35795e-01
4.64359e-03,2.22184e-01
4.67193e-03,2.08894e-01
4.70045e-03,1.95917e-01
4.72914e-03,1.83246e-01
4.75800e-03,1.70873e-01
4.78704e-03,1.58792e-01
4.81626e-03,1.46996e-01
4.84566e-03,1.35477e-01
4.87524e-03,1.24230e-01
4.90499e-03,1.13248e-01
4.93493e-03,1.02524e-01
4.96505e-03,9.20535e-02
4.99536e-03,8.18295e-02
5.02585e-03,7.18463e-02
5.05652e-03,6.20984e-02
5.08739e-03,5.25801e-02
5.11844e-03,4.32862e-02
5.14968e-03,3.42112e-02
5.18111e-03,2.53501e-02
5.21274e-03,1.66978e-02
5.24456e-03,8.24935e-03
5.27657e-03,0.00000e+00
