m1=1432.017, m2=15.756, gsp=2.266, rhosp=42.130
fGW[Hz],dPh[rad]
7.36842e-03,7.91013e+02
7.59541e-03,7.40869e+02
7.82940e-03,6.93901e+02
8.07059e-03,6.49909e+02
8.31921e-03,6.08704e+02
8.57549e-03,5.70109e+02
8.83967e-03,5.33959e+02
9.11199e-03,5.00099e+02
9.39269e-03,4.68385e+02
9.68204e-03,4.38680e+02
9.98031e-03,4.10857e+02
1.02878e-02,3.84797e+02
1.06047e-02,3.60388e+02
1.09314e-02,3.37526e+02
1.12681e-02,3.16112e+02
1.16153e-02,2.96055e+02
1.19731e-02,2.77270e+02
1.23419e-02,2.59674e+02
1.27221e-02,2.43194e+02
1.31140e-02,2.27758e+02
1.35180e-02,2.13301e+02
1.39345e-02,1.99760e+02
1.43637e-02,1.87077e+02
1.48062e-02,1.75198e+02
1.52623e-02,1.64071e+02
1.57325e-02,1.53651e+02
1.62172e-02,1.43890e+02
1.67168e-02,1.34749e+02
1.72317e-02,1.26187e+02
1.77626e-02,1.18168e+02
1.83098e-02,1.10658e+02
1.88738e-02,1.03623e+02
1.94553e-02,9.70349e+01
2.00546e-02,9.08644e+01
2.06724e-02,8.50853e+01
2.13092e-02,7.96728e+01
2.19657e-02,7.46035e+01
2.26424e-02,6.98558e+01
2.33399e-02,6.54094e+01
2.40589e-02,6.12450e+01
2.48001e-02,5.73449e+01
2.55640e-02,5.36922e+01
2.63516e-02,5.02714e+01
2.71634e-02,4.70677e+01
2.80002e-02,4.40673e+01
2.88627e-02,4.12575e+01
2.97519e-02,3.86260e+01
3.06684e-02,3.61616e+01
3.16132e-02,3.38537e+01
3.25871e-02,3.16924e+01
3.35909e-02,2.96684e+01
3.46257e-02,2.77730e+01
3.56924e-02,2.59980e+01
3.67920e-02,2.43358e+01
3.79254e-02,2.27793e+01
3.90937e-02,2.13217e+01
4.02980e-02,1.99568e+01
4.15395e-02,1.86787e+01
4.28191e-02,1.74819e+01
4.41382e-02,1.63612e+01
4.54979e-02,1.53119e+01
4.68995e-02,1.43293e+01
4.83443e-02,1.34093e+01
4.98336e-02,1.25479e+01
5.13688e-02,1.17413e+01
5.29513e-02,1.09862e+01
5.45825e-02,1.02791e+01
5.62640e-02,9.61712e+00
5.79972e-02,8.99735e+00
5.97839e-02,8.41711e+00
6.16256e-02,7.87390e+00
6.35241e-02,7.36535e+00
6.54810e-02,6.88928e+00
6.74982e-02,6.44361e+00
6.95775e-02,6.02642e+00
7.17210e-02,5.63589e+00
7.39304e-02,5.27035e+00
7.62079e-02,4.92818e+00
7.85556e-02,4.60792e+00
8.09755e-02,4.30817e+00
8.34701e-02,4.02762e+00
8.60415e-02,3.76505e+00
8.86921e-02,3.51933e+00
9.14243e-02,3.28937e+00
9.42407e-02,3.07418e+00
9.71439e-02,2.87282e+00
1.00137e-01,2.68440e+00
1.03221e-01,2.50810e+00
1.06401e-01,2.34315e+00
1.09679e-01,2.18883e+00
1.13058e-01,2.04446e+00
1.16541e-01,1.90940e+00
1.20131e-01,1.78307e+00
1.23832e-01,1.66490e+00
1.27646e-01,1.55438e+00
1.31579e-01,1.45101e+00
1.35632e-01,1.35434e+00
1.39810e-01,1.26395e+00
1.44117e-01,1.17942e+00
1.48557e-01,1.10039e+00
1.53133e-01,1.02651e+00
1.57851e-01,9.57437e-01
1.62714e-01,8.92874e-01
1.67726e-01,8.32529e-01
1.72893e-01,7.76131e-01
1.78219e-01,7.23429e-01
1.83710e-01,6.74185e-01
1.89369e-01,6.28176e-01
1.95203e-01,5.85195e-01
2.01216e-01,5.45047e-01
2.07415e-01,5.07550e-01
2.13804e-01,4.72533e-01
2.20391e-01,4.39837e-01
2.27180e-01,4.09312e-01
2.34179e-01,3.80817e-01
2.41393e-01,3.54222e-01
2.48829e-01,3.29403e-01
2.56495e-01,3.06246e-01
2.64396e-01,2.84643e-01
2.72541e-01,2.64493e-01
2.80937e-01,2.45702e-01
2.89592e-01,2.28181e-01
2.98513e-01,2.11847e-01
3.07709e-01,1.96624e-01
3.17188e-01,1.82438e-01
3.26959e-01,1.69222e-01
3.37032e-01,1.56913e-01
3.47414e-01,1.45450e-01
3.58117e-01,1.34777e-01
3.69149e-01,1.24844e-01
3.80521e-01,1.15601e-01
3.92243e-01,1.07003e-01
4.04327e-01,9.90061e-02
4.16782e-01,9.15712e-02
4.29622e-01,8.46606e-02
4.42857e-01,7.82393e-02
4.56500e-01,7.22747e-02
4.70562e-01,6.67360e-02
4.85059e-01,6.15945e-02
5.00001e-01,5.68235e-02
5.15404e-01,5.23978e-02
5.31282e-01,4.82940e-02
5.47649e-01,4.44901e-02
5.64520e-01,4.09655e-02
5.81910e-01,3.77012e-02
5.99837e-01,3.46790e-02
6.18315e-01,3.18824e-02
6.37363e-01,2.92955e-02
6.56998e-01,2.69037e-02
6.77237e-01,2.46933e-02
6.98100e-01,2.26516e-02
7.19606e-01,2.07666e-02
7.41774e-01,1.90270e-02
7.64625e-01,1.74225e-02
7.88180e-01,1.59434e-02
8.12461e-01,1.45806e-02
8.37490e-01,1.33256e-02
8.63289e-01,1.21705e-02
8.89884e-01,1.11080e-02
9.17298e-01,1.01312e-02
9.45556e-01,9.23359e-03
9.74685e-01,8.40934e-03
1.00471e+00,7.65288e-03
1.03566e+00,6.95903e-03
1.06757e+00,6.32300e-03
1.10045e+00,5.74031e-03
1.13435e+00,5.20682e-03
1.16930e+00,4.71866e-03
1.20532e+00,4.27227e-03
1.24245e+00,3.86432e-03
1.28073e+00,3.49173e-03
1.32018e+00,3.15165e-03
1.36085e+00,2.84142e-03
1.40277e+00,2.55861e-03
1.44599e+00,2.30095e-03
1.49053e+00,2.06635e-03
1.53645e+00,1.85287e-03
1.58378e+00,1.65874e-03
1.63257e+00,1.48230e-03
1.68287e+00,1.32203e-03
1.73471e+00,1.17655e-03
1.78815e+00,1.04457e-03
1.84323e+00,9.24890e-04
1.90002e+00,8.16441e-04
1.95855e+00,7.18220e-04
2.01888e+00,6.29312e-04
2.08108e+00,5.48877e-04
2.14519e+00,4.76147e-04
2.21127e+00,4.10419e-04
2.27939e+00,3.51049e-04
2.34961e+00,2.97449e-04
2.42199e+00,2.49082e-04
2.49660e+00,2.05458e-04
2.57352e+00,1.66131e-04
2.65280e+00,1.30694e-04
2.73452e+00,9.87755e-05
2.81876e+00,7.00395e-05
2.90559e+00,4.41795e-05
2.99510e+00,2.09172e-05
3.08737e+00,0.00000e+00
