m1=25039.209, m2=30.576, gsp=2.113, rhosp=99.499
fGW[Hz],dPh[rad]
2.80675e-03,2.56096e+02
2.86571e-03,2.43814e+02
2.92590e-03,2.32108e+02
2.98736e-03,2.20952e+02
3.05011e-03,2.10318e+02
3.11418e-03,2.00185e+02
3.17960e-03,1.90527e+02
3.24639e-03,1.81324e+02
3.31458e-03,1.72554e+02
3.38421e-03,1.64197e+02
3.45529e-03,1.56235e+02
3.52787e-03,1.48647e+02
3.60198e-03,1.41419e+02
3.67764e-03,1.34531e+02
3.75489e-03,1.27970e+02
3.83377e-03,1.21719e+02
3.91430e-03,1.15765e+02
3.99652e-03,1.10093e+02
4.08047e-03,1.04690e+02
4.16618e-03,9.95440e+01
4.25370e-03,9.46428e+01
4.34305e-03,8.99751e+01
4.43428e-03,8.55299e+01
4.52742e-03,8.12968e+01
4.62252e-03,7.72661e+01
4.71962e-03,7.34281e+01
4.81876e-03,6.97740e+01
4.91998e-03,6.62952e+01
5.02333e-03,6.29833e+01
5.12885e-03,5.98307e+01
5.23658e-03,5.68299e+01
5.34658e-03,5.39737e+01
5.45889e-03,5.12554e+01
5.57356e-03,4.86685e+01
5.69063e-03,4.62069e+01
5.81017e-03,4.38646e+01
5.93221e-03,4.16361e+01
6.05682e-03,3.95159e+01
6.18405e-03,3.74991e+01
6.31395e-03,3.55806e+01
6.44658e-03,3.37560e+01
6.58199e-03,3.20207e+01
6.72025e-03,3.03705e+01
6.86142e-03,2.88014e+01
7.00555e-03,2.73095e+01
7.15270e-03,2.58913e+01
7.30295e-03,2.45431e+01
7.45635e-03,2.32617e+01
7.61298e-03,2.20439e+01
7.77289e-03,2.08867e+01
7.93617e-03,1.97871e+01
8.10287e-03,1.87425e+01
8.27308e-03,1.77501e+01
8.44686e-03,1.68076e+01
8.62429e-03,1.59124e+01
8.80545e-03,1.50624e+01
8.99041e-03,1.42553e+01
9.17926e-03,1.34891e+01
9.37208e-03,1.27618e+01
9.56895e-03,1.20715e+01
9.76995e-03,1.14165e+01
9.97517e-03,1.07950e+01
1.01847e-02,1.02055e+01
1.03986e-02,9.64623e+00
1.06171e-02,9.11587e+00
1.08401e-02,8.61298e+00
1.10678e-02,8.13619e+00
1.13003e-02,7.68424e+00
1.15377e-02,7.25591e+00
1.17800e-02,6.85002e+00
1.20275e-02,6.46547e+00
1.22801e-02,6.10121e+00
1.25381e-02,5.75622e+00
1.28014e-02,5.42955e+00
1.30703e-02,5.12029e+00
1.33449e-02,4.82756e+00
1.36252e-02,4.55053e+00
1.39114e-02,4.28842e+00
1.42036e-02,4.04047e+00
1.45020e-02,3.80597e+00
1.48066e-02,3.58423e+00
1.51176e-02,3.37461e+00
1.54352e-02,3.17649e+00
1.57594e-02,2.98927e+00
1.60904e-02,2.81240e+00
1.64284e-02,2.64534e+00
1.67735e-02,2.48758e+00
1.71259e-02,2.33866e+00
1.74856e-02,2.19809e+00
1.78529e-02,2.06545e+00
1.82279e-02,1.94032e+00
1.86108e-02,1.82230e+00
1.90017e-02,1.71102e+00
1.94009e-02,1.60612e+00
1.98084e-02,1.50726e+00
2.02245e-02,1.41411e+00
2.06493e-02,1.32637e+00
2.10831e-02,1.24375e+00
2.15259e-02,1.16597e+00
2.19781e-02,1.09277e+00
2.24398e-02,1.02389e+00
2.29111e-02,9.59094e-01
2.33924e-02,8.98163e-01
2.38838e-02,8.40879e-01
2.43855e-02,7.87040e-01
2.48977e-02,7.36452e-01
2.54207e-02,6.88932e-01
2.59547e-02,6.44308e-01
2.64999e-02,6.02414e-01
2.70565e-02,5.63095e-01
2.76248e-02,5.26204e-01
2.82051e-02,4.91600e-01
2.87976e-02,4.59151e-01
2.94025e-02,4.28731e-01
3.00201e-02,4.00222e-01
3.06507e-02,3.73512e-01
3.12945e-02,3.48494e-01
3.19519e-02,3.25067e-01
3.26231e-02,3.03138e-01
3.33083e-02,2.82615e-01
3.40080e-02,2.63415e-01
3.47224e-02,2.45457e-01
3.54517e-02,2.28666e-01
3.61964e-02,2.12969e-01
3.69568e-02,1.98301e-01
3.77331e-02,1.84597e-01
3.85257e-02,1.71798e-01
3.93349e-02,1.59847e-01
4.01612e-02,1.48691e-01
4.10048e-02,1.38280e-01
4.18661e-02,1.28567e-01
4.27455e-02,1.19507e-01
4.36434e-02,1.11059e-01
4.45602e-02,1.03183e-01
4.54962e-02,9.58428e-02
4.64519e-02,8.90035e-02
4.74277e-02,8.26327e-02
4.84239e-02,7.66995e-02
4.94411e-02,7.11753e-02
5.04796e-02,6.60333e-02
5.15400e-02,6.12479e-02
5.26226e-02,5.67957e-02
5.37280e-02,5.26544e-02
5.48566e-02,4.88030e-02
5.60089e-02,4.52222e-02
5.71854e-02,4.18937e-02
5.83866e-02,3.88003e-02
5.96130e-02,3.59260e-02
6.08652e-02,3.32560e-02
6.21438e-02,3.07762e-02
6.34491e-02,2.84735e-02
6.47819e-02,2.63357e-02
6.61427e-02,2.43513e-02
6.75321e-02,2.25098e-02
6.89506e-02,2.08011e-02
7.03990e-02,1.92160e-02
7.18778e-02,1.77457e-02
7.33876e-02,1.63823e-02
7.49292e-02,1.51181e-02
7.65031e-02,1.39461e-02
7.81101e-02,1.28599e-02
7.97509e-02,1.18532e-02
8.14261e-02,1.09204e-02
8.31365e-02,1.00562e-02
8.48828e-02,9.25566e-03
8.66658e-02,8.51424e-03
8.84863e-02,7.82764e-03
9.03450e-02,7.19191e-03
9.22428e-02,6.60335e-03
9.41804e-02,6.05855e-03
9.61587e-02,5.55430e-03
9.81786e-02,5.08765e-03
1.00241e-01,4.65585e-03
1.02347e-01,4.25635e-03
1.04496e-01,3.88677e-03
1.06691e-01,3.54491e-03
1.08933e-01,3.22872e-03
1.11221e-01,2.93631e-03
1.13557e-01,2.66592e-03
1.15942e-01,2.41591e-03
1.18378e-01,2.18478e-03
1.20864e-01,1.97112e-03
1.23403e-01,1.77362e-03
1.25995e-01,1.59108e-03
1.28642e-01,1.42238e-03
1.31344e-01,1.26648e-03
1.34103e-01,1.12244e-03
1.36920e-01,9.89343e-04
1.39796e-01,8.66382e-04
1.42733e-01,7.52791e-04
1.45731e-01,6.47863e-04
1.48792e-01,5.50944e-04
1.51918e-01,4.61430e-04
1.55109e-01,3.78760e-04
1.58367e-01,3.02415e-04
1.61693e-01,2.31918e-04
1.65090e-01,1.66822e-04
1.68558e-01,1.06719e-04
1.72098e-01,5.12290e-05
1.75713e-01,0.00000e+00
