m1=128847.000, m2=28.321, gsp=2.462, rhosp=19.372
fGW[Hz],dPh[rad]
1.91763e-03,1.44766e+05
1.94558e-03,1.38759e+05
1.97393e-03,1.32984e+05
2.00270e-03,1.27433e+05
2.03188e-03,1.22099e+05
2.06149e-03,1.16973e+05
2.09154e-03,1.12048e+05
2.12202e-03,1.07316e+05
2.15294e-03,1.02772e+05
2.18431e-03,9.84072e+04
2.21615e-03,9.42161e+04
2.24844e-03,9.01922e+04
2.28121e-03,8.63294e+04
2.31445e-03,8.26216e+04
2.34818e-03,7.90632e+04
2.38240e-03,7.56487e+04
2.41712e-03,7.23726e+04
2.45234e-03,6.92299e+04
2.48808e-03,6.62155e+04
2.52434e-03,6.33246e+04
2.56113e-03,6.05526e+04
2.59845e-03,5.78948e+04
2.63632e-03,5.53471e+04
2.67473e-03,5.29050e+04
2.71371e-03,5.05647e+04
2.75326e-03,4.83222e+04
2.79338e-03,4.61737e+04
2.83409e-03,4.41155e+04
2.87539e-03,4.21441e+04
2.91729e-03,4.02562e+04
2.95981e-03,3.84484e+04
3.00294e-03,3.67176e+04
3.04670e-03,3.50607e+04
3.09110e-03,3.34748e+04
3.13615e-03,3.19570e+04
3.18185e-03,3.05047e+04
3.22822e-03,2.91152e+04
3.27526e-03,2.77859e+04
3.32299e-03,2.65145e+04
3.37142e-03,2.52985e+04
3.42055e-03,2.41357e+04
3.47040e-03,2.30239e+04
3.52097e-03,2.19610e+04
3.57228e-03,2.09450e+04
3.62434e-03,1.99740e+04
3.67716e-03,1.90461e+04
3.73075e-03,1.81594e+04
3.78511e-03,1.73123e+04
3.84027e-03,1.65031e+04
3.89624e-03,1.57302e+04
3.95302e-03,1.49920e+04
4.01062e-03,1.42871e+04
4.06907e-03,1.36140e+04
4.12837e-03,1.29715e+04
4.18853e-03,1.23581e+04
4.24957e-03,1.17727e+04
4.31150e-03,1.12140e+04
4.37433e-03,1.06808e+04
4.43808e-03,1.01721e+04
4.50275e-03,9.68681e+03
4.56837e-03,9.22385e+03
4.63494e-03,8.78227e+03
4.70249e-03,8.36113e+03
4.77102e-03,7.95953e+03
4.84055e-03,7.57659e+03
4.91109e-03,7.21149e+03
4.98265e-03,6.86344e+03
5.05527e-03,6.53167e+03
5.12894e-03,6.21545e+03
5.20368e-03,5.91409e+03
5.27951e-03,5.62691e+03
5.35645e-03,5.35327e+03
5.43451e-03,5.09257e+03
5.51371e-03,4.84420e+03
5.59406e-03,4.60762e+03
5.67558e-03,4.38227e+03
5.75829e-03,4.16766e+03
5.84220e-03,3.96327e+03
5.92734e-03,3.76866e+03
6.01372e-03,3.58335e+03
6.10136e-03,3.40693e+03
6.19027e-03,3.23897e+03
6.28048e-03,3.07910e+03
6.37201e-03,2.92693e+03
6.46486e-03,2.78209e+03
6.55908e-03,2.64426e+03
6.65466e-03,2.51310e+03
6.75164e-03,2.38829e+03
6.85003e-03,2.26955e+03
6.94985e-03,2.15657e+03
7.05113e-03,2.04909e+03
7.15389e-03,1.94686e+03
7.25814e-03,1.84961e+03
7.36391e-03,1.75712e+03
7.47123e-03,1.66915e+03
7.58011e-03,1.58550e+03
7.69057e-03,1.50595e+03
7.80264e-03,1.43031e+03
7.91635e-03,1.35839e+03
8.03171e-03,1.29001e+03
8.14876e-03,1.22500e+03
8.26751e-03,1.16320e+03
8.38799e-03,1.10446e+03
8.51023e-03,1.04862e+03
8.63425e-03,9.95548e+02
8.76007e-03,9.45107e+02
8.88773e-03,8.97170e+02
9.01725e-03,8.51615e+02
9.14866e-03,8.08325e+02
9.28198e-03,7.67191e+02
9.41725e-03,7.28106e+02
9.55449e-03,6.90971e+02
9.69372e-03,6.55689e+02
9.83499e-03,6.22171e+02
9.97831e-03,5.90329e+02
1.01237e-02,5.60081e+02
1.02713e-02,5.31349e+02
1.04209e-02,5.04057e+02
1.05728e-02,4.78135e+02
1.07269e-02,4.53514e+02
1.08832e-02,4.30132e+02
1.10418e-02,4.07925e+02
1.12027e-02,3.86836e+02
1.13660e-02,3.66810e+02
1.15316e-02,3.47793e+02
1.16997e-02,3.29736e+02
1.18702e-02,3.12590e+02
1.20431e-02,2.96310e+02
1.22186e-02,2.80853e+02
1.23967e-02,2.66179e+02
1.25774e-02,2.52246e+02
1.27606e-02,2.39020e+02
1.29466e-02,2.26464e+02
1.31353e-02,2.14544e+02
1.33267e-02,2.03229e+02
1.35209e-02,1.92489e+02
1.37179e-02,1.82294e+02
1.39178e-02,1.72618e+02
1.41207e-02,1.63433e+02
1.43264e-02,1.54715e+02
1.45352e-02,1.46442e+02
1.47470e-02,1.38589e+02
1.49620e-02,1.31137e+02
1.51800e-02,1.24065e+02
1.54012e-02,1.17353e+02
1.56257e-02,1.10984e+02
1.58534e-02,1.04940e+02
1.60844e-02,9.92042e+01
1.63188e-02,9.37617e+01
1.65566e-02,8.85974e+01
1.67979e-02,8.36972e+01
1.70427e-02,7.90475e+01
1.72910e-02,7.46358e+01
1.75430e-02,7.04500e+01
1.77987e-02,6.64785e+01
1.80580e-02,6.27104e+01
1.83212e-02,5.91355e+01
1.85882e-02,5.57438e+01
1.88591e-02,5.25260e+01
1.91339e-02,4.94733e+01
1.94127e-02,4.65772e+01
1.96956e-02,4.38298e+01
1.99827e-02,4.12235e+01
2.02739e-02,3.87510e+01
2.05693e-02,3.64056e+01
2.08691e-02,3.41807e+01
2.11732e-02,3.20701e+01
2.14818e-02,3.00681e+01
2.17948e-02,2.81691e+01
2.21124e-02,2.63677e+01
2.24347e-02,2.46591e+01
2.27616e-02,2.30384e+01
2.30933e-02,2.15012e+01
2.34298e-02,2.00431e+01
2.37713e-02,1.86601e+01
2.41177e-02,1.73484e+01
2.44692e-02,1.61043e+01
2.48257e-02,1.49243e+01
2.51875e-02,1.38051e+01
2.55546e-02,1.27437e+01
2.59270e-02,1.17370e+01
2.63048e-02,1.07822e+01
2.66882e-02,9.87671e+00
2.70771e-02,9.01794e+00
2.74717e-02,8.20350e+00
2.78720e-02,7.43110e+00
2.82782e-02,6.69859e+00
2.86903e-02,6.00390e+00
2.91084e-02,5.34510e+00
2.95326e-02,4.72034e+00
2.99630e-02,4.12786e+00
3.03996e-02,3.56599e+00
3.08426e-02,3.03317e+00
3.12921e-02,2.52788e+00
3.17481e-02,2.04873e+00
3.22108e-02,1.59435e+00
3.26802e-02,1.16347e+00
3.31564e-02,7.54871e-01
3.36396e-02,3.67413e-01
3.41298e-02,0.00000e+00
