m1=11190.247, m2=18.492, gsp=2.141, rhosp=58.770
fGW[Hz],dPh[rad]
4.14542e-03,3.45431e+02
4.24135e-03,3.27774e+02
4.33949e-03,3.11008e+02
4.43991e-03,2.95088e+02
4.54265e-03,2.79972e+02
4.64777e-03,2.65620e+02
4.75532e-03,2.51993e+02
4.86536e-03,2.39055e+02
4.97795e-03,2.26772e+02
5.09314e-03,2.15110e+02
5.21100e-03,2.04038e+02
5.33158e-03,1.93527e+02
5.45496e-03,1.83548e+02
5.58119e-03,1.74076e+02
5.71034e-03,1.65083e+02
5.84248e-03,1.56547e+02
5.97767e-03,1.48445e+02
6.11600e-03,1.40753e+02
6.25753e-03,1.33453e+02
6.40233e-03,1.26524e+02
6.55048e-03,1.19947e+02
6.70206e-03,1.13706e+02
6.85715e-03,1.07782e+02
7.01583e-03,1.02160e+02
7.17817e-03,9.68251e+01
7.34428e-03,9.17623e+01
7.51423e-03,8.69582e+01
7.68811e-03,8.23996e+01
7.86602e-03,7.80742e+01
8.04804e-03,7.39702e+01
8.23428e-03,7.00765e+01
8.42482e-03,6.63825e+01
8.61977e-03,6.28780e+01
8.81924e-03,5.95535e+01
9.02332e-03,5.64000e+01
9.23212e-03,5.34087e+01
9.44576e-03,5.05715e+01
9.66434e-03,4.78805e+01
9.88797e-03,4.53285e+01
1.01168e-02,4.29082e+01
1.03509e-02,4.06132e+01
1.05904e-02,3.84369e+01
1.08355e-02,3.63735e+01
1.10862e-02,3.44172e+01
1.13428e-02,3.25625e+01
1.16052e-02,3.08042e+01
1.18738e-02,2.91376e+01
1.21485e-02,2.75579e+01
1.24297e-02,2.60607e+01
1.27173e-02,2.46418e+01
1.30116e-02,2.32972e+01
1.33127e-02,2.20231e+01
1.36207e-02,2.08159e+01
1.39359e-02,1.96723e+01
1.42584e-02,1.85889e+01
1.45883e-02,1.75627e+01
1.49259e-02,1.65908e+01
1.52713e-02,1.56703e+01
1.56247e-02,1.47987e+01
1.59863e-02,1.39734e+01
1.63562e-02,1.31921e+01
1.67347e-02,1.24524e+01
1.71219e-02,1.17523e+01
1.75181e-02,1.10897e+01
1.79235e-02,1.04626e+01
1.83383e-02,9.86934e+00
1.87626e-02,9.30803e+00
1.91968e-02,8.77704e+00
1.96410e-02,8.27482e+00
2.00955e-02,7.79986e+00
2.05605e-02,7.35075e+00
2.10363e-02,6.92614e+00
2.15231e-02,6.52475e+00
2.20212e-02,6.14538e+00
2.25307e-02,5.78686e+00
2.30521e-02,5.44812e+00
2.35856e-02,5.12810e+00
2.41313e-02,4.82582e+00
2.46897e-02,4.54036e+00
2.52611e-02,4.27082e+00
2.58456e-02,4.01635e+00
2.64437e-02,3.77617e+00
2.70556e-02,3.54951e+00
2.76817e-02,3.33565e+00
2.83223e-02,3.13391e+00
2.89776e-02,2.94364e+00
2.96482e-02,2.76422e+00
3.03343e-02,2.59508e+00
3.10362e-02,2.43566e+00
3.17544e-02,2.28543e+00
3.24892e-02,2.14390e+00
3.32410e-02,2.01059e+00
3.40102e-02,1.88505e+00
3.47973e-02,1.76687e+00
3.56025e-02,1.65563e+00
3.64263e-02,1.55096e+00
3.72692e-02,1.45249e+00
3.81317e-02,1.35988e+00
3.90141e-02,1.27280e+00
3.99169e-02,1.19095e+00
4.08405e-02,1.11403e+00
4.17856e-02,1.04177e+00
4.27526e-02,9.73901e-01
4.37419e-02,9.10175e-01
4.47541e-02,8.50359e-01
4.57897e-02,7.94228e-01
4.68493e-02,7.41572e-01
4.79334e-02,6.92190e-01
4.90426e-02,6.45893e-01
5.01775e-02,6.02502e-01
5.13386e-02,5.61848e-01
5.25266e-02,5.23769e-01
5.37421e-02,4.88115e-01
5.49857e-02,4.54742e-01
5.62581e-02,4.23514e-01
5.75599e-02,3.94304e-01
5.88919e-02,3.66989e-01
6.02546e-02,3.41456e-01
6.16490e-02,3.17596e-01
6.30755e-02,2.95307e-01
6.45351e-02,2.74494e-01
6.60285e-02,2.55065e-01
6.75564e-02,2.36934e-01
6.91197e-02,2.20020e-01
7.07192e-02,2.04248e-01
7.23556e-02,1.89545e-01
7.40300e-02,1.75844e-01
7.57431e-02,1.63081e-01
7.74958e-02,1.51195e-01
7.92891e-02,1.40131e-01
8.11238e-02,1.29835e-01
8.30011e-02,1.20258e-01
8.49218e-02,1.11351e-01
8.68869e-02,1.03071e-01
8.88975e-02,9.53774e-02
9.09546e-02,8.82300e-02
9.30593e-02,8.15925e-02
9.52128e-02,7.54308e-02
9.74160e-02,6.97126e-02
9.96703e-02,6.44078e-02
1.01977e-01,5.94881e-02
1.04336e-01,5.49270e-02
1.06751e-01,5.06998e-02
1.09221e-01,4.67834e-02
1.11749e-01,4.31559e-02
1.14334e-01,3.97972e-02
1.16980e-01,3.66883e-02
1.19687e-01,3.38116e-02
1.22457e-01,3.11503e-02
1.25290e-01,2.86893e-02
1.28190e-01,2.64140e-02
1.31156e-01,2.43111e-02
1.34191e-01,2.23680e-02
1.37296e-01,2.05731e-02
1.40473e-01,1.89156e-02
1.43724e-01,1.73853e-02
1.47050e-01,1.59729e-02
1.50453e-01,1.46697e-02
1.53934e-01,1.34674e-02
1.57496e-01,1.23585e-02
1.61141e-01,1.13361e-02
1.64870e-01,1.03937e-02
1.68685e-01,9.52508e-03
1.72588e-01,8.72476e-03
1.76582e-01,7.98752e-03
1.80668e-01,7.30852e-03
1.84849e-01,6.68330e-03
1.89126e-01,6.10773e-03
1.93503e-01,5.57796e-03
1.97981e-01,5.09046e-03
2.02562e-01,4.64193e-03
2.07249e-01,4.22934e-03
2.12045e-01,3.84988e-03
2.16952e-01,3.50095e-03
2.21972e-01,3.18015e-03
2.27109e-01,2.88527e-03
2.32364e-01,2.61425e-03
2.37741e-01,2.36520e-03
2.43243e-01,2.13639e-03
2.48871e-01,1.92619e-03
2.54630e-01,1.73312e-03
2.60523e-01,1.55581e-03
2.66551e-01,1.39300e-03
2.72719e-01,1.24352e-03
2.79030e-01,1.10630e-03
2.85487e-01,9.80345e-04
2.92093e-01,8.64750e-04
2.98852e-01,7.58674e-04
3.05768e-01,6.61344e-04
3.12844e-01,5.72049e-04
3.20083e-01,4.90135e-04
3.27490e-01,4.15000e-04
3.35068e-01,3.46090e-04
3.42822e-01,2.82895e-04
3.50755e-01,2.24948e-04
3.58871e-01,1.71816e-04
3.67176e-01,1.23105e-04
3.75672e-01,7.84502e-05
3.84365e-01,3.75176e-05
3.93260e-01,0.00000e+00
