m1=42532.611, m2=95.386, gsp=2.139, rhosp=78.934
fGW[Hz],dPh[rad]
1.60489e-03,1.76663e+02
1.63884e-03,1.68309e+02
1.67352e-03,1.60344e+02
1.70893e-03,1.52749e+02
1.74508e-03,1.45507e+02
1.78201e-03,1.38603e+02
1.81971e-03,1.32020e+02
1.85821e-03,1.25744e+02
1.89753e-03,1.19761e+02
1.93767e-03,1.14057e+02
1.97867e-03,1.08619e+02
2.02053e-03,1.03435e+02
2.06328e-03,9.84939e+01
2.10694e-03,9.37834e+01
2.15152e-03,8.92933e+01
2.19704e-03,8.50134e+01
2.24352e-03,8.09340e+01
2.29099e-03,7.70458e+01
2.33946e-03,7.33400e+01
2.38896e-03,6.98081e+01
2.43951e-03,6.64421e+01
2.49112e-03,6.32343e+01
2.54383e-03,6.01775e+01
2.59765e-03,5.72645e+01
2.65261e-03,5.44887e+01
2.70873e-03,5.18439e+01
2.76605e-03,4.93238e+01
2.82457e-03,4.69228e+01
2.88433e-03,4.46352e+01
2.94536e-03,4.24559e+01
3.00767e-03,4.03798e+01
3.07131e-03,3.84021e+01
3.13629e-03,3.65182e+01
3.20265e-03,3.47238e+01
3.27041e-03,3.30147e+01
3.33960e-03,3.13870e+01
3.41026e-03,2.98368e+01
3.48242e-03,2.83606e+01
3.55610e-03,2.69548e+01
3.63134e-03,2.56162e+01
3.70817e-03,2.43418e+01
3.78662e-03,2.31284e+01
3.86674e-03,2.19732e+01
3.94855e-03,2.08735e+01
4.03210e-03,1.98267e+01
4.11741e-03,1.88304e+01
4.20452e-03,1.78821e+01
4.29348e-03,1.69797e+01
4.38432e-03,1.61209e+01
4.47708e-03,1.53037e+01
4.57181e-03,1.45262e+01
4.66854e-03,1.37865e+01
4.76731e-03,1.30828e+01
4.86818e-03,1.24134e+01
4.97118e-03,1.17767e+01
5.07636e-03,1.11712e+01
5.18376e-03,1.05954e+01
5.29344e-03,1.00479e+01
5.40544e-03,9.52728e+00
5.51981e-03,9.03236e+00
5.63659e-03,8.56189e+00
5.75585e-03,8.11471e+00
5.87763e-03,7.68971e+00
6.00199e-03,7.28585e+00
6.12898e-03,6.90210e+00
6.25865e-03,6.53752e+00
6.39107e-03,6.19118e+00
6.52630e-03,5.86221e+00
6.66438e-03,5.54978e+00
6.80538e-03,5.25311e+00
6.94937e-03,4.97142e+00
7.09640e-03,4.70400e+00
7.24655e-03,4.45016e+00
7.39987e-03,4.20924e+00
7.55643e-03,3.98063e+00
7.71631e-03,3.76372e+00
7.87957e-03,3.55795e+00
8.04628e-03,3.36277e+00
8.21653e-03,3.17766e+00
8.39037e-03,3.00215e+00
8.56789e-03,2.83575e+00
8.74917e-03,2.67802e+00
8.93428e-03,2.52853e+00
9.12331e-03,2.38688e+00
9.31634e-03,2.25269e+00
9.51346e-03,2.12557e+00
9.71474e-03,2.00518e+00
9.92028e-03,1.89120e+00
1.01302e-02,1.78328e+00
1.03445e-02,1.68115e+00
1.05634e-02,1.58449e+00
1.07869e-02,1.49304e+00
1.10151e-02,1.40654e+00
1.12482e-02,1.32474e+00
1.14861e-02,1.24739e+00
1.17292e-02,1.17427e+00
1.19773e-02,1.10517e+00
1.22307e-02,1.03987e+00
1.24895e-02,9.78194e-01
1.27538e-02,9.19939e-01
1.30236e-02,8.64934e-01
1.32992e-02,8.13010e-01
1.35805e-02,7.64006e-01
1.38679e-02,7.17769e-01
1.41613e-02,6.74154e-01
1.44609e-02,6.33023e-01
1.47669e-02,5.94245e-01
1.50793e-02,5.57693e-01
1.53984e-02,5.23250e-01
1.57241e-02,4.90802e-01
1.60568e-02,4.60243e-01
1.63966e-02,4.31469e-01
1.67435e-02,4.04384e-01
1.70977e-02,3.78896e-01
1.74595e-02,3.54917e-01
1.78289e-02,3.32364e-01
1.82061e-02,3.11159e-01
1.85913e-02,2.91227e-01
1.89847e-02,2.72496e-01
1.93863e-02,2.54899e-01
1.97965e-02,2.38373e-01
2.02154e-02,2.22856e-01
2.06431e-02,2.08291e-01
2.10798e-02,1.94624e-01
2.15258e-02,1.81804e-01
2.19813e-02,1.69780e-01
2.24464e-02,1.58508e-01
2.29213e-02,1.47942e-01
2.34062e-02,1.38043e-01
2.39015e-02,1.28770e-01
2.44072e-02,1.20086e-01
2.49236e-02,1.11957e-01
2.54509e-02,1.04349e-01
2.59894e-02,9.72304e-02
2.65393e-02,9.05723e-02
2.71008e-02,8.43464e-02
2.76742e-02,7.85263e-02
2.82597e-02,7.30873e-02
2.88576e-02,6.80056e-02
2.94682e-02,6.32593e-02
3.00916e-02,5.88275e-02
3.07283e-02,5.46904e-02
3.13785e-02,5.08295e-02
3.20424e-02,4.72274e-02
3.27203e-02,4.38676e-02
3.34126e-02,4.07347e-02
3.41195e-02,3.78141e-02
3.48414e-02,3.50922e-02
3.55786e-02,3.25561e-02
3.63314e-02,3.01937e-02
3.71001e-02,2.79937e-02
3.78850e-02,2.59454e-02
3.86866e-02,2.40389e-02
3.95051e-02,2.22648e-02
4.03409e-02,2.06142e-02
4.11945e-02,1.90790e-02
4.20661e-02,1.76514e-02
4.29561e-02,1.63241e-02
4.38649e-02,1.50905e-02
4.47930e-02,1.39441e-02
4.57407e-02,1.28790e-02
4.67085e-02,1.18896e-02
4.76968e-02,1.09708e-02
4.87059e-02,1.01178e-02
4.97364e-02,9.32586e-03
5.07888e-02,8.59088e-03
5.18633e-02,7.90887e-03
5.29606e-02,7.27613e-03
5.40812e-02,6.68922e-03
5.52254e-02,6.14491e-03
5.63939e-02,5.64020e-03
5.75870e-02,5.17230e-03
5.88055e-02,4.73859e-03
6.00497e-02,4.33664e-03
6.13202e-02,3.96419e-03
6.26176e-02,3.61913e-03
6.39424e-02,3.29949e-03
6.52953e-02,3.00345e-03
6.66768e-02,2.72931e-03
6.80875e-02,2.47548e-03
6.95281e-02,2.24049e-03
7.09992e-02,2.02297e-03
7.25014e-02,1.82165e-03
7.40354e-02,1.63536e-03
7.56018e-02,1.46298e-03
7.72013e-02,1.30351e-03
7.88348e-02,1.15598e-03
8.05027e-02,1.01953e-03
8.22060e-02,8.93341e-04
8.39453e-02,7.76647e-04
8.57214e-02,6.68748e-04
8.75351e-02,5.68993e-04
8.93871e-02,4.76776e-04
9.12784e-02,3.91536e-04
9.32096e-02,3.12753e-04
9.51817e-02,2.39945e-04
9.71956e-02,1.72665e-04
9.92520e-02,1.10498e-04
1.01352e-01,5.30619e-05
1.03496e-01,0.00000e+00
