m1=253614.462, m2=80.930, gsp=2.321, rhosp=435.451
fGW[Hz],dPh[rad]
1.09205e-03,1.33262e+04
1.10733e-03,1.27888e+04
1.12282e-03,1.22717e+04
1.13853e-03,1.17741e+04
1.15446e-03,1.12953e+04
1.17062e-03,1.08347e+04
1.18699e-03,1.03917e+04
1.20360e-03,9.96566e+03
1.22044e-03,9.55595e+03
1.23752e-03,9.16200e+03
1.25483e-03,8.78326e+03
1.27239e-03,8.41919e+03
1.29019e-03,8.06927e+03
1.30824e-03,7.73298e+03
1.32655e-03,7.40984e+03
1.34511e-03,7.09937e+03
1.36393e-03,6.80112e+03
1.38301e-03,6.51464e+03
1.40236e-03,6.23950e+03
1.42198e-03,5.97529e+03
1.44188e-03,5.72161e+03
1.46205e-03,5.47806e+03
1.48250e-03,5.24427e+03
1.50325e-03,5.01989e+03
1.52428e-03,4.80456e+03
1.54561e-03,4.59794e+03
1.56723e-03,4.39971e+03
1.58916e-03,4.20955e+03
1.61139e-03,4.02715e+03
1.63394e-03,3.85223e+03
1.65680e-03,3.68449e+03
1.67998e-03,3.52366e+03
1.70349e-03,3.36948e+03
1.72732e-03,3.22169e+03
1.75149e-03,3.08005e+03
1.77599e-03,2.94432e+03
1.80084e-03,2.81426e+03
1.82604e-03,2.68966e+03
1.85159e-03,2.57030e+03
1.87749e-03,2.45598e+03
1.90376e-03,2.34649e+03
1.93040e-03,2.24165e+03
1.95741e-03,2.14127e+03
1.98479e-03,2.04517e+03
2.01256e-03,1.95319e+03
2.04072e-03,1.86516e+03
2.06927e-03,1.78091e+03
2.09822e-03,1.70029e+03
2.12758e-03,1.62317e+03
2.15735e-03,1.54939e+03
2.18753e-03,1.47882e+03
2.21814e-03,1.41133e+03
2.24917e-03,1.34678e+03
2.28064e-03,1.28507e+03
2.31255e-03,1.22607e+03
2.34491e-03,1.16967e+03
2.37772e-03,1.11576e+03
2.41098e-03,1.06423e+03
2.44472e-03,1.01500e+03
2.47892e-03,9.67951e+02
2.51361e-03,9.23003e+02
2.54877e-03,8.80065e+02
2.58443e-03,8.39050e+02
2.62059e-03,7.99878e+02
2.65726e-03,7.62470e+02
2.69444e-03,7.26749e+02
2.73214e-03,6.92643e+02
2.77036e-03,6.60084e+02
2.80912e-03,6.29002e+02
2.84843e-03,5.99336e+02
2.88828e-03,5.71023e+02
2.92869e-03,5.44004e+02
2.96967e-03,5.18222e+02
3.01122e-03,4.93624e+02
3.05335e-03,4.70157e+02
3.09607e-03,4.47772e+02
3.13939e-03,4.26420e+02
3.18331e-03,4.06055e+02
3.22785e-03,3.86635e+02
3.27301e-03,3.68116e+02
3.31881e-03,3.50459e+02
3.36524e-03,3.33625e+02
3.41232e-03,3.17576e+02
3.46007e-03,3.02278e+02
3.50848e-03,2.87697e+02
3.55757e-03,2.73801e+02
3.60734e-03,2.60557e+02
3.65781e-03,2.47938e+02
3.70899e-03,2.35913e+02
3.76088e-03,2.24457e+02
3.81350e-03,2.13542e+02
3.86686e-03,2.03145e+02
3.92096e-03,1.93242e+02
3.97582e-03,1.83809e+02
4.03145e-03,1.74825e+02
4.08785e-03,1.66270e+02
4.14505e-03,1.58123e+02
4.20304e-03,1.50365e+02
4.26185e-03,1.42979e+02
4.32148e-03,1.35947e+02
4.38194e-03,1.29253e+02
4.44325e-03,1.22880e+02
4.50542e-03,1.16814e+02
4.56845e-03,1.11041e+02
4.63237e-03,1.05546e+02
4.69719e-03,1.00317e+02
4.76291e-03,9.53400e+01
4.82954e-03,9.06045e+01
4.89712e-03,8.60986e+01
4.96563e-03,8.18114e+01
5.03511e-03,7.77325e+01
5.10556e-03,7.38520e+01
5.17699e-03,7.01605e+01
5.24942e-03,6.66490e+01
5.32287e-03,6.33088e+01
5.39734e-03,6.01318e+01
5.47286e-03,5.71102e+01
5.54943e-03,5.42364e+01
5.62708e-03,5.15035e+01
5.70581e-03,4.89046e+01
5.78564e-03,4.64332e+01
5.86659e-03,4.40833e+01
5.94867e-03,4.18489e+01
6.03190e-03,3.97245e+01
6.11629e-03,3.77047e+01
6.20187e-03,3.57846e+01
6.28864e-03,3.39591e+01
6.37663e-03,3.22238e+01
6.46584e-03,3.05743e+01
6.55631e-03,2.90063e+01
6.64804e-03,2.75159e+01
6.74105e-03,2.60994e+01
6.83537e-03,2.47531e+01
6.93101e-03,2.34735e+01
7.02798e-03,2.22575e+01
7.12631e-03,2.11019e+01
7.22602e-03,2.00037e+01
7.32712e-03,1.89602e+01
7.42964e-03,1.79685e+01
7.53359e-03,1.70263e+01
7.63899e-03,1.61310e+01
7.74587e-03,1.52804e+01
7.85424e-03,1.44722e+01
7.96414e-03,1.37043e+01
8.07556e-03,1.29748e+01
8.18855e-03,1.22818e+01
8.30312e-03,1.16234e+01
8.41929e-03,1.09980e+01
8.53709e-03,1.04038e+01
8.65653e-03,9.83945e+00
8.77765e-03,9.30336e+00
8.90046e-03,8.79414e+00
9.02499e-03,8.31046e+00
9.15126e-03,7.85105e+00
9.27930e-03,7.41471e+00
9.40913e-03,7.00028e+00
9.54078e-03,6.60668e+00
9.67426e-03,6.23286e+00
9.80962e-03,5.87785e+00
9.94687e-03,5.54069e+00
1.00860e-02,5.22051e+00
1.02272e-02,4.91645e+00
1.03702e-02,4.62771e+00
1.05153e-02,4.35351e+00
1.06625e-02,4.09314e+00
1.08116e-02,3.84590e+00
1.09629e-02,3.61113e+00
1.11163e-02,3.38821e+00
1.12718e-02,3.17655e+00
1.14295e-02,2.97557e+00
1.15895e-02,2.78474e+00
1.17516e-02,2.60356e+00
1.19160e-02,2.43154e+00
1.20827e-02,2.26821e+00
1.22518e-02,2.11314e+00
1.24232e-02,1.96592e+00
1.25970e-02,1.82615e+00
1.27733e-02,1.69346e+00
1.29520e-02,1.56748e+00
1.31332e-02,1.44789e+00
1.33170e-02,1.33435e+00
1.35033e-02,1.22657e+00
1.36922e-02,1.12425e+00
1.38838e-02,1.02712e+00
1.40780e-02,9.34909e-01
1.42750e-02,8.47380e-01
1.44747e-02,7.64292e-01
1.46773e-02,6.85420e-01
1.48826e-02,6.10551e-01
1.50908e-02,5.39484e-01
1.53020e-02,4.72025e-01
1.55161e-02,4.07993e-01
1.57332e-02,3.47213e-01
1.59533e-02,2.89522e-01
1.61765e-02,2.34762e-01
1.64028e-02,1.82786e-01
1.66323e-02,1.33452e-01
1.68650e-02,8.66270e-02
1.71010e-02,4.21832e-02
1.73403e-02,0.00000e+00
