m1=232976.761, m2=10.453, gsp=2.444, rhosp=703.050
fGW[Hz],dPh[rad]
2.40308e-03,1.29920e+05
2.42810e-03,1.25183e+05
2.45338e-03,1.20617e+05
2.47892e-03,1.16214e+05
2.50472e-03,1.11971e+05
2.53080e-03,1.07880e+05
2.55715e-03,1.03936e+05
2.58377e-03,1.00135e+05
2.61067e-03,9.64711e+04
2.63785e-03,9.29394e+04
2.66531e-03,8.95354e+04
2.69306e-03,8.62545e+04
2.72109e-03,8.30924e+04
2.74942e-03,8.00447e+04
2.77805e-03,7.71075e+04
2.80697e-03,7.42768e+04
2.83619e-03,7.15488e+04
2.86572e-03,6.89198e+04
2.89555e-03,6.63863e+04
2.92569e-03,6.39449e+04
2.95615e-03,6.15922e+04
2.98693e-03,5.93251e+04
3.01802e-03,5.71406e+04
3.04944e-03,5.50356e+04
3.08119e-03,5.30074e+04
3.11327e-03,5.10531e+04
3.14568e-03,4.91700e+04
3.17843e-03,4.73557e+04
3.21152e-03,4.56077e+04
3.24495e-03,4.39235e+04
3.27873e-03,4.23009e+04
3.31287e-03,4.07376e+04
3.34736e-03,3.92315e+04
3.38221e-03,3.77805e+04
3.41742e-03,3.63827e+04
3.45300e-03,3.50360e+04
3.48894e-03,3.37388e+04
3.52527e-03,3.24891e+04
3.56197e-03,3.12852e+04
3.59905e-03,3.01255e+04
3.63652e-03,2.90084e+04
3.67438e-03,2.79323e+04
3.71263e-03,2.68958e+04
3.75128e-03,2.58973e+04
3.79033e-03,2.49356e+04
3.82979e-03,2.40092e+04
3.86966e-03,2.31170e+04
3.90995e-03,2.22576e+04
3.95066e-03,2.14298e+04
3.99178e-03,2.06325e+04
4.03334e-03,1.98646e+04
4.07533e-03,1.91251e+04
4.11776e-03,1.84127e+04
4.16063e-03,1.77267e+04
4.20394e-03,1.70660e+04
4.24771e-03,1.64297e+04
4.29193e-03,1.58169e+04
4.33661e-03,1.52267e+04
4.38176e-03,1.46583e+04
4.42738e-03,1.41109e+04
4.47347e-03,1.35838e+04
4.52004e-03,1.30761e+04
4.56710e-03,1.25873e+04
4.61464e-03,1.21165e+04
4.66269e-03,1.16631e+04
4.71123e-03,1.12266e+04
4.76028e-03,1.08062e+04
4.80983e-03,1.04013e+04
4.85991e-03,1.00115e+04
4.91050e-03,9.63614e+03
4.96162e-03,9.27469e+03
5.01328e-03,8.92663e+03
5.06547e-03,8.59149e+03
5.11820e-03,8.26878e+03
5.17149e-03,7.95804e+03
5.22533e-03,7.65884e+03
5.27973e-03,7.37075e+03
5.33469e-03,7.09336e+03
5.39023e-03,6.82627e+03
5.44635e-03,6.56910e+03
5.50305e-03,6.32149e+03
5.56034e-03,6.08308e+03
5.61822e-03,5.85354e+03
5.67671e-03,5.63253e+03
5.73581e-03,5.41974e+03
5.79553e-03,5.21486e+03
5.85586e-03,5.01761e+03
5.91683e-03,4.82770e+03
5.97842e-03,4.64486e+03
6.04066e-03,4.46882e+03
6.10355e-03,4.29934e+03
6.16709e-03,4.13617e+03
6.23130e-03,3.97907e+03
6.29617e-03,3.82783e+03
6.36172e-03,3.68223e+03
6.42795e-03,3.54205e+03
6.49487e-03,3.40709e+03
6.56248e-03,3.27717e+03
6.63080e-03,3.15209e+03
6.69983e-03,3.03168e+03
6.76958e-03,2.91575e+03
6.84006e-03,2.80415e+03
6.91127e-03,2.69672e+03
6.98322e-03,2.59329e+03
7.05592e-03,2.49372e+03
7.12938e-03,2.39787e+03
7.20360e-03,2.30560e+03
7.27859e-03,2.21677e+03
7.35437e-03,2.13125e+03
7.43093e-03,2.04894e+03
7.50829e-03,1.96969e+03
7.58646e-03,1.89341e+03
7.66544e-03,1.81997e+03
7.74524e-03,1.74928e+03
7.82588e-03,1.68124e+03
7.90735e-03,1.61573e+03
7.98967e-03,1.55267e+03
8.07285e-03,1.49197e+03
8.15689e-03,1.43354e+03
8.24181e-03,1.37730e+03
8.32762e-03,1.32315e+03
8.41431e-03,1.27104e+03
8.50191e-03,1.22087e+03
8.59042e-03,1.17258e+03
8.67985e-03,1.12609e+03
8.77022e-03,1.08134e+03
8.86152e-03,1.03827e+03
8.95378e-03,9.96812e+02
9.04699e-03,9.56904e+02
9.14118e-03,9.18489e+02
9.23634e-03,8.81513e+02
9.33250e-03,8.45920e+02
9.42966e-03,8.11660e+02
9.52783e-03,7.78683e+02
9.62702e-03,7.46941e+02
9.72724e-03,7.16387e+02
9.82851e-03,6.86978e+02
9.93083e-03,6.58670e+02
1.00342e-02,6.31422e+02
1.01387e-02,6.05196e+02
1.02442e-02,5.79952e+02
1.03509e-02,5.55653e+02
1.04586e-02,5.32265e+02
1.05675e-02,5.09754e+02
1.06775e-02,4.88086e+02
1.07887e-02,4.67230e+02
1.09010e-02,4.47156e+02
1.10145e-02,4.27834e+02
1.11292e-02,4.09237e+02
1.12450e-02,3.91337e+02
1.13621e-02,3.74108e+02
1.14804e-02,3.57525e+02
1.15999e-02,3.41564e+02
1.17207e-02,3.26201e+02
1.18427e-02,3.11414e+02
1.19660e-02,2.97182e+02
1.20906e-02,2.83484e+02
1.22164e-02,2.70299e+02
1.23436e-02,2.57609e+02
1.24721e-02,2.45395e+02
1.26020e-02,2.33640e+02
1.27332e-02,2.22325e+02
1.28657e-02,2.11435e+02
1.29997e-02,2.00953e+02
1.31350e-02,1.90865e+02
1.32717e-02,1.81155e+02
1.34099e-02,1.71810e+02
1.35495e-02,1.62815e+02
1.36906e-02,1.54158e+02
1.38331e-02,1.45826e+02
1.39771e-02,1.37806e+02
1.41226e-02,1.30088e+02
1.42697e-02,1.22659e+02
1.44182e-02,1.15509e+02
1.45683e-02,1.08628e+02
1.47200e-02,1.02004e+02
1.48732e-02,9.56300e+01
1.50281e-02,8.94949e+01
1.51845e-02,8.35901e+01
1.53426e-02,7.79070e+01
1.55023e-02,7.24373e+01
1.56637e-02,6.71731e+01
1.58268e-02,6.21065e+01
1.59916e-02,5.72302e+01
1.61580e-02,5.25370e+01
1.63263e-02,4.80200e+01
1.64962e-02,4.36728e+01
1.66680e-02,3.94888e+01
1.68415e-02,3.54619e+01
1.70168e-02,3.15863e+01
1.71940e-02,2.78563e+01
1.73730e-02,2.42664e+01
1.75538e-02,2.08114e+01
1.77366e-02,1.74862e+01
1.79212e-02,1.42858e+01
1.81078e-02,1.12058e+01
1.82963e-02,8.24140e+00
1.84868e-02,5.38841e+00
1.86793e-02,2.64262e+00
1.88737e-02,0.00000e+00
