m1=54631.340, m2=4.203, gsp=2.232, rhosp=1603.860
fGW[Hz],dPh[rad]
4.85971e-03,1.65234e+04
4.92875e-03,1.57571e+04
4.99877e-03,1.50248e+04
5.06978e-03,1.43250e+04
5.14181e-03,1.36564e+04
5.21485e-03,1.30177e+04
5.28893e-03,1.24076e+04
5.36407e-03,1.18250e+04
5.44027e-03,1.12685e+04
5.51756e-03,1.07372e+04
5.59594e-03,1.02300e+04
5.67544e-03,9.74576e+03
5.75606e-03,9.28357e+03
5.83784e-03,8.84247e+03
5.92077e-03,8.42153e+03
6.00488e-03,8.01989e+03
6.09019e-03,7.63671e+03
6.17671e-03,7.27118e+03
6.26445e-03,6.92252e+03
6.35345e-03,6.59000e+03
6.44371e-03,6.27290e+03
6.53525e-03,5.97054e+03
6.62809e-03,5.68228e+03
6.72225e-03,5.40747e+03
6.81774e-03,5.14552e+03
6.91460e-03,4.89587e+03
7.01283e-03,4.65794e+03
7.11245e-03,4.43122e+03
7.21350e-03,4.21521e+03
7.31597e-03,4.00941e+03
7.41990e-03,3.81336e+03
7.52531e-03,3.62662e+03
7.63222e-03,3.44877e+03
7.74064e-03,3.27940e+03
7.85061e-03,3.11812e+03
7.96213e-03,2.96455e+03
8.07525e-03,2.81835e+03
8.18996e-03,2.67917e+03
8.30631e-03,2.54669e+03
8.42431e-03,2.42060e+03
8.54399e-03,2.30059e+03
8.66537e-03,2.18639e+03
8.78847e-03,2.07772e+03
8.91332e-03,1.97433e+03
9.03995e-03,1.87596e+03
9.16837e-03,1.78239e+03
9.29862e-03,1.69338e+03
9.43071e-03,1.60871e+03
9.56469e-03,1.52819e+03
9.70057e-03,1.45161e+03
9.83837e-03,1.37879e+03
9.97814e-03,1.30955e+03
1.01199e-02,1.24372e+03
1.02637e-02,1.18113e+03
1.04095e-02,1.12164e+03
1.05573e-02,1.06508e+03
1.07073e-02,1.01132e+03
1.08594e-02,9.60222e+02
1.10137e-02,9.11662e+02
1.11702e-02,8.65514e+02
1.13289e-02,8.21662e+02
1.14898e-02,7.79993e+02
1.16530e-02,7.40403e+02
1.18186e-02,7.02789e+02
1.19865e-02,6.67055e+02
1.21567e-02,6.33109e+02
1.23294e-02,6.00864e+02
1.25046e-02,5.70236e+02
1.26822e-02,5.41145e+02
1.28624e-02,5.13517e+02
1.30451e-02,4.87278e+02
1.32305e-02,4.62361e+02
1.34184e-02,4.38700e+02
1.36090e-02,4.16233e+02
1.38024e-02,3.94901e+02
1.39984e-02,3.74647e+02
1.41973e-02,3.55418e+02
1.43990e-02,3.37164e+02
1.46036e-02,3.19834e+02
1.48110e-02,3.03384e+02
1.50214e-02,2.87769e+02
1.52348e-02,2.72948e+02
1.54512e-02,2.58881e+02
1.56708e-02,2.45530e+02
1.58934e-02,2.32859e+02
1.61192e-02,2.20835e+02
1.63481e-02,2.09424e+02
1.65804e-02,1.98595e+02
1.68159e-02,1.88320e+02
1.70548e-02,1.78570e+02
1.72971e-02,1.69320e+02
1.75428e-02,1.60543e+02
1.77921e-02,1.52216e+02
1.80448e-02,1.44315e+02
1.83012e-02,1.36820e+02
1.85611e-02,1.29710e+02
1.88248e-02,1.22966e+02
1.90923e-02,1.16568e+02
1.93635e-02,1.10499e+02
1.96386e-02,1.04742e+02
1.99176e-02,9.92819e+01
2.02005e-02,9.41030e+01
2.04875e-02,8.91912e+01
2.07785e-02,8.45326e+01
2.10737e-02,8.01145e+01
2.13731e-02,7.59245e+01
2.16767e-02,7.19509e+01
2.19847e-02,6.81827e+01
2.22970e-02,6.46094e+01
2.26137e-02,6.12209e+01
2.29350e-02,5.80078e+01
2.32608e-02,5.49610e+01
2.35913e-02,5.20721e+01
2.39264e-02,4.93329e+01
2.42663e-02,4.67357e+01
2.46110e-02,4.42732e+01
2.49607e-02,4.19385e+01
2.53153e-02,3.97250e+01
2.56749e-02,3.76264e+01
2.60396e-02,3.56368e+01
2.64096e-02,3.37506e+01
2.67847e-02,3.19625e+01
2.71653e-02,3.02674e+01
2.75512e-02,2.86604e+01
2.79426e-02,2.71371e+01
2.83395e-02,2.56930e+01
2.87421e-02,2.43242e+01
2.91504e-02,2.30267e+01
2.95646e-02,2.17967e+01
2.99846e-02,2.06309e+01
3.04105e-02,1.95259e+01
3.08425e-02,1.84784e+01
3.12807e-02,1.74857e+01
3.17251e-02,1.65447e+01
3.21758e-02,1.56528e+01
3.26329e-02,1.48075e+01
3.30964e-02,1.40064e+01
3.35666e-02,1.32471e+01
3.40435e-02,1.25274e+01
3.45271e-02,1.18454e+01
3.50176e-02,1.11990e+01
3.55151e-02,1.05865e+01
3.60196e-02,1.00059e+01
3.65313e-02,9.45574e+00
3.70503e-02,8.93434e+00
3.75766e-02,8.44023e+00
3.81104e-02,7.97198e+00
3.86518e-02,7.52825e+00
3.92009e-02,7.10775e+00
3.97578e-02,6.70927e+00
4.03226e-02,6.33166e+00
4.08955e-02,5.97384e+00
4.14764e-02,5.63477e+00
4.20657e-02,5.31346e+00
4.26633e-02,5.00900e+00
4.32693e-02,4.72050e+00
4.38840e-02,4.44713e+00
4.45075e-02,4.18810e+00
4.51397e-02,3.94265e+00
4.57810e-02,3.71008e+00
4.64314e-02,3.48971e+00
4.70910e-02,3.28091e+00
4.77600e-02,3.08306e+00
4.84385e-02,2.89560e+00
4.91266e-02,2.71798e+00
4.98245e-02,2.54968e+00
5.05323e-02,2.39023e+00
5.12502e-02,2.23915e+00
5.19782e-02,2.09600e+00
5.27166e-02,1.96037e+00
5.34655e-02,1.83187e+00
5.42251e-02,1.71012e+00
5.49954e-02,1.59477e+00
5.57767e-02,1.48548e+00
5.65691e-02,1.38193e+00
5.73727e-02,1.28383e+00
5.81878e-02,1.19088e+00
5.90144e-02,1.10283e+00
5.98527e-02,1.01940e+00
6.07030e-02,9.40357e-01
6.15654e-02,8.65473e-01
6.24400e-02,7.94528e-01
6.33270e-02,7.27314e-01
6.42267e-02,6.63637e-01
6.51391e-02,6.03309e-01
6.60645e-02,5.46156e-01
6.70030e-02,4.92010e-01
6.79548e-02,4.40713e-01
6.89202e-02,3.92116e-01
6.98993e-02,3.46077e-01
7.08923e-02,3.02461e-01
7.18994e-02,2.61141e-01
7.29208e-02,2.21996e-01
7.39568e-02,1.84912e-01
7.50074e-02,1.49781e-01
7.60730e-02,1.16499e-01
7.71537e-02,8.49700e-02
7.82497e-02,5.51013e-02
7.93614e-02,2.68055e-02
8.04888e-02,0.00000e+00
