m1=7160.511, m2=42.938, gsp=2.456, rhosp=2676.983
fGW[Hz],dPh[rad]
3.38129e-03,6.23957e+04
3.47089e-03,5.91525e+04
3.56287e-03,5.60773e+04
3.65728e-03,5.31614e+04
3.75420e-03,5.03964e+04
3.85369e-03,4.77747e+04
3.95581e-03,4.52887e+04
4.06064e-03,4.29315e+04
4.16825e-03,4.06965e+04
4.27871e-03,3.85772e+04
4.39209e-03,3.65678e+04
4.50848e-03,3.46625e+04
4.62796e-03,3.28559e+04
4.75060e-03,3.11430e+04
4.87649e-03,2.95188e+04
5.00572e-03,2.79789e+04
5.13837e-03,2.65188e+04
5.27454e-03,2.51345e+04
5.41431e-03,2.38219e+04
5.55779e-03,2.25774e+04
5.70507e-03,2.13975e+04
5.85626e-03,2.02788e+04
6.01145e-03,1.92182e+04
6.17075e-03,1.82126e+04
6.33427e-03,1.72592e+04
6.50213e-03,1.63553e+04
6.67444e-03,1.54983e+04
6.85131e-03,1.46859e+04
7.03287e-03,1.39157e+04
7.21924e-03,1.31854e+04
7.41055e-03,1.24932e+04
7.60693e-03,1.18369e+04
7.80852e-03,1.12147e+04
8.01544e-03,1.06249e+04
8.22785e-03,1.00658e+04
8.44589e-03,9.53579e+03
8.66971e-03,9.03334e+03
8.89945e-03,8.55706e+03
9.13529e-03,8.10557e+03
9.37738e-03,7.67761e+03
9.62588e-03,7.27194e+03
9.88096e-03,6.88742e+03
1.01428e-02,6.52294e+03
1.04116e-02,6.17748e+03
1.06875e-02,5.85004e+03
1.09707e-02,5.53970e+03
1.12614e-02,5.24555e+03
1.15599e-02,4.96677e+03
1.18662e-02,4.70256e+03
1.21807e-02,4.45217e+03
1.25034e-02,4.21487e+03
1.28348e-02,3.98998e+03
1.31749e-02,3.77688e+03
1.35240e-02,3.57493e+03
1.38824e-02,3.38356e+03
1.42503e-02,3.20223e+03
1.46280e-02,3.03042e+03
1.50156e-02,2.86762e+03
1.54135e-02,2.71337e+03
1.58220e-02,2.56724e+03
1.62413e-02,2.42878e+03
1.66716e-02,2.29761e+03
1.71134e-02,2.17336e+03
1.75669e-02,2.05564e+03
1.80325e-02,1.94414e+03
1.85103e-02,1.83853e+03
1.90009e-02,1.73849e+03
1.95044e-02,1.64374e+03
2.00212e-02,1.55400e+03
2.05518e-02,1.46902e+03
2.10964e-02,1.38854e+03
2.16555e-02,1.31234e+03
2.22294e-02,1.24018e+03
2.28184e-02,1.17185e+03
2.34231e-02,1.10717e+03
2.40438e-02,1.04593e+03
2.46810e-02,9.87958e+02
2.53351e-02,9.33083e+02
2.60064e-02,8.81142e+02
2.66956e-02,8.31983e+02
2.74030e-02,7.85459e+02
2.81292e-02,7.41434e+02
2.88746e-02,6.99775e+02
2.96398e-02,6.60360e+02
3.04253e-02,6.23071e+02
3.12315e-02,5.87795e+02
3.20592e-02,5.54429e+02
3.29087e-02,5.22870e+02
3.37808e-02,4.93025e+02
3.46760e-02,4.64803e+02
3.55949e-02,4.38119e+02
3.65382e-02,4.12891e+02
3.75065e-02,3.89044e+02
3.85004e-02,3.66504e+02
3.95207e-02,3.45202e+02
4.05679e-02,3.25072e+02
4.16430e-02,3.06054e+02
4.27465e-02,2.88087e+02
4.38793e-02,2.71116e+02
4.50421e-02,2.55089e+02
4.62357e-02,2.39954e+02
4.74610e-02,2.25665e+02
4.87187e-02,2.12177e+02
5.00098e-02,1.99446e+02
5.13350e-02,1.87432e+02
5.26954e-02,1.76098e+02
5.40918e-02,1.65406e+02
5.55253e-02,1.55321e+02
5.69967e-02,1.45813e+02
5.85071e-02,1.36848e+02
6.00575e-02,1.28398e+02
6.16491e-02,1.20435e+02
6.32828e-02,1.12933e+02
6.49597e-02,1.05866e+02
6.66812e-02,9.92110e+01
6.84482e-02,9.29454e+01
7.02621e-02,8.70478e+01
7.21241e-02,8.14980e+01
7.40353e-02,7.62769e+01
7.59973e-02,7.13663e+01
7.80112e-02,6.67491e+01
8.00785e-02,6.24089e+01
8.22006e-02,5.83303e+01
8.43789e-02,5.44987e+01
8.66150e-02,5.09002e+01
8.89102e-02,4.75217e+01
9.12664e-02,4.43508e+01
9.36849e-02,4.13757e+01
9.61676e-02,3.85853e+01
9.87160e-02,3.59689e+01
1.01332e-01,3.35166e+01
1.04017e-01,3.12189e+01
1.06774e-01,2.90669e+01
1.09603e-01,2.70521e+01
1.12508e-01,2.51664e+01
1.15489e-01,2.34022e+01
1.18550e-01,2.17524e+01
1.21691e-01,2.02101e+01
1.24916e-01,1.87690e+01
1.28226e-01,1.74229e+01
1.31624e-01,1.61662e+01
1.35112e-01,1.49933e+01
1.38693e-01,1.38991e+01
1.42368e-01,1.28789e+01
1.46141e-01,1.19279e+01
1.50014e-01,1.10420e+01
1.53989e-01,1.02170e+01
1.58070e-01,9.44911e+00
1.62259e-01,8.73465e+00
1.66559e-01,8.07023e+00
1.70972e-01,7.45262e+00
1.75503e-01,6.87879e+00
1.80154e-01,6.34588e+00
1.84928e-01,5.85120e+00
1.89829e-01,5.39223e+00
1.94859e-01,4.96657e+00
2.00023e-01,4.57200e+00
2.05323e-01,4.20642e+00
2.10765e-01,3.86784e+00
2.16350e-01,3.55443e+00
2.22083e-01,3.26444e+00
2.27968e-01,2.99624e+00
2.34009e-01,2.74832e+00
2.40211e-01,2.51923e+00
2.46576e-01,2.30765e+00
2.53111e-01,2.11232e+00
2.59818e-01,1.93208e+00
2.66703e-01,1.76582e+00
2.73771e-01,1.61254e+00
2.81026e-01,1.47128e+00
2.88473e-01,1.34114e+00
2.96117e-01,1.22132e+00
3.03965e-01,1.11102e+00
3.12020e-01,1.00954e+00
3.20288e-01,9.16208e-01
3.28776e-01,8.30403e-01
3.37488e-01,7.51547e-01
3.46432e-01,6.79106e-01
3.55612e-01,6.12582e-01
3.65036e-01,5.51514e-01
3.74709e-01,4.95473e-01
3.84639e-01,4.44065e-01
3.94832e-01,3.96921e-01
4.05295e-01,3.53703e-01
4.16036e-01,3.14096e-01
4.27061e-01,2.77810e-01
4.38378e-01,2.44577e-01
4.49995e-01,2.14149e-01
4.61919e-01,1.86297e-01
4.74160e-01,1.60811e-01
4.86726e-01,1.37496e-01
4.99624e-01,1.16172e-01
5.12864e-01,9.66755e-02
5.26455e-01,7.88536e-02
5.40406e-01,6.25666e-02
5.54727e-01,4.76860e-02
5.69427e-01,3.40933e-02
5.84517e-01,2.16799e-02
6.00006e-01,1.03461e-02
6.15907e-01,0.00000e+00
