m1=624864.210, m2=94.736, gsp=2.435, rhosp=132.731
fGW[Hz],dPh[rad]
8.21635e-04,3.73807e+04
8.30551e-04,3.60300e+04
8.39563e-04,3.47265e+04
8.48673e-04,3.34687e+04
8.57882e-04,3.22549e+04
8.67191e-04,3.10838e+04
8.76600e-04,2.99539e+04
8.86112e-04,2.88638e+04
8.95727e-04,2.78121e+04
9.05447e-04,2.67976e+04
9.15272e-04,2.58190e+04
9.25203e-04,2.48751e+04
9.35242e-04,2.39647e+04
9.45390e-04,2.30867e+04
9.55649e-04,2.22399e+04
9.66018e-04,2.14233e+04
9.76500e-04,2.06359e+04
9.87096e-04,1.98766e+04
9.97807e-04,1.91445e+04
1.00863e-03,1.84387e+04
1.01958e-03,1.77582e+04
1.03064e-03,1.71022e+04
1.04183e-03,1.64697e+04
1.05313e-03,1.58601e+04
1.06456e-03,1.52725e+04
1.07611e-03,1.47061e+04
1.08779e-03,1.41602e+04
1.09959e-03,1.36341e+04
1.11152e-03,1.31271e+04
1.12358e-03,1.26384e+04
1.13577e-03,1.21676e+04
1.14810e-03,1.17139e+04
1.16055e-03,1.12767e+04
1.17315e-03,1.08554e+04
1.18588e-03,1.04496e+04
1.19875e-03,1.00586e+04
1.21175e-03,9.68190e+03
1.22490e-03,9.31901e+03
1.23819e-03,8.96944e+03
1.25163e-03,8.63270e+03
1.26521e-03,8.30835e+03
1.27894e-03,7.99593e+03
1.29282e-03,7.69502e+03
1.30684e-03,7.40521e+03
1.32102e-03,7.12609e+03
1.33536e-03,6.85729e+03
1.34985e-03,6.59843e+03
1.36449e-03,6.34915e+03
1.37930e-03,6.10911e+03
1.39427e-03,5.87797e+03
1.40940e-03,5.65542e+03
1.42469e-03,5.44113e+03
1.44015e-03,5.23481e+03
1.45578e-03,5.03617e+03
1.47157e-03,4.84493e+03
1.48754e-03,4.66082e+03
1.50368e-03,4.48358e+03
1.52000e-03,4.31296e+03
1.53649e-03,4.14871e+03
1.55316e-03,3.99061e+03
1.57002e-03,3.83843e+03
1.58705e-03,3.69195e+03
1.60427e-03,3.55096e+03
1.62168e-03,3.41526e+03
1.63928e-03,3.28466e+03
1.65706e-03,3.15896e+03
1.67504e-03,3.03799e+03
1.69322e-03,2.92157e+03
1.71159e-03,2.80954e+03
1.73017e-03,2.70173e+03
1.74894e-03,2.59798e+03
1.76792e-03,2.49815e+03
1.78710e-03,2.40208e+03
1.80649e-03,2.30965e+03
1.82609e-03,2.22071e+03
1.84591e-03,2.13513e+03
1.86594e-03,2.05280e+03
1.88618e-03,1.97358e+03
1.90665e-03,1.89736e+03
1.92734e-03,1.82404e+03
1.94825e-03,1.75349e+03
1.96939e-03,1.68563e+03
1.99076e-03,1.62034e+03
2.01236e-03,1.55753e+03
2.03420e-03,1.49711e+03
2.05627e-03,1.43899e+03
2.07859e-03,1.38309e+03
2.10114e-03,1.32931e+03
2.12394e-03,1.27758e+03
2.14699e-03,1.22782e+03
2.17028e-03,1.17996e+03
2.19383e-03,1.13393e+03
2.21764e-03,1.08965e+03
2.24170e-03,1.04707e+03
2.26602e-03,1.00611e+03
2.29061e-03,9.66720e+02
2.31547e-03,9.28835e+02
2.34059e-03,8.92401e+02
2.36599e-03,8.57360e+02
2.39166e-03,8.23662e+02
2.41761e-03,7.91255e+02
2.44385e-03,7.60091e+02
2.47037e-03,7.30121e+02
2.49717e-03,7.01301e+02
2.52427e-03,6.73587e+02
2.55166e-03,6.46936e+02
2.57935e-03,6.21310e+02
2.60733e-03,5.96668e+02
2.63563e-03,5.72973e+02
2.66422e-03,5.50189e+02
2.69313e-03,5.28281e+02
2.72236e-03,5.07216e+02
2.75190e-03,4.86962e+02
2.78176e-03,4.67488e+02
2.81194e-03,4.48764e+02
2.84245e-03,4.30761e+02
2.87330e-03,4.13452e+02
2.90447e-03,3.96810e+02
2.93599e-03,3.80810e+02
2.96785e-03,3.65427e+02
3.00005e-03,3.50638e+02
3.03260e-03,3.36419e+02
3.06551e-03,3.22750e+02
3.09877e-03,3.09608e+02
3.13240e-03,2.96974e+02
3.16639e-03,2.84828e+02
3.20075e-03,2.73152e+02
3.23548e-03,2.61927e+02
3.27058e-03,2.51136e+02
3.30607e-03,2.40763e+02
3.34195e-03,2.30791e+02
3.37821e-03,2.21205e+02
3.41487e-03,2.11990e+02
3.45192e-03,2.03132e+02
3.48938e-03,1.94616e+02
3.52724e-03,1.86431e+02
3.56551e-03,1.78563e+02
3.60420e-03,1.71000e+02
3.64331e-03,1.63730e+02
3.68284e-03,1.56742e+02
3.72280e-03,1.50025e+02
3.76320e-03,1.43568e+02
3.80403e-03,1.37362e+02
3.84531e-03,1.31397e+02
3.88704e-03,1.25663e+02
3.92921e-03,1.20152e+02
3.97185e-03,1.14855e+02
4.01495e-03,1.09763e+02
4.05851e-03,1.04870e+02
4.10255e-03,1.00166e+02
4.14707e-03,9.56453e+01
4.19207e-03,9.13002e+01
4.23755e-03,8.71240e+01
4.28353e-03,8.31101e+01
4.33001e-03,7.92523e+01
4.37700e-03,7.55446e+01
4.42449e-03,7.19810e+01
4.47250e-03,6.85561e+01
4.52103e-03,6.52645e+01
4.57009e-03,6.21009e+01
4.61968e-03,5.90605e+01
4.66981e-03,5.61384e+01
4.72048e-03,5.33301e+01
4.77170e-03,5.06311e+01
4.82348e-03,4.80373e+01
4.87581e-03,4.55444e+01
4.92872e-03,4.31487e+01
4.98220e-03,4.08463e+01
5.03626e-03,3.86336e+01
5.09091e-03,3.65071e+01
5.14615e-03,3.44635e+01
5.20199e-03,3.24996e+01
5.25844e-03,3.06122e+01
5.31550e-03,2.87984e+01
5.37317e-03,2.70553e+01
5.43148e-03,2.53802e+01
5.49041e-03,2.37705e+01
5.54999e-03,2.22235e+01
5.61021e-03,2.07369e+01
5.67109e-03,1.93082e+01
5.73262e-03,1.79354e+01
5.79483e-03,1.66161e+01
5.85771e-03,1.53482e+01
5.92127e-03,1.41299e+01
5.98552e-03,1.29591e+01
6.05047e-03,1.18340e+01
6.11612e-03,1.07529e+01
6.18248e-03,9.71393e+00
6.24957e-03,8.71556e+00
6.31738e-03,7.75618e+00
6.38593e-03,6.83427e+00
6.45522e-03,5.94837e+00
6.52527e-03,5.09707e+00
6.59607e-03,4.27903e+00
6.66764e-03,3.49295e+00
6.73999e-03,2.73759e+00
6.81313e-03,2.01174e+00
6.88706e-03,1.31425e+00
6.96179e-03,6.44029e-01
7.03733e-03,0.00000e+00
