m1=117806.736, m2=52.668, gsp=2.278, rhosp=17.450
fGW[Hz],dPh[rad]
1.55404e-03,3.95949e+03
1.57906e-03,3.79404e+03
1.60449e-03,3.63504e+03
1.63033e-03,3.48226e+03
1.65658e-03,3.33548e+03
1.68326e-03,3.19446e+03
1.71037e-03,3.05901e+03
1.73791e-03,2.92891e+03
1.76589e-03,2.80398e+03
1.79433e-03,2.68401e+03
1.82322e-03,2.56883e+03
1.85258e-03,2.45825e+03
1.88242e-03,2.35211e+03
1.91273e-03,2.25024e+03
1.94353e-03,2.15249e+03
1.97483e-03,2.05869e+03
2.00663e-03,1.96870e+03
2.03894e-03,1.88237e+03
2.07178e-03,1.79957e+03
2.10514e-03,1.72017e+03
2.13904e-03,1.64403e+03
2.17348e-03,1.57103e+03
2.20848e-03,1.50106e+03
2.24405e-03,1.43399e+03
2.28018e-03,1.36971e+03
2.31690e-03,1.30812e+03
2.35421e-03,1.24911e+03
2.39212e-03,1.19258e+03
2.43064e-03,1.13844e+03
2.46978e-03,1.08660e+03
2.50955e-03,1.03696e+03
2.54997e-03,9.89430e+02
2.59103e-03,9.43938e+02
2.63275e-03,9.00400e+02
2.67515e-03,8.58738e+02
2.71823e-03,8.18877e+02
2.76200e-03,7.80747e+02
2.80648e-03,7.44276e+02
2.85167e-03,7.09400e+02
2.89759e-03,6.76053e+02
2.94425e-03,6.44173e+02
2.99166e-03,6.13702e+02
3.03984e-03,5.84581e+02
3.08879e-03,5.56755e+02
3.13853e-03,5.30171e+02
3.18907e-03,5.04779e+02
3.24042e-03,4.80528e+02
3.29260e-03,4.57371e+02
3.34562e-03,4.35262e+02
3.39950e-03,4.14159e+02
3.45424e-03,3.94017e+02
3.50987e-03,3.74798e+02
3.56639e-03,3.56461e+02
3.62382e-03,3.38969e+02
3.68217e-03,3.22286e+02
3.74147e-03,3.06378e+02
3.80172e-03,2.91211e+02
3.86294e-03,2.76752e+02
3.92514e-03,2.62972e+02
3.98835e-03,2.49841e+02
4.05257e-03,2.37330e+02
4.11783e-03,2.25412e+02
4.18414e-03,2.14060e+02
4.25152e-03,2.03251e+02
4.31999e-03,1.92959e+02
4.38955e-03,1.83161e+02
4.46024e-03,1.73836e+02
4.53206e-03,1.64962e+02
4.60504e-03,1.56519e+02
4.67920e-03,1.48486e+02
4.75455e-03,1.40846e+02
4.83111e-03,1.33581e+02
4.90891e-03,1.26673e+02
4.98796e-03,1.20105e+02
5.06828e-03,1.13862e+02
5.14989e-03,1.07930e+02
5.23282e-03,1.02292e+02
5.31709e-03,9.69365e+01
5.40271e-03,9.18490e+01
5.48971e-03,8.70171e+01
5.57811e-03,8.24287e+01
5.66794e-03,7.80723e+01
5.75921e-03,7.39366e+01
5.85195e-03,7.00113e+01
5.94619e-03,6.62860e+01
6.04194e-03,6.27512e+01
6.13923e-03,5.93977e+01
6.23810e-03,5.62166e+01
6.33855e-03,5.31994e+01
6.44062e-03,5.03382e+01
6.54433e-03,4.76253e+01
6.64972e-03,4.50534e+01
6.75680e-03,4.26155e+01
6.86561e-03,4.03049e+01
6.97617e-03,3.81152e+01
7.08850e-03,3.60405e+01
7.20265e-03,3.40750e+01
7.31864e-03,3.22132e+01
7.43649e-03,3.04497e+01
7.55624e-03,2.87798e+01
7.67792e-03,2.71985e+01
7.80156e-03,2.57014e+01
7.92719e-03,2.42841e+01
8.05484e-03,2.29427e+01
8.18455e-03,2.16731e+01
8.31635e-03,2.04717e+01
8.45027e-03,1.93349e+01
8.58635e-03,1.82595e+01
8.72461e-03,1.72421e+01
8.86511e-03,1.62798e+01
9.00786e-03,1.53697e+01
9.15292e-03,1.45090e+01
9.30031e-03,1.36952e+01
9.45008e-03,1.29258e+01
9.60225e-03,1.21984e+01
9.75688e-03,1.15109e+01
9.91400e-03,1.08610e+01
1.00736e-02,1.02468e+01
1.02359e-02,9.66647e+00
1.04007e-02,9.11807e+00
1.05682e-02,8.59994e+00
1.07384e-02,8.11045e+00
1.09113e-02,7.64807e+00
1.10870e-02,7.21132e+00
1.12655e-02,6.79883e+00
1.14469e-02,6.40927e+00
1.16313e-02,6.04142e+00
1.18186e-02,5.69407e+00
1.20089e-02,5.36613e+00
1.22023e-02,5.05652e+00
1.23988e-02,4.76425e+00
1.25984e-02,4.48837e+00
1.28013e-02,4.22797e+00
1.30074e-02,3.98221e+00
1.32169e-02,3.75028e+00
1.34297e-02,3.53142e+00
1.36460e-02,3.32490e+00
1.38657e-02,3.13004e+00
1.40890e-02,2.94620e+00
1.43159e-02,2.77276e+00
1.45464e-02,2.60915e+00
1.47807e-02,2.45481e+00
1.50187e-02,2.30924e+00
1.52605e-02,2.17194e+00
1.55063e-02,2.04244e+00
1.57560e-02,1.92032e+00
1.60097e-02,1.80516e+00
1.62675e-02,1.69657e+00
1.65295e-02,1.59417e+00
1.67956e-02,1.49763e+00
1.70661e-02,1.40661e+00
1.73409e-02,1.32079e+00
1.76202e-02,1.23989e+00
1.79039e-02,1.16363e+00
1.81922e-02,1.09174e+00
1.84852e-02,1.02398e+00
1.87828e-02,9.60114e-01
1.90853e-02,8.99918e-01
1.93926e-02,8.43185e-01
1.97049e-02,7.89718e-01
2.00222e-02,7.39331e-01
2.03447e-02,6.91848e-01
2.06723e-02,6.47104e-01
2.10052e-02,6.04943e-01
2.13434e-02,5.65216e-01
2.16871e-02,5.27785e-01
2.20363e-02,4.92519e-01
2.23912e-02,4.59292e-01
2.27518e-02,4.27989e-01
2.31181e-02,3.98498e-01
2.34904e-02,3.70717e-01
2.38687e-02,3.44546e-01
2.42531e-02,3.19893e-01
2.46436e-02,2.96670e-01
2.50404e-02,2.74796e-01
2.54437e-02,2.54192e-01
2.58534e-02,2.34786e-01
2.62697e-02,2.16507e-01
2.66928e-02,1.99292e-01
2.71226e-02,1.83079e-01
2.75594e-02,1.67809e-01
2.80031e-02,1.53428e-01
2.84541e-02,1.39885e-01
2.89123e-02,1.27132e-01
2.93779e-02,1.15121e-01
2.98509e-02,1.03812e-01
3.03316e-02,9.31617e-02
3.08201e-02,8.31333e-02
3.13164e-02,7.36903e-02
3.18207e-02,6.47987e-02
3.23331e-02,5.64265e-02
3.28538e-02,4.85435e-02
3.33828e-02,4.11213e-02
3.39204e-02,3.41331e-02
3.44666e-02,2.75535e-02
3.50216e-02,2.13589e-02
3.55856e-02,1.55267e-02
3.61586e-02,1.00359e-02
3.67409e-02,4.86660e-03
3.73325e-02,0.00000e+00
