m1=7468.057, m2=96.057, gsp=2.151, rhosp=30.595
fGW[Hz],dPh[rad]
2.47602e-03,4.25812e+01
2.54512e-03,4.00382e+01
2.61615e-03,3.76469e+01
2.68916e-03,3.53983e+01
2.76422e-03,3.32838e+01
2.84136e-03,3.12954e+01
2.92066e-03,2.94256e+01
3.00218e-03,2.76674e+01
3.08596e-03,2.60141e+01
3.17209e-03,2.44595e+01
3.26062e-03,2.29976e+01
3.35162e-03,2.16229e+01
3.44516e-03,2.03302e+01
3.54131e-03,1.91147e+01
3.64014e-03,1.79717e+01
3.74174e-03,1.68970e+01
3.84616e-03,1.58863e+01
3.95351e-03,1.49360e+01
4.06384e-03,1.40425e+01
4.17726e-03,1.32022e+01
4.29385e-03,1.24121e+01
4.41368e-03,1.16692e+01
4.53686e-03,1.09706e+01
4.66348e-03,1.03138e+01
4.79364e-03,9.69615e+00
4.92742e-03,9.11540e+00
5.06494e-03,8.56932e+00
5.20630e-03,8.05587e+00
5.35160e-03,7.57308e+00
5.50096e-03,7.11913e+00
5.65448e-03,6.69229e+00
5.81229e-03,6.29096e+00
5.97451e-03,5.91361e+00
6.14125e-03,5.55881e+00
6.31265e-03,5.22521e+00
6.48883e-03,4.91155e+00
6.66992e-03,4.61664e+00
6.85607e-03,4.33935e+00
7.04742e-03,4.07865e+00
7.24410e-03,3.83354e+00
7.44628e-03,3.60308e+00
7.65410e-03,3.38641e+00
7.86772e-03,3.18270e+00
8.08730e-03,2.99118e+00
8.31300e-03,2.81112e+00
8.54501e-03,2.64184e+00
8.78349e-03,2.48268e+00
9.02863e-03,2.33306e+00
9.28061e-03,2.19240e+00
9.53962e-03,2.06016e+00
9.80586e-03,1.93584e+00
1.00795e-02,1.81897e+00
1.03608e-02,1.70910e+00
1.06500e-02,1.60582e+00
1.09472e-02,1.50873e+00
1.12528e-02,1.41747e+00
1.15668e-02,1.33167e+00
1.18896e-02,1.25103e+00
1.22215e-02,1.17522e+00
1.25625e-02,1.10397e+00
1.29132e-02,1.03699e+00
1.32735e-02,9.74039e-01
1.36440e-02,9.14868e-01
1.40248e-02,8.59253e-01
1.44162e-02,8.06982e-01
1.48185e-02,7.57855e-01
1.52321e-02,7.11683e-01
1.56572e-02,6.68291e-01
1.60942e-02,6.27511e-01
1.65434e-02,5.89187e-01
1.70051e-02,5.53173e-01
1.74797e-02,5.19330e-01
1.79675e-02,4.87528e-01
1.84690e-02,4.57645e-01
1.89844e-02,4.29566e-01
1.95143e-02,4.03183e-01
2.00589e-02,3.78394e-01
2.06187e-02,3.55105e-01
2.11941e-02,3.33224e-01
2.17857e-02,3.12668e-01
2.23937e-02,2.93357e-01
2.30187e-02,2.75216e-01
2.36611e-02,2.58176e-01
2.43214e-02,2.42170e-01
2.50002e-02,2.27136e-01
2.56979e-02,2.13016e-01
2.64152e-02,1.99755e-01
2.71524e-02,1.87301e-01
2.79102e-02,1.75606e-01
2.86891e-02,1.64624e-01
2.94898e-02,1.54312e-01
3.03128e-02,1.44630e-01
3.11588e-02,1.35541e-01
3.20284e-02,1.27007e-01
3.29223e-02,1.18997e-01
3.38411e-02,1.11477e-01
3.47856e-02,1.04420e-01
3.57564e-02,9.77958e-02
3.67544e-02,9.15797e-02
3.77801e-02,8.57466e-02
3.88345e-02,8.02735e-02
3.99184e-02,7.51384e-02
4.10325e-02,7.03210e-02
4.21776e-02,6.58021e-02
4.33548e-02,6.15635e-02
4.45647e-02,5.75883e-02
4.58085e-02,5.38605e-02
4.70870e-02,5.03650e-02
4.84011e-02,4.70878e-02
4.97519e-02,4.40156e-02
5.11405e-02,4.11359e-02
5.25677e-02,3.84369e-02
5.40348e-02,3.59077e-02
5.55429e-02,3.35379e-02
5.70930e-02,3.13178e-02
5.86865e-02,2.92381e-02
6.03243e-02,2.72904e-02
6.20079e-02,2.54665e-02
6.37385e-02,2.37587e-02
6.55174e-02,2.21601e-02
6.73459e-02,2.06638e-02
6.92254e-02,1.92635e-02
7.11575e-02,1.79534e-02
7.31434e-02,1.67278e-02
7.51847e-02,1.55815e-02
7.72831e-02,1.45096e-02
7.94400e-02,1.35076e-02
8.16570e-02,1.25709e-02
8.39360e-02,1.16956e-02
8.62786e-02,1.08778e-02
8.86865e-02,1.01139e-02
9.11617e-02,9.40059e-03
9.37059e-02,8.73461e-03
9.63211e-02,8.11302e-03
9.90093e-02,7.53299e-03
1.01773e-01,6.99190e-03
1.04613e-01,6.48728e-03
1.07533e-01,6.01681e-03
1.10534e-01,5.57829e-03
1.13619e-01,5.16969e-03
1.16790e-01,4.78909e-03
1.20049e-01,4.43468e-03
1.23399e-01,4.10477e-03
1.26843e-01,3.79776e-03
1.30383e-01,3.51217e-03
1.34022e-01,3.24659e-03
1.37763e-01,2.99972e-03
1.41608e-01,2.77032e-03
1.45560e-01,2.55723e-03
1.49622e-01,2.35938e-03
1.53798e-01,2.17574e-03
1.58090e-01,2.00537e-03
1.62502e-01,1.84736e-03
1.67038e-01,1.70089e-03
1.71700e-01,1.56517e-03
1.76491e-01,1.43947e-03
1.81417e-01,1.32309e-03
1.86480e-01,1.21540e-03
1.91685e-01,1.11579e-03
1.97035e-01,1.02370e-03
2.02534e-01,9.38593e-04
2.08186e-01,8.59987e-04
2.13996e-01,7.87415e-04
2.19969e-01,7.20449e-04
2.26108e-01,6.58683e-04
2.32418e-01,6.01744e-04
2.38905e-01,5.49279e-04
2.45572e-01,5.00961e-04
2.52426e-01,4.56485e-04
2.59471e-01,4.15565e-04
2.66713e-01,3.77937e-04
2.74156e-01,3.43353e-04
2.81808e-01,3.11582e-04
2.89673e-01,2.82412e-04
2.97757e-01,2.55642e-04
3.06067e-01,2.31087e-04
3.14609e-01,2.08576e-04
3.23390e-01,1.87949e-04
3.32415e-01,1.69057e-04
3.41692e-01,1.51764e-04
3.51229e-01,1.35941e-04
3.61031e-01,1.21471e-04
3.71107e-01,1.08245e-04
3.81464e-01,9.61613e-05
3.92111e-01,8.51265e-05
4.03054e-01,7.50545e-05
4.14303e-01,6.58655e-05
4.25865e-01,5.74860e-05
4.37751e-01,4.98480e-05
4.49968e-01,4.28892e-05
4.62526e-01,3.65518e-05
4.75435e-01,3.07828e-05
4.88704e-01,2.55335e-05
5.02343e-01,2.07591e-05
5.16363e-01,1.64183e-05
5.30774e-01,1.24734e-05
5.45587e-01,8.88962e-06
5.60814e-01,5.63515e-06
5.76466e-01,2.68085e-06
5.92554e-01,0.00000e+00
