m1=16921.098, m2=9.130, gsp=2.183, rhosp=105.685
fGW[Hz],dPh[rad]
4.87021e-03,2.26692e+03
4.96853e-03,2.16003e+03
5.06883e-03,2.05800e+03
5.17115e-03,1.96059e+03
5.27554e-03,1.86761e+03
5.38204e-03,1.77886e+03
5.49069e-03,1.69415e+03
5.60153e-03,1.61330e+03
5.71461e-03,1.53615e+03
5.82998e-03,1.46253e+03
5.94767e-03,1.39229e+03
6.06773e-03,1.32526e+03
6.19023e-03,1.26132e+03
6.31519e-03,1.20032e+03
6.44268e-03,1.14214e+03
6.57274e-03,1.08664e+03
6.70542e-03,1.03371e+03
6.84079e-03,9.83239e+02
6.97888e-03,9.35108e+02
7.11977e-03,8.89217e+02
7.26350e-03,8.45465e+02
7.41013e-03,8.03757e+02
7.55972e-03,7.64001e+02
7.71233e-03,7.26109e+02
7.86802e-03,6.89998e+02
8.02685e-03,6.55587e+02
8.18889e-03,6.22801e+02
8.35420e-03,5.91566e+02
8.52285e-03,5.61811e+02
8.69491e-03,5.33470e+02
8.87043e-03,5.06479e+02
9.04950e-03,4.80777e+02
9.23219e-03,4.56305e+02
9.41856e-03,4.33007e+02
9.60870e-03,4.10830e+02
9.80267e-03,3.89722e+02
1.00006e-02,3.69635e+02
1.02024e-02,3.50523e+02
1.04084e-02,3.32339e+02
1.06185e-02,3.15042e+02
1.08329e-02,2.98591e+02
1.10516e-02,2.82947e+02
1.12747e-02,2.68072e+02
1.15023e-02,2.53931e+02
1.17345e-02,2.40489e+02
1.19714e-02,2.27715e+02
1.22130e-02,2.15577e+02
1.24596e-02,2.04045e+02
1.27111e-02,1.93092e+02
1.29677e-02,1.82689e+02
1.32295e-02,1.72811e+02
1.34966e-02,1.63433e+02
1.37690e-02,1.54531e+02
1.40470e-02,1.46083e+02
1.43305e-02,1.38068e+02
1.46198e-02,1.30464e+02
1.49150e-02,1.23252e+02
1.52161e-02,1.16413e+02
1.55232e-02,1.09929e+02
1.58366e-02,1.03782e+02
1.61563e-02,9.79578e+01
1.64825e-02,9.24390e+01
1.68152e-02,8.72112e+01
1.71546e-02,8.22600e+01
1.75010e-02,7.75720e+01
1.78542e-02,7.31340e+01
1.82147e-02,6.89338e+01
1.85824e-02,6.49594e+01
1.89575e-02,6.11997e+01
1.93402e-02,5.76438e+01
1.97306e-02,5.42816e+01
2.01289e-02,5.11033e+01
2.05353e-02,4.80994e+01
2.09498e-02,4.52612e+01
2.13728e-02,4.25802e+01
2.18042e-02,4.00482e+01
2.22444e-02,3.76577e+01
2.26934e-02,3.54013e+01
2.31516e-02,3.32719e+01
2.36189e-02,3.12631e+01
2.40957e-02,2.93683e+01
2.45822e-02,2.75817e+01
2.50784e-02,2.58975e+01
2.55847e-02,2.43103e+01
2.61012e-02,2.28148e+01
2.66281e-02,2.14061e+01
2.71656e-02,2.00795e+01
2.77140e-02,1.88307e+01
2.82735e-02,1.76552e+01
2.88443e-02,1.65492e+01
2.94265e-02,1.55088e+01
3.00206e-02,1.45304e+01
3.06266e-02,1.36105e+01
3.12449e-02,1.27459e+01
3.18756e-02,1.19334e+01
3.25191e-02,1.11701e+01
3.31756e-02,1.04533e+01
3.38453e-02,9.78018e+00
3.45286e-02,9.14837e+00
3.52256e-02,8.55546e+00
3.59367e-02,7.99920e+00
3.66622e-02,7.47745e+00
3.74023e-02,6.98821e+00
3.81573e-02,6.52956e+00
3.89276e-02,6.09971e+00
3.97135e-02,5.69695e+00
4.05152e-02,5.31966e+00
4.13331e-02,4.96632e+00
4.21675e-02,4.63550e+00
4.30187e-02,4.32584e+00
4.38872e-02,4.03605e+00
4.47731e-02,3.76492e+00
4.56770e-02,3.51131e+00
4.65991e-02,3.27415e+00
4.75398e-02,3.05243e+00
4.84995e-02,2.84517e+00
4.94785e-02,2.65149e+00
5.04774e-02,2.47054e+00
5.14964e-02,2.30151e+00
5.25359e-02,2.14366e+00
5.35965e-02,1.99627e+00
5.46785e-02,1.85869e+00
5.57823e-02,1.73029e+00
5.69084e-02,1.61048e+00
5.80572e-02,1.49870e+00
5.92292e-02,1.39445e+00
6.04249e-02,1.29723e+00
6.16447e-02,1.20658e+00
6.28892e-02,1.12208e+00
6.41587e-02,1.04333e+00
6.54539e-02,9.69940e-01
6.67752e-02,9.01568e-01
6.81233e-02,8.37878e-01
6.94985e-02,7.78561e-01
7.09015e-02,7.23324e-01
7.23328e-02,6.71897e-01
7.37930e-02,6.24024e-01
7.52827e-02,5.79466e-01
7.68024e-02,5.38001e-01
7.83528e-02,4.99419e-01
7.99346e-02,4.63526e-01
8.15482e-02,4.30139e-01
8.31945e-02,3.99087e-01
8.48739e-02,3.70211e-01
8.65873e-02,3.43362e-01
8.83353e-02,3.18402e-01
9.01185e-02,2.95199e-01
9.19378e-02,2.73634e-01
9.37938e-02,2.53594e-01
9.56872e-02,2.34971e-01
9.76189e-02,2.17670e-01
9.95895e-02,2.01596e-01
1.01600e-01,1.86666e-01
1.03651e-01,1.72799e-01
1.05743e-01,1.59921e-01
1.07878e-01,1.47962e-01
1.10056e-01,1.36858e-01
1.12278e-01,1.26549e-01
1.14544e-01,1.16979e-01
1.16857e-01,1.08096e-01
1.19216e-01,9.98515e-02
1.21622e-01,9.21997e-02
1.24077e-01,8.50988e-02
1.26582e-01,7.85099e-02
1.29138e-01,7.23964e-02
1.31744e-01,6.67246e-02
1.34404e-01,6.14628e-02
1.37117e-01,5.65819e-02
1.39885e-01,5.20545e-02
1.42709e-01,4.78554e-02
1.45590e-01,4.39611e-02
1.48529e-01,4.03496e-02
1.51528e-01,3.70006e-02
1.54587e-01,3.38953e-02
1.57707e-01,3.10161e-02
1.60891e-01,2.83467e-02
1.64139e-01,2.58719e-02
1.67452e-01,2.35776e-02
1.70833e-01,2.14509e-02
1.74281e-01,1.94796e-02
1.77800e-01,1.76525e-02
1.81389e-01,1.59590e-02
1.85051e-01,1.43894e-02
1.88786e-01,1.29349e-02
1.92597e-01,1.15869e-02
1.96485e-01,1.03378e-02
2.00452e-01,9.18031e-03
2.04499e-01,8.10780e-03
2.08627e-01,7.11407e-03
2.12838e-01,6.19336e-03
2.17135e-01,5.34033e-03
2.21518e-01,4.55005e-03
2.25990e-01,3.81791e-03
2.30552e-01,3.13967e-03
2.35207e-01,2.51138e-03
2.39955e-01,1.92938e-03
2.44799e-01,1.39028e-03
2.49741e-01,8.90921e-04
2.54782e-01,4.28397e-04
2.59926e-01,0.00000e+00
