m1=77779.991, m2=84.951, gsp=2.389, rhosp=63.917
fGW[Hz],dPh[rad]
1.44117e-03,2.22330e+04
1.46799e-03,2.13149e+04
1.49531e-03,2.04330e+04
1.52315e-03,1.95859e+04
1.55150e-03,1.87723e+04
1.58037e-03,1.79910e+04
1.60979e-03,1.72406e+04
1.63975e-03,1.65200e+04
1.67027e-03,1.58280e+04
1.70136e-03,1.51636e+04
1.73303e-03,1.45257e+04
1.76528e-03,1.39133e+04
1.79814e-03,1.33253e+04
1.83161e-03,1.27609e+04
1.86570e-03,1.22192e+04
1.90043e-03,1.16992e+04
1.93580e-03,1.12001e+04
1.97183e-03,1.07212e+04
2.00853e-03,1.02616e+04
2.04591e-03,9.82064e+03
2.08399e-03,9.39754e+03
2.12278e-03,8.99163e+03
2.16229e-03,8.60224e+03
2.20254e-03,8.22873e+03
2.24354e-03,7.87048e+03
2.28529e-03,7.52690e+03
2.32783e-03,7.19742e+03
2.37116e-03,6.88148e+03
2.41529e-03,6.57856e+03
2.46025e-03,6.28816e+03
2.50604e-03,6.00978e+03
2.55268e-03,5.74294e+03
2.60020e-03,5.48720e+03
2.64859e-03,5.24213e+03
2.69789e-03,5.00729e+03
2.74811e-03,4.78229e+03
2.79926e-03,4.56674e+03
2.85136e-03,4.36027e+03
2.90443e-03,4.16251e+03
2.95849e-03,3.97313e+03
3.01355e-03,3.79178e+03
3.06965e-03,3.61815e+03
3.12678e-03,3.45194e+03
3.18498e-03,3.29283e+03
3.24426e-03,3.14056e+03
3.30464e-03,2.99484e+03
3.36615e-03,2.85542e+03
3.42881e-03,2.72204e+03
3.49263e-03,2.59445e+03
3.55763e-03,2.47242e+03
3.62385e-03,2.35573e+03
3.69130e-03,2.24415e+03
3.76001e-03,2.13749e+03
3.82999e-03,2.03554e+03
3.90128e-03,1.93810e+03
3.97389e-03,1.84499e+03
4.04786e-03,1.75604e+03
4.12320e-03,1.67107e+03
4.19994e-03,1.58992e+03
4.27811e-03,1.51243e+03
4.35774e-03,1.43844e+03
4.43885e-03,1.36781e+03
4.52147e-03,1.30040e+03
4.60563e-03,1.23608e+03
4.69135e-03,1.17471e+03
4.77867e-03,1.11617e+03
4.86762e-03,1.06034e+03
4.95822e-03,1.00710e+03
5.05050e-03,9.56347e+02
5.14451e-03,9.07969e+02
5.24026e-03,8.61864e+02
5.33779e-03,8.17936e+02
5.43715e-03,7.76090e+02
5.53835e-03,7.36234e+02
5.64143e-03,6.98283e+02
5.74643e-03,6.62152e+02
5.85339e-03,6.27762e+02
5.96234e-03,5.95034e+02
6.07331e-03,5.63897e+02
6.18636e-03,5.34278e+02
6.30150e-03,5.06109e+02
6.41879e-03,4.79326e+02
6.53826e-03,4.53866e+02
6.65996e-03,4.29668e+02
6.78392e-03,4.06676e+02
6.91018e-03,3.84834e+02
7.03880e-03,3.64088e+02
7.16981e-03,3.44390e+02
7.30326e-03,3.25689e+02
7.43920e-03,3.07939e+02
7.57766e-03,2.91096e+02
7.71870e-03,2.75118e+02
7.86237e-03,2.59962e+02
8.00871e-03,2.45591e+02
8.15778e-03,2.31966e+02
8.30961e-03,2.19052e+02
8.46428e-03,2.06815e+02
8.62182e-03,1.95221e+02
8.78230e-03,1.84240e+02
8.94576e-03,1.73841e+02
9.11227e-03,1.63996e+02
9.28187e-03,1.54678e+02
9.45463e-03,1.45860e+02
9.63061e-03,1.37517e+02
9.80986e-03,1.29625e+02
9.99245e-03,1.22163e+02
1.01784e-02,1.15107e+02
1.03679e-02,1.08438e+02
1.05609e-02,1.02136e+02
1.07574e-02,9.61808e+01
1.09577e-02,9.05559e+01
1.11616e-02,8.52438e+01
1.13694e-02,8.02280e+01
1.15810e-02,7.54932e+01
1.17965e-02,7.10245e+01
1.20161e-02,6.68080e+01
1.22397e-02,6.28301e+01
1.24676e-02,5.90782e+01
1.26996e-02,5.55402e+01
1.29360e-02,5.22046e+01
1.31768e-02,4.90604e+01
1.34220e-02,4.60973e+01
1.36718e-02,4.33054e+01
1.39263e-02,4.06753e+01
1.41855e-02,3.81981e+01
1.44496e-02,3.58654e+01
1.47185e-02,3.36691e+01
1.49925e-02,3.16017e+01
1.52715e-02,2.96560e+01
1.55558e-02,2.78252e+01
1.58453e-02,2.61027e+01
1.61402e-02,2.44825e+01
1.64406e-02,2.29588e+01
1.67466e-02,2.15259e+01
1.70583e-02,2.01789e+01
1.73758e-02,1.89127e+01
1.76993e-02,1.77227e+01
1.80287e-02,1.66044e+01
1.83642e-02,1.55538e+01
1.87061e-02,1.45668e+01
1.90542e-02,1.36398e+01
1.94089e-02,1.27693e+01
1.97701e-02,1.19519e+01
2.01381e-02,1.11845e+01
2.05129e-02,1.04642e+01
2.08947e-02,9.78807e+00
2.12837e-02,9.15362e+00
2.16798e-02,8.55831e+00
2.20833e-02,7.99981e+00
2.24944e-02,7.47591e+00
2.29130e-02,6.98452e+00
2.33395e-02,6.52369e+00
2.37739e-02,6.09157e+00
2.42164e-02,5.68641e+00
2.46672e-02,5.30659e+00
2.51263e-02,4.95055e+00
2.55940e-02,4.61685e+00
2.60703e-02,4.30411e+00
2.65556e-02,4.01106e+00
2.70498e-02,3.73648e+00
2.75533e-02,3.47923e+00
2.80662e-02,3.23825e+00
2.85886e-02,3.01253e+00
2.91207e-02,2.80111e+00
2.96627e-02,2.60312e+00
3.02148e-02,2.41772e+00
3.07772e-02,2.24412e+00
3.13500e-02,2.08159e+00
3.19335e-02,1.92943e+00
3.25279e-02,1.78699e+00
3.31333e-02,1.65367e+00
3.37500e-02,1.52888e+00
3.43782e-02,1.41210e+00
3.50181e-02,1.30281e+00
3.56699e-02,1.20055e+00
3.63338e-02,1.10486e+00
3.70101e-02,1.01534e+00
3.76989e-02,9.31582e-01
3.84006e-02,8.53231e-01
3.91154e-02,7.79939e-01
3.98434e-02,7.11385e-01
4.05850e-02,6.47265e-01
4.13404e-02,5.87298e-01
4.21099e-02,5.31216e-01
4.28936e-02,4.78771e-01
4.36920e-02,4.29731e-01
4.45052e-02,3.83876e-01
4.53336e-02,3.41002e-01
4.61774e-02,3.00916e-01
4.70369e-02,2.63440e-01
4.79124e-02,2.28406e-01
4.88041e-02,1.95655e-01
4.97125e-02,1.65041e-01
5.06378e-02,1.36425e-01
5.15803e-02,1.09677e-01
5.25404e-02,8.46778e-02
5.35183e-02,6.13131e-02
5.45144e-02,3.94769e-02
5.55291e-02,1.90702e-02
5.65626e-02,0.00000e+00
