m1=830757.798, m2=94.779, gsp=2.044, rhosp=67.312
fGW[Hz],dPh[rad]
7.65036e-04,3.45653e+01
7.72508e-04,3.33279e+01
7.80053e-04,3.21339e+01
7.87672e-04,3.09817e+01
7.95366e-04,2.98700e+01
8.03134e-04,2.87973e+01
8.10979e-04,2.77624e+01
8.18900e-04,2.67639e+01
8.26898e-04,2.58005e+01
8.34974e-04,2.48712e+01
8.43130e-04,2.39746e+01
8.51365e-04,2.31098e+01
8.59680e-04,2.22755e+01
8.68077e-04,2.14708e+01
8.76555e-04,2.06946e+01
8.85117e-04,1.99460e+01
8.93762e-04,1.92239e+01
9.02492e-04,1.85275e+01
9.11306e-04,1.78559e+01
9.20207e-04,1.72081e+01
9.29195e-04,1.65835e+01
9.38271e-04,1.59811e+01
9.47435e-04,1.54002e+01
9.56689e-04,1.48401e+01
9.66033e-04,1.43000e+01
9.75468e-04,1.37793e+01
9.84996e-04,1.32771e+01
9.94616e-04,1.27930e+01
1.00433e-03,1.23263e+01
1.01414e-03,1.18763e+01
1.02405e-03,1.14424e+01
1.03405e-03,1.10242e+01
1.04415e-03,1.06210e+01
1.05435e-03,1.02323e+01
1.06464e-03,9.85762e+00
1.07504e-03,9.49645e+00
1.08554e-03,9.14832e+00
1.09615e-03,8.81275e+00
1.10685e-03,8.48930e+00
1.11766e-03,8.17755e+00
1.12858e-03,7.87708e+00
1.13960e-03,7.58749e+00
1.15073e-03,7.30839e+00
1.16197e-03,7.03940e+00
1.17332e-03,6.78018e+00
1.18478e-03,6.53036e+00
1.19635e-03,6.28961e+00
1.20804e-03,6.05761e+00
1.21984e-03,5.83405e+00
1.23175e-03,5.61863e+00
1.24378e-03,5.41104e+00
1.25593e-03,5.21102e+00
1.26820e-03,5.01829e+00
1.28058e-03,4.83258e+00
1.29309e-03,4.65366e+00
1.30572e-03,4.48126e+00
1.31848e-03,4.31516e+00
1.33135e-03,4.15513e+00
1.34436e-03,4.00096e+00
1.35749e-03,3.85242e+00
1.37075e-03,3.70932e+00
1.38413e-03,3.57147e+00
1.39765e-03,3.43866e+00
1.41130e-03,3.31072e+00
1.42509e-03,3.18748e+00
1.43901e-03,3.06875e+00
1.45306e-03,2.95439e+00
1.46726e-03,2.84422e+00
1.48159e-03,2.73811e+00
1.49606e-03,2.63589e+00
1.51067e-03,2.53743e+00
1.52542e-03,2.44260e+00
1.54032e-03,2.35126e+00
1.55537e-03,2.26328e+00
1.57056e-03,2.17854e+00
1.58590e-03,2.09693e+00
1.60139e-03,2.01832e+00
1.61703e-03,1.94262e+00
1.63282e-03,1.86970e+00
1.64877e-03,1.79948e+00
1.66488e-03,1.73186e+00
1.68114e-03,1.66673e+00
1.69756e-03,1.60400e+00
1.71414e-03,1.54360e+00
1.73088e-03,1.48543e+00
1.74779e-03,1.42941e+00
1.76486e-03,1.37547e+00
1.78209e-03,1.32352e+00
1.79950e-03,1.27350e+00
1.81708e-03,1.22533e+00
1.83482e-03,1.17895e+00
1.85275e-03,1.13428e+00
1.87084e-03,1.09127e+00
1.88911e-03,1.04986e+00
1.90757e-03,1.00998e+00
1.92620e-03,9.71587e-01
1.94501e-03,9.34616e-01
1.96401e-03,8.99019e-01
1.98319e-03,8.64744e-01
2.00256e-03,8.31743e-01
2.02212e-03,7.99969e-01
2.04187e-03,7.69376e-01
2.06181e-03,7.39921e-01
2.08195e-03,7.11562e-01
2.10229e-03,6.84258e-01
2.12282e-03,6.57971e-01
2.14355e-03,6.32663e-01
2.16449e-03,6.08297e-01
2.18563e-03,5.84839e-01
2.20698e-03,5.62255e-01
2.22854e-03,5.40512e-01
2.25030e-03,5.19581e-01
2.27228e-03,4.99429e-01
2.29447e-03,4.80030e-01
2.31689e-03,4.61354e-01
2.33951e-03,4.43375e-01
2.36237e-03,4.26067e-01
2.38544e-03,4.09406e-01
2.40874e-03,3.93366e-01
2.43226e-03,3.77926e-01
2.45602e-03,3.63062e-01
2.48001e-03,3.48754e-01
2.50423e-03,3.34980e-01
2.52869e-03,3.21721e-01
2.55339e-03,3.08958e-01
2.57833e-03,2.96673e-01
2.60351e-03,2.84846e-01
2.62894e-03,2.73462e-01
2.65462e-03,2.62504e-01
2.68055e-03,2.51957e-01
2.70673e-03,2.41804e-01
2.73316e-03,2.32031e-01
2.75986e-03,2.22624e-01
2.78682e-03,2.13569e-01
2.81404e-03,2.04853e-01
2.84152e-03,1.96464e-01
2.86927e-03,1.88389e-01
2.89730e-03,1.80617e-01
2.92560e-03,1.73136e-01
2.95417e-03,1.65936e-01
2.98303e-03,1.59005e-01
3.01216e-03,1.52334e-01
3.04158e-03,1.45914e-01
3.07129e-03,1.39734e-01
3.10129e-03,1.33787e-01
3.13158e-03,1.28062e-01
3.16217e-03,1.22552e-01
3.19305e-03,1.17249e-01
3.22424e-03,1.12145e-01
3.25573e-03,1.07232e-01
3.28753e-03,1.02504e-01
3.31964e-03,9.79540e-02
3.35206e-03,9.35744e-02
3.38480e-03,8.93594e-02
3.41786e-03,8.53026e-02
3.45125e-03,8.13983e-02
3.48495e-03,7.76407e-02
3.51899e-03,7.40242e-02
3.55336e-03,7.05437e-02
3.58807e-03,6.71940e-02
3.62312e-03,6.39702e-02
3.65850e-03,6.08677e-02
3.69424e-03,5.78817e-02
3.73032e-03,5.50081e-02
3.76675e-03,5.22425e-02
3.80354e-03,4.95809e-02
3.84069e-03,4.70195e-02
3.87821e-03,4.45544e-02
3.91609e-03,4.21821e-02
3.95433e-03,3.98990e-02
3.99296e-03,3.77018e-02
4.03196e-03,3.55873e-02
4.07134e-03,3.35524e-02
4.11110e-03,3.15941e-02
4.15126e-03,2.97095e-02
4.19180e-03,2.78959e-02
4.23275e-03,2.61505e-02
4.27409e-03,2.44709e-02
4.31583e-03,2.28545e-02
4.35799e-03,2.12990e-02
4.40055e-03,1.98020e-02
4.44353e-03,1.83615e-02
4.48693e-03,1.69752e-02
4.53076e-03,1.56411e-02
4.57501e-03,1.43574e-02
4.61970e-03,1.31219e-02
4.66482e-03,1.19330e-02
4.71038e-03,1.07890e-02
4.75639e-03,9.68802e-03
4.80284e-03,8.62856e-03
4.84975e-03,7.60903e-03
4.89712e-03,6.62793e-03
4.94495e-03,5.68381e-03
4.99325e-03,4.77529e-03
5.04202e-03,3.90102e-03
5.09127e-03,3.05971e-03
5.14100e-03,2.25013e-03
5.19121e-03,1.47108e-03
5.24191e-03,7.21402e-04
5.29311e-03,0.00000e+00
