m1=3354.550, m2=11.471, gsp=2.131, rhosp=3520.971
fGW[Hz],dPh[rad]
6.70256e-03,6.24184e+02
6.88269e-03,5.87881e+02
7.06767e-03,5.53682e+02
7.25761e-03,5.21466e+02
7.45266e-03,4.91117e+02
7.65296e-03,4.62527e+02
7.85863e-03,4.35595e+02
8.06984e-03,4.10225e+02
8.28672e-03,3.86326e+02
8.50942e-03,3.63814e+02
8.73812e-03,3.42607e+02
8.97296e-03,3.22630e+02
9.21411e-03,3.03813e+02
9.46174e-03,2.86087e+02
9.71603e-03,2.69391e+02
9.97715e-03,2.53663e+02
1.02453e-02,2.38849e+02
1.05206e-02,2.24894e+02
1.08034e-02,2.11750e+02
1.10937e-02,1.99370e+02
1.13919e-02,1.87709e+02
1.16980e-02,1.76725e+02
1.20124e-02,1.66380e+02
1.23353e-02,1.56635e+02
1.26668e-02,1.47458e+02
1.30072e-02,1.38814e+02
1.33568e-02,1.30673e+02
1.37157e-02,1.23005e+02
1.40844e-02,1.15784e+02
1.44629e-02,1.08983e+02
1.48516e-02,1.02578e+02
1.52507e-02,9.65458e+01
1.56606e-02,9.08650e+01
1.60815e-02,8.55152e+01
1.65137e-02,8.04773e+01
1.69575e-02,7.57331e+01
1.74132e-02,7.12655e+01
1.78812e-02,6.70586e+01
1.83618e-02,6.30972e+01
1.88552e-02,5.93670e+01
1.93620e-02,5.58547e+01
1.98823e-02,5.25476e+01
2.04167e-02,4.94337e+01
2.09654e-02,4.65020e+01
2.15288e-02,4.37417e+01
2.21074e-02,4.11430e+01
2.27016e-02,3.86964e+01
2.33117e-02,3.63931e+01
2.39382e-02,3.42248e+01
2.45815e-02,3.21836e+01
2.52422e-02,3.02622e+01
2.59206e-02,2.84535e+01
2.66172e-02,2.67511e+01
2.73325e-02,2.51487e+01
2.80671e-02,2.36406e+01
2.88214e-02,2.22211e+01
2.95960e-02,2.08853e+01
3.03914e-02,1.96281e+01
3.12082e-02,1.84451e+01
3.20469e-02,1.73319e+01
3.29082e-02,1.62844e+01
3.37926e-02,1.52988e+01
3.47008e-02,1.43715e+01
3.56334e-02,1.34990e+01
3.65911e-02,1.26783e+01
3.75745e-02,1.19062e+01
3.85843e-02,1.11800e+01
3.96212e-02,1.04969e+01
4.06861e-02,9.85437e+00
4.17795e-02,9.25013e+00
4.29024e-02,8.68190e+00
4.40554e-02,8.14757e+00
4.52394e-02,7.64515e+00
4.64552e-02,7.17278e+00
4.77037e-02,6.72869e+00
4.89858e-02,6.31123e+00
5.03023e-02,5.91882e+00
5.16542e-02,5.55000e+00
5.30424e-02,5.20338e+00
5.44679e-02,4.87766e+00
5.59318e-02,4.57160e+00
5.74350e-02,4.28405e+00
5.89785e-02,4.01392e+00
6.05636e-02,3.76017e+00
6.21913e-02,3.52184e+00
6.38627e-02,3.29802e+00
6.55790e-02,3.08786e+00
6.73415e-02,2.89053e+00
6.91513e-02,2.70529e+00
7.10098e-02,2.53141e+00
7.29182e-02,2.36822e+00
7.48779e-02,2.21508e+00
7.68902e-02,2.07140e+00
7.89567e-02,1.93661e+00
8.10787e-02,1.81019e+00
8.32577e-02,1.69162e+00
8.54953e-02,1.58044e+00
8.77930e-02,1.47621e+00
9.01525e-02,1.37852e+00
9.25753e-02,1.28696e+00
9.50633e-02,1.20117e+00
9.76182e-02,1.12080e+00
1.00242e-01,1.04553e+00
1.02936e-01,9.75037e-01
1.05702e-01,9.09042e-01
1.08543e-01,8.47269e-01
1.11460e-01,7.89461e-01
1.14456e-01,7.35376e-01
1.17532e-01,6.84786e-01
1.20690e-01,6.37476e-01
1.23934e-01,5.93246e-01
1.27265e-01,5.51906e-01
1.30685e-01,5.13277e-01
1.34197e-01,4.77191e-01
1.37804e-01,4.43490e-01
1.41507e-01,4.12026e-01
1.45310e-01,3.82659e-01
1.49216e-01,3.55257e-01
1.53226e-01,3.29698e-01
1.57344e-01,3.05863e-01
1.61573e-01,2.83646e-01
1.65915e-01,2.62942e-01
1.70374e-01,2.43655e-01
1.74953e-01,2.25694e-01
1.79655e-01,2.08975e-01
1.84483e-01,1.93417e-01
1.89441e-01,1.78944e-01
1.94532e-01,1.65487e-01
1.99760e-01,1.52978e-01
2.05129e-01,1.41355e-01
2.10642e-01,1.30560e-01
2.16303e-01,1.20539e-01
2.22116e-01,1.11238e-01
2.28086e-01,1.02611e-01
2.34215e-01,9.46117e-02
2.40510e-01,8.71975e-02
2.46974e-01,8.03286e-02
2.53611e-01,7.39679e-02
2.60427e-01,6.80802e-02
2.67426e-01,6.26329e-02
2.74614e-01,5.75953e-02
2.81994e-01,5.29387e-02
2.89573e-01,4.86363e-02
2.97355e-01,4.46630e-02
3.05346e-01,4.09952e-02
3.13553e-01,3.76111e-02
3.21980e-01,3.44902e-02
3.30633e-01,3.16133e-02
3.39519e-01,2.89627e-02
3.48643e-01,2.65217e-02
3.58013e-01,2.42748e-02
3.67635e-01,2.22075e-02
3.77515e-01,2.03063e-02
3.87661e-01,1.85587e-02
3.98080e-01,1.69531e-02
4.08778e-01,1.54786e-02
4.19764e-01,1.41251e-02
4.31046e-01,1.28832e-02
4.42630e-01,1.17443e-02
4.54526e-01,1.07003e-02
4.66741e-01,9.74378e-03
4.79285e-01,8.86769e-03
4.92166e-01,8.06567e-03
5.05393e-01,7.33176e-03
5.18976e-01,6.66047e-03
5.32924e-01,6.04671e-03
5.47246e-01,5.48579e-03
5.61954e-01,4.97336e-03
5.77056e-01,4.50542e-03
5.92565e-01,4.07827e-03
6.08490e-01,3.68852e-03
6.24844e-01,3.33301e-03
6.41636e-01,3.00887e-03
6.58881e-01,2.71343e-03
6.76588e-01,2.44425e-03
6.94772e-01,2.19908e-03
7.13444e-01,1.97585e-03
7.32618e-01,1.77267e-03
7.52307e-01,1.58780e-03
7.72526e-01,1.41964e-03
7.93288e-01,1.26673e-03
8.14608e-01,1.12772e-03
8.36501e-01,1.00139e-03
8.58982e-01,8.86625e-04
8.82067e-01,7.82383e-04
9.05773e-01,6.87728e-04
9.30116e-01,6.01802e-04
9.55113e-01,5.23819e-04
9.80782e-01,4.53063e-04
1.00714e+00,3.88879e-04
1.03421e+00,3.30671e-04
1.06200e+00,2.77893e-04
1.09054e+00,2.30050e-04
1.11985e+00,1.86690e-04
1.14995e+00,1.47400e-04
1.18086e+00,1.11806e-04
1.21259e+00,7.95655e-05
1.24518e+00,5.03685e-05
1.27864e+00,2.39323e-05
1.31301e+00,0.00000e+00
