m1=42405.614, m2=44.138, gsp=2.312, rhosp=246.542
fGW[Hz],dPh[rad]
2.14391e-03,1.08406e+04
2.18612e-03,1.03667e+04
2.22915e-03,9.91274e+03
2.27303e-03,9.47796e+03
2.31778e-03,9.06153e+03
2.36340e-03,8.66269e+03
2.40993e-03,8.28073e+03
2.45737e-03,7.91494e+03
2.50574e-03,7.56467e+03
2.55507e-03,7.22926e+03
2.60536e-03,6.90811e+03
2.65665e-03,6.60063e+03
2.70895e-03,6.30625e+03
2.76227e-03,6.02443e+03
2.81665e-03,5.75464e+03
2.87210e-03,5.49641e+03
2.92863e-03,5.24923e+03
2.98628e-03,5.01266e+03
3.04507e-03,4.78625e+03
3.10501e-03,4.56959e+03
3.16614e-03,4.36226e+03
3.22846e-03,4.16389e+03
3.29201e-03,3.97409e+03
3.35682e-03,3.79251e+03
3.42290e-03,3.61880e+03
3.49028e-03,3.45265e+03
3.55898e-03,3.29373e+03
3.62904e-03,3.14174e+03
3.70048e-03,2.99639e+03
3.77333e-03,2.85741e+03
3.84761e-03,2.72452e+03
3.92335e-03,2.59747e+03
4.00058e-03,2.47602e+03
4.07933e-03,2.35992e+03
4.15963e-03,2.24896e+03
4.24152e-03,2.14292e+03
4.32501e-03,2.04159e+03
4.41015e-03,1.94477e+03
4.49696e-03,1.85227e+03
4.58549e-03,1.76390e+03
4.67575e-03,1.67950e+03
4.76780e-03,1.59889e+03
4.86165e-03,1.52192e+03
4.95735e-03,1.44842e+03
5.05494e-03,1.37824e+03
5.15445e-03,1.31126e+03
5.25591e-03,1.24732e+03
5.35938e-03,1.18631e+03
5.46488e-03,1.12808e+03
5.57246e-03,1.07253e+03
5.68215e-03,1.01954e+03
5.79401e-03,9.68996e+02
5.90806e-03,9.20792e+02
6.02436e-03,8.74828e+02
6.14295e-03,8.31006e+02
6.26388e-03,7.89232e+02
6.38718e-03,7.49418e+02
6.51292e-03,7.11477e+02
6.64112e-03,6.75328e+02
6.77186e-03,6.40890e+02
6.90516e-03,6.08090e+02
7.04109e-03,5.76854e+02
7.17970e-03,5.47112e+02
7.32103e-03,5.18800e+02
7.46515e-03,4.91852e+02
7.61210e-03,4.66207e+02
7.76194e-03,4.41808e+02
7.91474e-03,4.18598e+02
8.07054e-03,3.96523e+02
8.22941e-03,3.75533e+02
8.39141e-03,3.55577e+02
8.55660e-03,3.36609e+02
8.72503e-03,3.18583e+02
8.89679e-03,3.01456e+02
9.07192e-03,2.85187e+02
9.25051e-03,2.69736e+02
9.43260e-03,2.55065e+02
9.61829e-03,2.41138e+02
9.80762e-03,2.27920e+02
1.00007e-02,2.15378e+02
1.01976e-02,2.03479e+02
1.03983e-02,1.92194e+02
1.06030e-02,1.81493e+02
1.08117e-02,1.71349e+02
1.10245e-02,1.61734e+02
1.12416e-02,1.52623e+02
1.14629e-02,1.43993e+02
1.16885e-02,1.35818e+02
1.19186e-02,1.28078e+02
1.21532e-02,1.20751e+02
1.23924e-02,1.13817e+02
1.26364e-02,1.07255e+02
1.28851e-02,1.01049e+02
1.31388e-02,9.51794e+01
1.33974e-02,8.96299e+01
1.36612e-02,8.43844e+01
1.39301e-02,7.94275e+01
1.42043e-02,7.47445e+01
1.44839e-02,7.03213e+01
1.47690e-02,6.61446e+01
1.50598e-02,6.22017e+01
1.53562e-02,5.84805e+01
1.56585e-02,5.49693e+01
1.59668e-02,5.16573e+01
1.62811e-02,4.85338e+01
1.66016e-02,4.55889e+01
1.69284e-02,4.28131e+01
1.72616e-02,4.01973e+01
1.76014e-02,3.77330e+01
1.79479e-02,3.54120e+01
1.83012e-02,3.32265e+01
1.86615e-02,3.11690e+01
1.90288e-02,2.92326e+01
1.94034e-02,2.74107e+01
1.97854e-02,2.56968e+01
2.01748e-02,2.40849e+01
2.05720e-02,2.25694e+01
2.09769e-02,2.11448e+01
2.13899e-02,1.98060e+01
2.18109e-02,1.85481e+01
2.22403e-02,1.73666e+01
2.26781e-02,1.62570e+01
2.31245e-02,1.52152e+01
2.35797e-02,1.42373e+01
2.40439e-02,1.33195e+01
2.45172e-02,1.24585e+01
2.49998e-02,1.16507e+01
2.54920e-02,1.08932e+01
2.59938e-02,1.01830e+01
2.65055e-02,9.51714e+00
2.70272e-02,8.89311e+00
2.75593e-02,8.30836e+00
2.81018e-02,7.76054e+00
2.86550e-02,7.24742e+00
2.92190e-02,6.76690e+00
2.97942e-02,6.31699e+00
3.03807e-02,5.89583e+00
3.09788e-02,5.50165e+00
3.15886e-02,5.13280e+00
3.22104e-02,4.78771e+00
3.28445e-02,4.46491e+00
3.34910e-02,4.16301e+00
3.41503e-02,3.88070e+00
3.48226e-02,3.61677e+00
3.55081e-02,3.37006e+00
3.62071e-02,3.13948e+00
3.69198e-02,2.92401e+00
3.76466e-02,2.72269e+00
3.83877e-02,2.53463e+00
3.91433e-02,2.35898e+00
3.99139e-02,2.19494e+00
4.06996e-02,2.04176e+00
4.15008e-02,1.89876e+00
4.23177e-02,1.76526e+00
4.31507e-02,1.64067e+00
4.40002e-02,1.52439e+00
4.48663e-02,1.41589e+00
4.57495e-02,1.31466e+00
4.66501e-02,1.22022e+00
4.75684e-02,1.13214e+00
4.85048e-02,1.04999e+00
4.94596e-02,9.73375e-01
5.04333e-02,9.01940e-01
5.14261e-02,8.35340e-01
5.24384e-02,7.73253e-01
5.34706e-02,7.15380e-01
5.45232e-02,6.61440e-01
5.55965e-02,6.11171e-01
5.66909e-02,5.64328e-01
5.78069e-02,5.20681e-01
5.89449e-02,4.80017e-01
6.01052e-02,4.42134e-01
6.12884e-02,4.06846e-01
6.24949e-02,3.73978e-01
6.37251e-02,3.43366e-01
6.49795e-02,3.14858e-01
6.62587e-02,2.88312e-01
6.75630e-02,2.63593e-01
6.88930e-02,2.40579e-01
7.02491e-02,2.19153e-01
7.16320e-02,1.99207e-01
7.30421e-02,1.80640e-01
7.44799e-02,1.63358e-01
7.59461e-02,1.47273e-01
7.74411e-02,1.32304e-01
7.89655e-02,1.18372e-01
8.05200e-02,1.05408e-01
8.21050e-02,9.33455e-02
8.37213e-02,8.21214e-02
8.53694e-02,7.16785e-02
8.70499e-02,6.19629e-02
8.87635e-02,5.29244e-02
9.05108e-02,4.45163e-02
9.22925e-02,3.66950e-02
9.41093e-02,2.94199e-02
9.59619e-02,2.26531e-02
9.78509e-02,1.63594e-02
9.97771e-02,1.05060e-02
1.01741e-01,5.06240e-03
1.03744e-01,0.00000e+00
