m1=18933.875, m2=3.465, gsp=2.185, rhosp=96.286
fGW[Hz],dPh[rad]
6.80988e-03,5.00451e+03
6.93174e-03,4.76575e+03
7.05578e-03,4.53765e+03
7.18203e-03,4.31978e+03
7.31055e-03,4.11169e+03
7.44137e-03,3.91299e+03
7.57452e-03,3.72327e+03
7.71006e-03,3.54215e+03
7.84803e-03,3.36928e+03
7.98846e-03,3.20430e+03
8.13141e-03,3.04687e+03
8.27691e-03,2.89668e+03
8.42502e-03,2.75341e+03
8.57578e-03,2.61677e+03
8.72924e-03,2.48647e+03
8.88544e-03,2.36223e+03
9.04444e-03,2.24380e+03
9.20628e-03,2.13093e+03
9.37102e-03,2.02337e+03
9.53870e-03,1.92088e+03
9.70939e-03,1.82325e+03
9.88313e-03,1.73027e+03
1.00600e-02,1.64172e+03
1.02400e-02,1.55742e+03
1.04232e-02,1.47717e+03
1.06097e-02,1.40079e+03
1.07996e-02,1.32811e+03
1.09929e-02,1.25897e+03
1.11896e-02,1.19319e+03
1.13898e-02,1.13065e+03
1.15936e-02,1.07117e+03
1.18011e-02,1.01463e+03
1.20122e-02,9.60894e+02
1.22272e-02,9.09828e+02
1.24460e-02,8.61312e+02
1.26687e-02,8.15227e+02
1.28954e-02,7.71460e+02
1.31261e-02,7.29904e+02
1.33610e-02,6.90454e+02
1.36001e-02,6.53011e+02
1.38435e-02,6.17481e+02
1.40912e-02,5.83773e+02
1.43433e-02,5.51801e+02
1.46000e-02,5.21480e+02
1.48612e-02,4.92733e+02
1.51272e-02,4.65482e+02
1.53978e-02,4.39656e+02
1.56734e-02,4.15185e+02
1.59538e-02,3.92003e+02
1.62393e-02,3.70046e+02
1.65299e-02,3.49255e+02
1.68257e-02,3.29571e+02
1.71268e-02,3.10940e+02
1.74333e-02,2.93309e+02
1.77452e-02,2.76627e+02
1.80627e-02,2.60848e+02
1.83860e-02,2.45924e+02
1.87150e-02,2.31814e+02
1.90498e-02,2.18474e+02
1.93907e-02,2.05866e+02
1.97377e-02,1.93953e+02
2.00909e-02,1.82697e+02
2.04504e-02,1.72065e+02
2.08164e-02,1.62025e+02
2.11888e-02,1.52545e+02
2.15680e-02,1.43596e+02
2.19539e-02,1.35150e+02
2.23468e-02,1.27181e+02
2.27467e-02,1.19662e+02
2.31537e-02,1.12569e+02
2.35680e-02,1.05881e+02
2.39897e-02,9.95742e+01
2.44190e-02,9.36290e+01
2.48560e-02,8.80255e+01
2.53008e-02,8.27451e+01
2.57535e-02,7.77699e+01
2.62143e-02,7.30833e+01
2.66834e-02,6.86693e+01
2.71609e-02,6.45127e+01
2.76469e-02,6.05993e+01
2.81416e-02,5.69155e+01
2.86452e-02,5.34484e+01
2.91578e-02,5.01858e+01
2.96795e-02,4.71161e+01
3.02106e-02,4.42285e+01
3.07512e-02,4.15126e+01
3.13015e-02,3.89586e+01
3.18616e-02,3.65571e+01
3.24317e-02,3.42995e+01
3.30121e-02,3.21775e+01
3.36028e-02,3.01832e+01
3.42041e-02,2.83093e+01
3.48161e-02,2.65486e+01
3.54391e-02,2.48947e+01
3.60733e-02,2.33412e+01
3.67188e-02,2.18823e+01
3.73758e-02,2.05123e+01
3.80447e-02,1.92261e+01
3.87254e-02,1.80187e+01
3.94184e-02,1.68854e+01
4.01237e-02,1.58218e+01
4.08417e-02,1.48238e+01
4.15726e-02,1.38873e+01
4.23165e-02,1.30088e+01
4.30737e-02,1.21846e+01
4.38444e-02,1.14117e+01
4.46290e-02,1.06868e+01
4.54276e-02,1.00070e+01
4.62405e-02,9.36964e+00
4.70679e-02,8.77211e+00
4.79102e-02,8.21196e+00
4.87675e-02,7.68693e+00
4.96401e-02,7.19485e+00
5.05284e-02,6.73370e+00
5.14326e-02,6.30159e+00
5.23529e-02,5.89672e+00
5.32897e-02,5.51741e+00
5.42433e-02,5.16207e+00
5.52139e-02,4.82923e+00
5.62019e-02,4.51749e+00
5.72076e-02,4.22553e+00
5.82313e-02,3.95211e+00
5.92733e-02,3.69609e+00
6.03339e-02,3.45638e+00
6.14136e-02,3.23195e+00
6.25125e-02,3.02184e+00
6.36311e-02,2.82516e+00
6.47698e-02,2.64106e+00
6.59288e-02,2.46875e+00
6.71085e-02,2.30748e+00
6.83093e-02,2.15656e+00
6.95317e-02,2.01533e+00
7.07759e-02,1.88318e+00
7.20424e-02,1.75953e+00
7.33315e-02,1.64384e+00
7.46437e-02,1.53561e+00
7.59794e-02,1.43436e+00
7.73390e-02,1.33965e+00
7.87229e-02,1.25105e+00
8.01316e-02,1.16819e+00
8.15655e-02,1.09068e+00
8.30250e-02,1.01820e+00
8.45107e-02,9.50410e-01
8.60229e-02,8.87017e-01
8.75622e-02,8.27737e-01
8.91291e-02,7.72307e-01
9.07240e-02,7.20478e-01
9.23474e-02,6.72018e-01
9.39999e-02,6.26711e-01
9.56819e-02,5.84353e-01
9.73941e-02,5.44754e-01
9.91368e-02,5.07735e-01
1.00911e-01,4.73130e-01
1.02717e-01,4.40782e-01
1.04555e-01,4.10546e-01
1.06425e-01,3.82284e-01
1.08330e-01,3.55869e-01
1.10268e-01,3.31180e-01
1.12241e-01,3.08105e-01
1.14250e-01,2.86541e-01
1.16294e-01,2.66388e-01
1.18375e-01,2.47554e-01
1.20494e-01,2.29954e-01
1.22650e-01,2.13508e-01
1.24844e-01,1.98140e-01
1.27078e-01,1.83779e-01
1.29352e-01,1.70361e-01
1.31667e-01,1.57824e-01
1.34023e-01,1.46110e-01
1.36421e-01,1.35165e-01
1.38862e-01,1.24939e-01
1.41347e-01,1.15385e-01
1.43877e-01,1.06459e-01
1.46451e-01,9.81207e-02
1.49072e-01,9.03305e-02
1.51739e-01,8.30529e-02
1.54455e-01,7.62543e-02
1.57218e-01,6.99033e-02
1.60032e-01,6.39705e-02
1.62895e-01,5.84285e-02
1.65810e-01,5.32517e-02
1.68777e-01,4.84160e-02
1.71797e-01,4.38991e-02
1.74871e-01,3.96800e-02
1.78001e-01,3.57391e-02
1.81186e-01,3.20582e-02
1.84428e-01,2.86201e-02
1.87728e-01,2.54089e-02
1.91087e-01,2.24097e-02
1.94507e-01,1.96084e-02
1.97987e-01,1.69922e-02
2.01530e-01,1.45486e-02
2.05136e-01,1.22665e-02
2.08807e-01,1.01352e-02
2.12543e-01,8.14465e-03
2.16347e-01,6.28566e-03
2.20218e-01,4.54955e-03
2.24159e-01,2.92819e-03
2.28170e-01,1.41404e-03
2.32253e-01,0.00000e+00
