m1=112853.245, m2=7.050, gsp=2.335, rhosp=3278.999
fGW[Hz],dPh[rad]
3.33902e-03,6.13578e+04
3.38050e-03,5.87586e+04
3.42250e-03,5.62663e+04
3.46501e-03,5.38769e+04
3.50806e-03,5.15861e+04
3.55164e-03,4.93902e+04
3.59576e-03,4.72852e+04
3.64043e-03,4.52676e+04
3.68566e-03,4.33339e+04
3.73144e-03,4.14806e+04
3.77780e-03,3.97047e+04
3.82473e-03,3.80029e+04
3.87225e-03,3.63723e+04
3.92035e-03,3.48100e+04
3.96905e-03,3.33133e+04
4.01836e-03,3.18794e+04
4.06828e-03,3.05058e+04
4.11882e-03,2.91901e+04
4.16999e-03,2.79299e+04
4.22179e-03,2.67229e+04
4.27424e-03,2.55669e+04
4.32734e-03,2.44599e+04
4.38110e-03,2.33999e+04
4.43553e-03,2.23849e+04
4.49063e-03,2.14130e+04
4.54642e-03,2.04825e+04
4.60290e-03,1.95916e+04
4.66008e-03,1.87387e+04
4.71797e-03,1.79223e+04
4.77658e-03,1.71408e+04
4.83592e-03,1.63928e+04
4.89600e-03,1.56768e+04
4.95682e-03,1.49915e+04
5.01840e-03,1.43357e+04
5.08074e-03,1.37081e+04
5.14386e-03,1.31075e+04
5.20777e-03,1.25327e+04
5.27246e-03,1.19828e+04
5.33796e-03,1.14566e+04
5.40428e-03,1.09532e+04
5.47141e-03,1.04715e+04
5.53938e-03,1.00107e+04
5.60820e-03,9.56985e+03
5.67787e-03,9.14814e+03
5.74841e-03,8.74474e+03
5.81982e-03,8.35888e+03
5.89212e-03,7.98980e+03
5.96532e-03,7.63679e+03
6.03943e-03,7.29916e+03
6.11445e-03,6.97626e+03
6.19041e-03,6.66745e+03
6.26732e-03,6.37213e+03
6.34518e-03,6.08973e+03
6.42400e-03,5.81967e+03
6.50381e-03,5.56144e+03
6.58460e-03,5.31453e+03
6.66641e-03,5.07844e+03
6.74922e-03,4.85272e+03
6.83307e-03,4.63690e+03
6.91796e-03,4.43057e+03
7.00390e-03,4.23331e+03
7.09091e-03,4.04473e+03
7.17900e-03,3.86446e+03
7.26818e-03,3.69212e+03
7.35848e-03,3.52739e+03
7.44989e-03,3.36992e+03
7.54244e-03,3.21941e+03
7.63614e-03,3.07554e+03
7.73100e-03,2.93803e+03
7.82705e-03,2.80660e+03
7.92428e-03,2.68099e+03
8.02273e-03,2.56094e+03
8.12239e-03,2.44621e+03
8.22330e-03,2.33656e+03
8.32546e-03,2.23177e+03
8.42888e-03,2.13163e+03
8.53360e-03,2.03594e+03
8.63961e-03,1.94450e+03
8.74694e-03,1.85712e+03
8.85560e-03,1.77363e+03
8.96562e-03,1.69385e+03
9.07700e-03,1.61762e+03
9.18976e-03,1.54478e+03
9.30392e-03,1.47519e+03
9.41951e-03,1.40869e+03
9.53653e-03,1.34517e+03
9.65500e-03,1.28447e+03
9.77494e-03,1.22649e+03
9.89638e-03,1.17109e+03
1.00193e-02,1.11816e+03
1.01438e-02,1.06760e+03
1.02698e-02,1.01930e+03
1.03974e-02,9.73157e+02
1.05266e-02,9.29078e+02
1.06573e-02,8.86971e+02
1.07897e-02,8.46748e+02
1.09238e-02,8.08326e+02
1.10595e-02,7.71625e+02
1.11969e-02,7.36568e+02
1.13360e-02,7.03082e+02
1.14768e-02,6.71097e+02
1.16194e-02,6.40546e+02
1.17637e-02,6.11366e+02
1.19099e-02,5.83495e+02
1.20578e-02,5.56875e+02
1.22076e-02,5.31450e+02
1.23593e-02,5.07167e+02
1.25128e-02,4.83975e+02
1.26682e-02,4.61825e+02
1.28256e-02,4.40670e+02
1.29850e-02,4.20467e+02
1.31463e-02,4.01172e+02
1.33096e-02,3.82745e+02
1.34749e-02,3.65147e+02
1.36423e-02,3.48342e+02
1.38118e-02,3.32292e+02
1.39834e-02,3.16966e+02
1.41571e-02,3.02329e+02
1.43330e-02,2.88352e+02
1.45110e-02,2.75005e+02
1.46913e-02,2.62259e+02
1.48738e-02,2.50088e+02
1.50586e-02,2.38466e+02
1.52457e-02,2.27367e+02
1.54351e-02,2.16770e+02
1.56268e-02,2.06650e+02
1.58210e-02,1.96987e+02
1.60175e-02,1.87760e+02
1.62165e-02,1.78950e+02
1.64180e-02,1.70537e+02
1.66219e-02,1.62505e+02
1.68284e-02,1.54835e+02
1.70375e-02,1.47511e+02
1.72491e-02,1.40519e+02
1.74634e-02,1.33842e+02
1.76804e-02,1.27468e+02
1.79000e-02,1.21381e+02
1.81224e-02,1.15569e+02
1.83475e-02,1.10021e+02
1.85754e-02,1.04723e+02
1.88062e-02,9.96648e+01
1.90398e-02,9.48354e+01
1.92764e-02,9.02246e+01
1.95158e-02,8.58224e+01
1.97583e-02,8.16194e+01
2.00037e-02,7.76066e+01
2.02522e-02,7.37755e+01
2.05038e-02,7.01178e+01
2.07586e-02,6.66258e+01
2.10164e-02,6.32919e+01
2.12775e-02,6.01090e+01
2.15419e-02,5.70702e+01
2.18095e-02,5.41691e+01
2.20804e-02,5.13995e+01
2.23547e-02,4.87553e+01
2.26324e-02,4.62310e+01
2.29136e-02,4.38211e+01
2.31983e-02,4.15204e+01
2.34865e-02,3.93240e+01
2.37782e-02,3.72271e+01
2.40736e-02,3.52254e+01
2.43727e-02,3.33144e+01
2.46755e-02,3.14900e+01
2.49820e-02,2.97484e+01
2.52924e-02,2.80858e+01
2.56066e-02,2.64986e+01
2.59247e-02,2.49834e+01
2.62468e-02,2.35370e+01
2.65728e-02,2.21562e+01
2.69029e-02,2.08380e+01
2.72371e-02,1.95797e+01
2.75755e-02,1.83784e+01
2.79181e-02,1.72317e+01
2.82649e-02,1.61370e+01
2.86161e-02,1.50921e+01
2.89715e-02,1.40945e+01
2.93315e-02,1.31423e+01
2.96958e-02,1.22333e+01
3.00648e-02,1.13655e+01
3.04383e-02,1.05372e+01
3.08164e-02,9.74646e+00
3.11992e-02,8.99165e+00
3.15868e-02,8.27113e+00
3.19792e-02,7.58333e+00
3.23765e-02,6.92677e+00
3.27787e-02,6.30003e+00
3.31859e-02,5.70177e+00
3.35982e-02,5.13069e+00
3.40156e-02,4.58555e+00
3.44382e-02,4.06519e+00
3.48660e-02,3.56847e+00
3.52991e-02,3.09432e+00
3.57376e-02,2.64172e+00
3.61816e-02,2.20968e+00
3.66311e-02,1.79729e+00
3.70862e-02,1.40363e+00
3.75469e-02,1.02787e+00
3.80133e-02,6.69189e-01
3.84856e-02,3.26813e-01
3.89637e-02,0.00000e+00
