m1=3311.888, m2=9.012, gsp=2.423, rhosp=78.691
fGW[Hz],dPh[rad]
7.35994e-03,6.22031e+04
7.55466e-03,5.89296e+04
7.75453e-03,5.58273e+04
7.95970e-03,5.28874e+04
8.17028e-03,5.01013e+04
8.38644e-03,4.74610e+04
8.60832e-03,4.49589e+04
8.83607e-03,4.25878e+04
9.06985e-03,4.03408e+04
9.30981e-03,3.82115e+04
9.55612e-03,3.61938e+04
9.80894e-03,3.42817e+04
1.00685e-02,3.24698e+04
1.03348e-02,3.07529e+04
1.06083e-02,2.91260e+04
1.08889e-02,2.75844e+04
1.11770e-02,2.61236e+04
1.14727e-02,2.47394e+04
1.17763e-02,2.34278e+04
1.20878e-02,2.21850e+04
1.24076e-02,2.10075e+04
1.27359e-02,1.98918e+04
1.30728e-02,1.88347e+04
1.34187e-02,1.78331e+04
1.37737e-02,1.68841e+04
1.41381e-02,1.59850e+04
1.45122e-02,1.51332e+04
1.48961e-02,1.43262e+04
1.52902e-02,1.35616e+04
1.56948e-02,1.28372e+04
1.61100e-02,1.21510e+04
1.65362e-02,1.15009e+04
1.69737e-02,1.08851e+04
1.74228e-02,1.03017e+04
1.78837e-02,9.74913e+03
1.83569e-02,9.22566e+03
1.88426e-02,8.72981e+03
1.93411e-02,8.26015e+03
1.98528e-02,7.81529e+03
2.03780e-02,7.39394e+03
2.09172e-02,6.99486e+03
2.14706e-02,6.61690e+03
2.20386e-02,6.25894e+03
2.26217e-02,5.91995e+03
2.32202e-02,5.59891e+03
2.38345e-02,5.29490e+03
2.44651e-02,5.00702e+03
2.51124e-02,4.73442e+03
2.57768e-02,4.47630e+03
2.64587e-02,4.23191e+03
2.71587e-02,4.00052e+03
2.78773e-02,3.78146e+03
2.86148e-02,3.57406e+03
2.93719e-02,3.37773e+03
3.01490e-02,3.19188e+03
3.09466e-02,3.01596e+03
3.17654e-02,2.84944e+03
3.26058e-02,2.69184e+03
3.34684e-02,2.54268e+03
3.43539e-02,2.40153e+03
3.52628e-02,2.26795e+03
3.61957e-02,2.14155e+03
3.71534e-02,2.02195e+03
3.81363e-02,1.90880e+03
3.91453e-02,1.80175e+03
4.01810e-02,1.70048e+03
4.12440e-02,1.60469e+03
4.23352e-02,1.51409e+03
4.34553e-02,1.42840e+03
4.46050e-02,1.34736e+03
4.57851e-02,1.27073e+03
4.69964e-02,1.19827e+03
4.82398e-02,1.12977e+03
4.95160e-02,1.06501e+03
5.08261e-02,1.00380e+03
5.21708e-02,9.45945e+02
5.35511e-02,8.91267e+02
5.49679e-02,8.39600e+02
5.64221e-02,7.90782e+02
5.79149e-02,7.44662e+02
5.94471e-02,7.01096e+02
6.10199e-02,6.59948e+02
6.26343e-02,6.21090e+02
6.42914e-02,5.84397e+02
6.59924e-02,5.49755e+02
6.77383e-02,5.17054e+02
6.95305e-02,4.86190e+02
7.13700e-02,4.57063e+02
7.32583e-02,4.29581e+02
7.51964e-02,4.03654e+02
7.71859e-02,3.79200e+02
7.92280e-02,3.56138e+02
8.13241e-02,3.34394e+02
8.34757e-02,3.13895e+02
8.56842e-02,2.94574e+02
8.79511e-02,2.76367e+02
9.02781e-02,2.59214e+02
9.26665e-02,2.43056e+02
9.51182e-02,2.27840e+02
9.76347e-02,2.13513e+02
1.00218e-01,2.00028e+02
1.02869e-01,1.87336e+02
1.05591e-01,1.75396e+02
1.08384e-01,1.64164e+02
1.11252e-01,1.53602e+02
1.14195e-01,1.43673e+02
1.17217e-01,1.34340e+02
1.20318e-01,1.25572e+02
1.23501e-01,1.17335e+02
1.26769e-01,1.09600e+02
1.30122e-01,1.02339e+02
1.33565e-01,9.55245e+01
1.37099e-01,8.91312e+01
1.40726e-01,8.31352e+01
1.44449e-01,7.75135e+01
1.48271e-01,7.22445e+01
1.52194e-01,6.73079e+01
1.56220e-01,6.26844e+01
1.60353e-01,5.83556e+01
1.64596e-01,5.43042e+01
1.68950e-01,5.05139e+01
1.73420e-01,4.69692e+01
1.78008e-01,4.36555e+01
1.82718e-01,4.05590e+01
1.87552e-01,3.76665e+01
1.92514e-01,3.49658e+01
1.97608e-01,3.24451e+01
2.02836e-01,3.00935e+01
2.08202e-01,2.79005e+01
2.13710e-01,2.58563e+01
2.19364e-01,2.39517e+01
2.25168e-01,2.21778e+01
2.31125e-01,2.05265e+01
2.37240e-01,1.89899e+01
2.43517e-01,1.75608e+01
2.49960e-01,1.62322e+01
2.56573e-01,1.49976e+01
2.63361e-01,1.38508e+01
2.70329e-01,1.27862e+01
2.77481e-01,1.17982e+01
2.84822e-01,1.08818e+01
2.92357e-01,1.00323e+01
3.00092e-01,9.24496e+00
3.08032e-01,8.51571e+00
3.16181e-01,7.84055e+00
3.24546e-01,7.21574e+00
3.33133e-01,6.63780e+00
3.41947e-01,6.10345e+00
3.50993e-01,5.60964e+00
3.60280e-01,5.15348e+00
3.69811e-01,4.73230e+00
3.79596e-01,4.34359e+00
3.89638e-01,3.98500e+00
3.99947e-01,3.65434e+00
4.10528e-01,3.34957e+00
4.21390e-01,3.06878e+00
4.32538e-01,2.81018e+00
4.43982e-01,2.57214e+00
4.55728e-01,2.35309e+00
4.67786e-01,2.15162e+00
4.80162e-01,1.96637e+00
4.92865e-01,1.79611e+00
5.05905e-01,1.63969e+00
5.19290e-01,1.49604e+00
5.33028e-01,1.36416e+00
5.47131e-01,1.24313e+00
5.61606e-01,1.13210e+00
5.76464e-01,1.03027e+00
5.91716e-01,9.36927e-01
6.07371e-01,8.51379e-01
6.23440e-01,7.73003e-01
6.39934e-01,7.01222e-01
6.56865e-01,6.35500e-01
6.74243e-01,5.75344e-01
6.92082e-01,5.20299e-01
7.10392e-01,4.69945e-01
7.29187e-01,4.23895e-01
7.48479e-01,3.81793e-01
7.68281e-01,3.43310e-01
7.88608e-01,3.08144e-01
8.09472e-01,2.76018e-01
8.30888e-01,2.46675e-01
8.52870e-01,2.19881e-01
8.75435e-01,1.95420e-01
8.98596e-01,1.73093e-01
9.22370e-01,1.52720e-01
9.46773e-01,1.34132e-01
9.71822e-01,1.17176e-01
9.97533e-01,1.01713e-01
1.02392e+00,8.76138e-02
1.05101e+00,7.47599e-02
1.07882e+00,6.30437e-02
1.10736e+00,5.23662e-02
1.13666e+00,4.26370e-02
1.16673e+00,3.37732e-02
1.19760e+00,2.56990e-02
1.22929e+00,1.83453e-02
1.26181e+00,1.16486e-02
1.29519e+00,5.55116e-03
1.32946e+00,0.00000e+00
