m1=5463.195, m2=24.815, gsp=2.490, rhosp=7745.155
fGW[Hz],dPh[rad]
4.44300e-03,2.01063e+05
4.56067e-03,1.90716e+05
4.68145e-03,1.80899e+05
4.80543e-03,1.71585e+05
4.93269e-03,1.62748e+05
5.06333e-03,1.54364e+05
5.19742e-03,1.46410e+05
5.33507e-03,1.38863e+05
5.47636e-03,1.31703e+05
5.62139e-03,1.24910e+05
5.77026e-03,1.18465e+05
5.92308e-03,1.12351e+05
6.07994e-03,1.06550e+05
6.24095e-03,1.01047e+05
6.40623e-03,9.58257e+04
6.57589e-03,9.08725e+04
6.75004e-03,8.61735e+04
6.92881e-03,8.17155e+04
7.11230e-03,7.74864e+04
7.30066e-03,7.34744e+04
7.49401e-03,6.96683e+04
7.69247e-03,6.60577e+04
7.89619e-03,6.26325e+04
8.10531e-03,5.93833e+04
8.31996e-03,5.63010e+04
8.54030e-03,5.33771e+04
8.76648e-03,5.06035e+04
8.99864e-03,4.79725e+04
9.23696e-03,4.54768e+04
9.48158e-03,4.31095e+04
9.73269e-03,4.08640e+04
9.99044e-03,3.87340e+04
1.02550e-02,3.67137e+04
1.05266e-02,3.47974e+04
1.08054e-02,3.29799e+04
1.10915e-02,3.12559e+04
1.13853e-02,2.96209e+04
1.16868e-02,2.80701e+04
1.19963e-02,2.65994e+04
1.23140e-02,2.52045e+04
1.26401e-02,2.38816e+04
1.29749e-02,2.26270e+04
1.33185e-02,2.14372e+04
1.36712e-02,2.03089e+04
1.40333e-02,1.92389e+04
1.44049e-02,1.82243e+04
1.47864e-02,1.72622e+04
1.51780e-02,1.63499e+04
1.55800e-02,1.54848e+04
1.59926e-02,1.46646e+04
1.64161e-02,1.38869e+04
1.68509e-02,1.31496e+04
1.72971e-02,1.24505e+04
1.77552e-02,1.17877e+04
1.82254e-02,1.11594e+04
1.87081e-02,1.05638e+04
1.92035e-02,9.99917e+03
1.97121e-02,9.46395e+03
2.02341e-02,8.95663e+03
2.07700e-02,8.47577e+03
2.13201e-02,8.02001e+03
2.18847e-02,7.58806e+03
2.24643e-02,7.17869e+03
2.30592e-02,6.79075e+03
2.36699e-02,6.42313e+03
2.42967e-02,6.07479e+03
2.49402e-02,5.74472e+03
2.56007e-02,5.43200e+03
2.62787e-02,5.13572e+03
2.69746e-02,4.85505e+03
2.76890e-02,4.58916e+03
2.84223e-02,4.33731e+03
2.91750e-02,4.09876e+03
2.99477e-02,3.87283e+03
3.07408e-02,3.65887e+03
3.15549e-02,3.45625e+03
3.23906e-02,3.26440e+03
3.32484e-02,3.08275e+03
3.41289e-02,2.91078e+03
3.50327e-02,2.74798e+03
3.59605e-02,2.59389e+03
3.69129e-02,2.44804e+03
3.78904e-02,2.31001e+03
3.88939e-02,2.17939e+03
3.99239e-02,2.05580e+03
4.09813e-02,1.93888e+03
4.20666e-02,1.82827e+03
4.31806e-02,1.72365e+03
4.43242e-02,1.62470e+03
4.54980e-02,1.53113e+03
4.67030e-02,1.44266e+03
4.79398e-02,1.35902e+03
4.92094e-02,1.27996e+03
5.05127e-02,1.20524e+03
5.18504e-02,1.13462e+03
5.32236e-02,1.06790e+03
5.46331e-02,1.00487e+03
5.60800e-02,9.45337e+02
5.75651e-02,8.89112e+02
5.90896e-02,8.36024e+02
6.06545e-02,7.85905e+02
6.22609e-02,7.38598e+02
6.39097e-02,6.93955e+02
6.56023e-02,6.51833e+02
6.73396e-02,6.12098e+02
6.91230e-02,5.74623e+02
7.09536e-02,5.39287e+02
7.28327e-02,5.05975e+02
7.47615e-02,4.74578e+02
7.67415e-02,4.44993e+02
7.87738e-02,4.17123e+02
8.08600e-02,3.90874e+02
8.30014e-02,3.66158e+02
8.51996e-02,3.42893e+02
8.74560e-02,3.20999e+02
8.97721e-02,3.00400e+02
9.21495e-02,2.81026e+02
9.45900e-02,2.62810e+02
9.70950e-02,2.45686e+02
9.96664e-02,2.29595e+02
1.02306e-01,2.14479e+02
1.05015e-01,2.00284e+02
1.07796e-01,1.86958e+02
1.10651e-01,1.74451e+02
1.13582e-01,1.62718e+02
1.16590e-01,1.51715e+02
1.19677e-01,1.41400e+02
1.22847e-01,1.31733e+02
1.26100e-01,1.22677e+02
1.29440e-01,1.14196e+02
1.32868e-01,1.06258e+02
1.36386e-01,9.88303e+01
1.39998e-01,9.18829e+01
1.43706e-01,8.53874e+01
1.47512e-01,7.93170e+01
1.51418e-01,7.36461e+01
1.55428e-01,6.83508e+01
1.59545e-01,6.34082e+01
1.63770e-01,5.87969e+01
1.68107e-01,5.44966e+01
1.72559e-01,5.04880e+01
1.77129e-01,4.67531e+01
1.81820e-01,4.32746e+01
1.86635e-01,4.00365e+01
1.91578e-01,3.70236e+01
1.96651e-01,3.42214e+01
2.01859e-01,3.16164e+01
2.07205e-01,2.91959e+01
2.12693e-01,2.69477e+01
2.18326e-01,2.48607e+01
2.24108e-01,2.29242e+01
2.30043e-01,2.11281e+01
2.36135e-01,1.94630e+01
2.42389e-01,1.79201e+01
2.48808e-01,1.64911e+01
2.55397e-01,1.51681e+01
2.62161e-01,1.39439e+01
2.69104e-01,1.28116e+01
2.76230e-01,1.17648e+01
2.83546e-01,1.07974e+01
2.91055e-01,9.90390e+00
2.98763e-01,9.07890e+00
3.06675e-01,8.31752e+00
3.14797e-01,7.61515e+00
3.23134e-01,6.96750e+00
3.31692e-01,6.37055e+00
3.40476e-01,5.82056e+00
3.49493e-01,5.31404e+00
3.58749e-01,4.84775e+00
3.68249e-01,4.41865e+00
3.78002e-01,4.02393e+00
3.88013e-01,3.66099e+00
3.98288e-01,3.32737e+00
4.08836e-01,3.02084e+00
4.19664e-01,2.73928e+00
4.30778e-01,2.48076e+00
4.42186e-01,2.24347e+00
4.53897e-01,2.02574e+00
4.65917e-01,1.82602e+00
4.78256e-01,1.64289e+00
4.90922e-01,1.47501e+00
5.03923e-01,1.32117e+00
5.17269e-01,1.18024e+00
5.30968e-01,1.05116e+00
5.45029e-01,9.32974e-01
5.59464e-01,8.24794e-01
5.74280e-01,7.25797e-01
5.89489e-01,6.35228e-01
6.05100e-01,5.52390e-01
6.21125e-01,4.76641e-01
6.37575e-01,4.07392e-01
6.54460e-01,3.44100e-01
6.71792e-01,2.86264e-01
6.89583e-01,2.33426e-01
7.07846e-01,1.85165e-01
7.26592e-01,1.41092e-01
7.45834e-01,1.00852e-01
7.65586e-01,6.41189e-02
7.85862e-01,3.05931e-02
8.06674e-01,0.00000e+00
