m1=271597.971, m2=16.422, gsp=2.400, rhosp=83.082
fGW[Hz],dPh[rad]
1.95232e-03,3.77748e+04
1.97319e-03,3.63672e+04
1.99428e-03,3.50111e+04
2.01559e-03,3.37047e+04
2.03713e-03,3.24461e+04
2.05890e-03,3.12337e+04
2.08090e-03,3.00659e+04
2.10314e-03,2.89409e+04
2.12561e-03,2.78574e+04
2.14833e-03,2.68137e+04
2.17129e-03,2.58085e+04
2.19449e-03,2.48404e+04
2.21794e-03,2.39080e+04
2.24165e-03,2.30100e+04
2.26560e-03,2.21453e+04
2.28982e-03,2.13126e+04
2.31429e-03,2.05107e+04
2.33902e-03,1.97385e+04
2.36401e-03,1.89950e+04
2.38928e-03,1.82790e+04
2.41481e-03,1.75897e+04
2.44062e-03,1.69260e+04
2.46670e-03,1.62870e+04
2.49306e-03,1.56717e+04
2.51970e-03,1.50794e+04
2.54663e-03,1.45092e+04
2.57385e-03,1.39603e+04
2.60135e-03,1.34318e+04
2.62915e-03,1.29231e+04
2.65725e-03,1.24334e+04
2.68565e-03,1.19621e+04
2.71435e-03,1.15083e+04
2.74335e-03,1.10716e+04
2.77267e-03,1.06513e+04
2.80230e-03,1.02467e+04
2.83225e-03,9.85725e+03
2.86252e-03,9.48245e+03
2.89311e-03,9.12174e+03
2.92403e-03,8.77459e+03
2.95527e-03,8.44050e+03
2.98686e-03,8.11898e+03
3.01878e-03,7.80957e+03
3.05104e-03,7.51181e+03
3.08364e-03,7.22528e+03
3.11660e-03,6.94955e+03
3.14990e-03,6.68423e+03
3.18356e-03,6.42893e+03
3.21759e-03,6.18326e+03
3.25197e-03,5.94689e+03
3.28673e-03,5.71945e+03
3.32185e-03,5.50061e+03
3.35735e-03,5.29005e+03
3.39323e-03,5.08747e+03
3.42949e-03,4.89256e+03
3.46614e-03,4.70504e+03
3.50318e-03,4.52462e+03
3.54062e-03,4.35105e+03
3.57846e-03,4.18407e+03
3.61670e-03,4.02342e+03
3.65535e-03,3.86888e+03
3.69441e-03,3.72020e+03
3.73389e-03,3.57718e+03
3.77380e-03,3.43960e+03
3.81413e-03,3.30725e+03
3.85489e-03,3.17993e+03
3.89608e-03,3.05746e+03
3.93772e-03,2.93966e+03
3.97980e-03,2.82634e+03
4.02233e-03,2.71734e+03
4.06532e-03,2.61250e+03
4.10876e-03,2.51165e+03
4.15267e-03,2.41465e+03
4.19705e-03,2.32136e+03
4.24190e-03,2.23162e+03
4.28724e-03,2.14531e+03
4.33305e-03,2.06230e+03
4.37936e-03,1.98246e+03
4.42616e-03,1.90567e+03
4.47346e-03,1.83181e+03
4.52127e-03,1.76078e+03
4.56958e-03,1.69247e+03
4.61842e-03,1.62677e+03
4.66777e-03,1.56359e+03
4.71766e-03,1.50283e+03
4.76807e-03,1.44439e+03
4.81903e-03,1.38819e+03
4.87053e-03,1.33415e+03
4.92258e-03,1.28217e+03
4.97518e-03,1.23219e+03
5.02835e-03,1.18413e+03
5.08209e-03,1.13791e+03
5.13640e-03,1.09346e+03
5.19129e-03,1.05072e+03
5.24677e-03,1.00962e+03
5.30284e-03,9.70093e+02
5.35951e-03,9.32087e+02
5.41679e-03,8.95542e+02
5.47467e-03,8.60400e+02
5.53318e-03,8.26609e+02
5.59231e-03,7.94116e+02
5.65207e-03,7.62873e+02
5.71248e-03,7.32831e+02
5.77352e-03,7.03945e+02
5.83522e-03,6.76169e+02
5.89758e-03,6.49463e+02
5.96061e-03,6.23784e+02
6.02431e-03,5.99093e+02
6.08869e-03,5.75353e+02
6.15376e-03,5.52527e+02
6.21952e-03,5.30580e+02
6.28599e-03,5.09478e+02
6.35316e-03,4.89190e+02
6.42106e-03,4.69683e+02
6.48968e-03,4.50927e+02
6.55903e-03,4.32895e+02
6.62913e-03,4.15558e+02
6.69997e-03,3.98889e+02
6.77157e-03,3.82863e+02
6.84394e-03,3.67455e+02
6.91708e-03,3.52641e+02
6.99100e-03,3.38399e+02
7.06571e-03,3.24706e+02
7.14122e-03,3.11542e+02
7.21753e-03,2.98886e+02
7.29466e-03,2.86718e+02
7.37262e-03,2.75021e+02
7.45141e-03,2.63774e+02
7.53104e-03,2.52963e+02
7.61152e-03,2.42568e+02
7.69286e-03,2.32575e+02
7.77508e-03,2.22969e+02
7.85817e-03,2.13733e+02
7.94214e-03,2.04854e+02
8.02702e-03,1.96319e+02
8.11280e-03,1.88113e+02
8.19950e-03,1.80224e+02
8.28713e-03,1.72641e+02
8.37569e-03,1.65350e+02
8.46520e-03,1.58342e+02
8.55566e-03,1.51605e+02
8.64710e-03,1.45128e+02
8.73950e-03,1.38901e+02
8.83290e-03,1.32916e+02
8.92730e-03,1.27162e+02
9.02270e-03,1.21631e+02
9.11912e-03,1.16313e+02
9.21658e-03,1.11202e+02
9.31507e-03,1.06288e+02
9.41462e-03,1.01565e+02
9.51523e-03,9.70240e+01
9.61692e-03,9.26591e+01
9.71969e-03,8.84632e+01
9.82356e-03,8.44298e+01
9.92854e-03,8.05525e+01
1.00346e-02,7.68254e+01
1.01419e-02,7.32427e+01
1.02503e-02,6.97987e+01
1.03598e-02,6.64881e+01
1.04705e-02,6.33058e+01
1.05824e-02,6.02468e+01
1.06955e-02,5.73062e+01
1.08098e-02,5.44796e+01
1.09253e-02,5.17626e+01
1.10421e-02,4.91508e+01
1.11601e-02,4.66402e+01
1.12794e-02,4.42270e+01
1.13999e-02,4.19073e+01
1.15217e-02,3.96775e+01
1.16448e-02,3.75341e+01
1.17693e-02,3.54738e+01
1.18951e-02,3.34934e+01
1.20222e-02,3.15898e+01
1.21507e-02,2.97600e+01
1.22805e-02,2.80012e+01
1.24118e-02,2.63106e+01
1.25444e-02,2.46855e+01
1.26785e-02,2.31235e+01
1.28139e-02,2.16220e+01
1.29509e-02,2.01788e+01
1.30893e-02,1.87915e+01
1.32292e-02,1.74581e+01
1.33705e-02,1.61764e+01
1.35134e-02,1.49444e+01
1.36578e-02,1.37603e+01
1.38038e-02,1.26220e+01
1.39513e-02,1.15280e+01
1.41004e-02,1.04764e+01
1.42511e-02,9.46557e+00
1.44034e-02,8.49399e+00
1.45573e-02,7.56012e+00
1.47129e-02,6.66250e+00
1.48701e-02,5.79971e+00
1.50290e-02,4.97041e+00
1.51897e-02,4.17330e+00
1.53520e-02,3.40713e+00
1.55160e-02,2.67070e+00
1.56819e-02,1.96286e+00
1.58494e-02,1.28250e+00
1.60188e-02,6.28557e-01
1.61900e-02,0.00000e+00
