m1=18639.254, m2=12.462, gsp=2.271, rhosp=68.100
fGW[Hz],dPh[rad]
4.23052e-03,8.15003e+03
4.31688e-03,7.77493e+03
4.40501e-03,7.41646e+03
4.49493e-03,7.07390e+03
4.58669e-03,6.74655e+03
4.68032e-03,6.43375e+03
4.77586e-03,6.13489e+03
4.87336e-03,5.84934e+03
4.97284e-03,5.57655e+03
5.07435e-03,5.31594e+03
5.17794e-03,5.06700e+03
5.28364e-03,4.82922e+03
5.39150e-03,4.60210e+03
5.50156e-03,4.38520e+03
5.61387e-03,4.17806e+03
5.72847e-03,3.98025e+03
5.84541e-03,3.79138e+03
5.96473e-03,3.61105e+03
6.08650e-03,3.43889e+03
6.21075e-03,3.27454e+03
6.33753e-03,3.11766e+03
6.46690e-03,2.96793e+03
6.59892e-03,2.82502e+03
6.73362e-03,2.68864e+03
6.87108e-03,2.55851e+03
7.01135e-03,2.43435e+03
7.15448e-03,2.31590e+03
7.30052e-03,2.20290e+03
7.44956e-03,2.09511e+03
7.60163e-03,1.99231e+03
7.75681e-03,1.89428e+03
7.91515e-03,1.80080e+03
8.07673e-03,1.71167e+03
8.24161e-03,1.62671e+03
8.40985e-03,1.54571e+03
8.58152e-03,1.46852e+03
8.75671e-03,1.39495e+03
8.93546e-03,1.32485e+03
9.11787e-03,1.25806e+03
9.30400e-03,1.19444e+03
9.49393e-03,1.13384e+03
9.68773e-03,1.07612e+03
9.88550e-03,1.02116e+03
1.00873e-02,9.68830e+02
1.02932e-02,9.19015e+02
1.05033e-02,8.71599e+02
1.07178e-02,8.26475e+02
1.09365e-02,7.83537e+02
1.11598e-02,7.42686e+02
1.13876e-02,7.03828e+02
1.16201e-02,6.66870e+02
1.18573e-02,6.31727e+02
1.20993e-02,5.98314e+02
1.23463e-02,5.66551e+02
1.25984e-02,5.36364e+02
1.28555e-02,5.07678e+02
1.31180e-02,4.80425e+02
1.33858e-02,4.54537e+02
1.36590e-02,4.29950e+02
1.39378e-02,4.06605e+02
1.42224e-02,3.84442e+02
1.45127e-02,3.63406e+02
1.48090e-02,3.43444e+02
1.51113e-02,3.24505e+02
1.54197e-02,3.06540e+02
1.57345e-02,2.89502e+02
1.60557e-02,2.73348e+02
1.63835e-02,2.58035e+02
1.67179e-02,2.43523e+02
1.70592e-02,2.29772e+02
1.74074e-02,2.16746e+02
1.77628e-02,2.04409e+02
1.81254e-02,1.92728e+02
1.84954e-02,1.81670e+02
1.88730e-02,1.71205e+02
1.92582e-02,1.61304e+02
1.96514e-02,1.51938e+02
2.00525e-02,1.43080e+02
2.04619e-02,1.34706e+02
2.08796e-02,1.26790e+02
2.13058e-02,1.19310e+02
2.17407e-02,1.12243e+02
2.21845e-02,1.05568e+02
2.26374e-02,9.92661e+01
2.30995e-02,9.33168e+01
2.35711e-02,8.77022e+01
2.40522e-02,8.24049e+01
2.45432e-02,7.74083e+01
2.50443e-02,7.26966e+01
2.55555e-02,6.82547e+01
2.60772e-02,6.40684e+01
2.66095e-02,6.01241e+01
2.71527e-02,5.64086e+01
2.77070e-02,5.29098e+01
2.82726e-02,4.96159e+01
2.88498e-02,4.65158e+01
2.94387e-02,4.35988e+01
3.00397e-02,4.08548e+01
3.06529e-02,3.82744e+01
3.12786e-02,3.58485e+01
3.19171e-02,3.35683e+01
3.25687e-02,3.14258e+01
3.32335e-02,2.94132e+01
3.39119e-02,2.75231e+01
3.46042e-02,2.57485e+01
3.53106e-02,2.40829e+01
3.60314e-02,2.25199e+01
3.67670e-02,2.10536e+01
3.75175e-02,1.96784e+01
3.82834e-02,1.83890e+01
3.90649e-02,1.71803e+01
3.98624e-02,1.60476e+01
4.06761e-02,1.49864e+01
4.15065e-02,1.39924e+01
4.23538e-02,1.30616e+01
4.32184e-02,1.21902e+01
4.41006e-02,1.13745e+01
4.50009e-02,1.06113e+01
4.59195e-02,9.89734e+00
4.68569e-02,9.22955e+00
4.78134e-02,8.60512e+00
4.87895e-02,8.02137e+00
4.97854e-02,7.47578e+00
5.08017e-02,6.96596e+00
5.18388e-02,6.48968e+00
5.28970e-02,6.04483e+00
5.39768e-02,5.62942e+00
5.50787e-02,5.24159e+00
5.62031e-02,4.87958e+00
5.73504e-02,4.54175e+00
5.85211e-02,4.22653e+00
5.97158e-02,3.93249e+00
6.09348e-02,3.65824e+00
6.21787e-02,3.40250e+00
6.34480e-02,3.16408e+00
6.47432e-02,2.94183e+00
6.60649e-02,2.73471e+00
6.74135e-02,2.54171e+00
6.87896e-02,2.36190e+00
7.01939e-02,2.19441e+00
7.16268e-02,2.03842e+00
7.30890e-02,1.89316e+00
7.45810e-02,1.75793e+00
7.61035e-02,1.63204e+00
7.76570e-02,1.51487e+00
7.92423e-02,1.40584e+00
8.08599e-02,1.30438e+00
8.25106e-02,1.20999e+00
8.41950e-02,1.12220e+00
8.59137e-02,1.04054e+00
8.76675e-02,9.64598e-01
8.94571e-02,8.93988e-01
9.12833e-02,8.28341e-01
9.31467e-02,7.67316e-01
9.50482e-02,7.10594e-01
9.69885e-02,6.57879e-01
9.89684e-02,6.08892e-01
1.00989e-01,5.63375e-01
1.03050e-01,5.21088e-01
1.05154e-01,4.81804e-01
1.07300e-01,4.45315e-01
1.09491e-01,4.11424e-01
1.11726e-01,3.79951e-01
1.14007e-01,3.50726e-01
1.16334e-01,3.23589e-01
1.18709e-01,2.98395e-01
1.21132e-01,2.75007e-01
1.23605e-01,2.53296e-01
1.26128e-01,2.33145e-01
1.28703e-01,2.14442e-01
1.31330e-01,1.97085e-01
1.34011e-01,1.80979e-01
1.36747e-01,1.66034e-01
1.39538e-01,1.52167e-01
1.42387e-01,1.39303e-01
1.45293e-01,1.27368e-01
1.48259e-01,1.16297e-01
1.51286e-01,1.06028e-01
1.54374e-01,9.65026e-02
1.57526e-01,8.76685e-02
1.60741e-01,7.94756e-02
1.64023e-01,7.18779e-02
1.67371e-01,6.48326e-02
1.70788e-01,5.82997e-02
1.74274e-01,5.22423e-02
1.77832e-01,4.66262e-02
1.81462e-01,4.14194e-02
1.85166e-01,3.65923e-02
1.88946e-01,3.21175e-02
1.92803e-01,2.79693e-02
1.96739e-01,2.41242e-02
2.00755e-01,2.05602e-02
2.04853e-01,1.72568e-02
2.09035e-01,1.41951e-02
2.13302e-01,1.13575e-02
2.17657e-01,8.72769e-03
2.22100e-01,6.29059e-03
2.26634e-01,4.03214e-03
2.31260e-01,1.93930e-03
2.35981e-01,0.00000e+00
