m1=4868.865, m2=22.242, gsp=2.078, rhosp=193.518
fGW[Hz],dPh[rad]
4.76439e-03,6.68851e+01
4.89168e-03,6.29613e+01
5.02238e-03,5.92671e+01
5.15656e-03,5.57889e+01
5.29433e-03,5.25143e+01
5.43578e-03,4.94313e+01
5.58101e-03,4.65286e+01
5.73012e-03,4.37958e+01
5.88321e-03,4.12230e+01
6.04039e-03,3.88007e+01
6.20177e-03,3.65203e+01
6.36747e-03,3.43733e+01
6.53759e-03,3.23521e+01
6.71225e-03,3.04492e+01
6.89159e-03,2.86577e+01
7.07571e-03,2.69712e+01
7.26475e-03,2.53834e+01
7.45885e-03,2.38887e+01
7.65813e-03,2.24816e+01
7.86273e-03,2.11569e+01
8.07280e-03,1.99098e+01
8.28848e-03,1.87359e+01
8.50993e-03,1.76308e+01
8.73729e-03,1.65905e+01
8.97072e-03,1.56111e+01
9.21040e-03,1.46893e+01
9.45647e-03,1.38215e+01
9.70912e-03,1.30046e+01
9.96852e-03,1.22357e+01
1.02349e-02,1.15120e+01
1.05083e-02,1.08307e+01
1.07891e-02,1.01894e+01
1.10773e-02,9.58580e+00
1.13733e-02,9.01766e+00
1.16771e-02,8.48291e+00
1.19891e-02,7.97960e+00
1.23094e-02,7.50588e+00
1.26383e-02,7.06003e+00
1.29759e-02,6.64040e+00
1.33226e-02,6.24547e+00
1.36786e-02,5.87379e+00
1.40440e-02,5.52400e+00
1.44192e-02,5.19481e+00
1.48045e-02,4.88503e+00
1.52000e-02,4.59350e+00
1.56061e-02,4.31916e+00
1.60231e-02,4.06101e+00
1.64512e-02,3.81809e+00
1.68907e-02,3.58952e+00
1.73420e-02,3.37444e+00
1.78053e-02,3.17208e+00
1.82810e-02,2.98167e+00
1.87694e-02,2.80253e+00
1.92709e-02,2.63399e+00
1.97857e-02,2.47543e+00
2.03144e-02,2.32627e+00
2.08571e-02,2.18594e+00
2.14143e-02,2.05393e+00
2.19865e-02,1.92976e+00
2.25739e-02,1.81296e+00
2.31770e-02,1.70310e+00
2.37962e-02,1.59977e+00
2.44320e-02,1.50259e+00
2.50848e-02,1.41119e+00
2.57549e-02,1.32524e+00
2.64430e-02,1.24441e+00
2.71495e-02,1.16841e+00
2.78749e-02,1.09694e+00
2.86196e-02,1.02975e+00
2.93843e-02,9.66572e-01
3.01693e-02,9.07180e-01
3.09754e-02,8.51346e-01
3.18029e-02,7.98862e-01
3.26526e-02,7.49529e-01
3.35250e-02,7.03161e-01
3.44207e-02,6.59583e-01
3.53403e-02,6.18630e-01
3.62845e-02,5.80147e-01
3.72539e-02,5.43988e-01
3.82493e-02,5.10014e-01
3.92712e-02,4.78096e-01
4.03204e-02,4.48113e-01
4.13976e-02,4.19950e-01
4.25037e-02,3.93498e-01
4.36392e-02,3.68656e-01
4.48052e-02,3.45328e-01
4.60022e-02,3.23424e-01
4.72313e-02,3.02859e-01
4.84932e-02,2.83553e-01
4.97888e-02,2.65432e-01
5.11190e-02,2.48425e-01
5.24847e-02,2.32465e-01
5.38870e-02,2.17489e-01
5.53267e-02,2.03438e-01
5.68049e-02,1.90257e-01
5.83225e-02,1.77895e-01
5.98807e-02,1.66301e-01
6.14806e-02,1.55429e-01
6.31232e-02,1.45236e-01
6.48096e-02,1.35682e-01
6.65412e-02,1.26727e-01
6.83190e-02,1.18335e-01
7.01443e-02,1.10472e-01
7.20183e-02,1.03106e-01
7.39424e-02,9.62078e-02
7.59180e-02,8.97476e-02
7.79463e-02,8.36992e-02
8.00288e-02,7.80375e-02
8.21669e-02,7.27389e-02
8.43622e-02,6.77810e-02
8.66161e-02,6.31429e-02
8.89303e-02,5.88051e-02
9.13062e-02,5.47490e-02
9.37457e-02,5.09572e-02
9.62503e-02,4.74133e-02
9.88218e-02,4.41019e-02
1.01462e-01,4.10087e-02
1.04173e-01,3.81199e-02
1.06956e-01,3.54228e-02
1.09814e-01,3.29054e-02
1.12748e-01,3.05563e-02
1.15760e-01,2.83650e-02
1.18853e-01,2.63215e-02
1.22028e-01,2.44163e-02
1.25288e-01,2.26407e-02
1.28636e-01,2.09864e-02
1.32072e-01,1.94456e-02
1.35601e-01,1.80110e-02
1.39224e-01,1.66758e-02
1.42944e-01,1.54334e-02
1.46763e-01,1.42779e-02
1.50684e-01,1.32036e-02
1.54710e-01,1.22051e-02
1.58843e-01,1.12774e-02
1.63087e-01,1.04159e-02
1.67444e-01,9.61609e-03
1.71918e-01,8.87391e-03
1.76511e-01,8.18548e-03
1.81227e-01,7.54715e-03
1.86068e-01,6.95552e-03
1.91040e-01,6.40742e-03
1.96144e-01,5.89986e-03
2.01384e-01,5.43004e-03
2.06765e-01,4.99534e-03
2.12289e-01,4.59332e-03
2.17961e-01,4.22169e-03
2.23784e-01,3.87829e-03
2.29763e-01,3.56114e-03
2.35901e-01,3.26835e-03
2.42204e-01,2.99819e-03
2.48675e-01,2.74901e-03
2.55319e-01,2.51929e-03
2.62140e-01,2.30761e-03
2.69144e-01,2.11264e-03
2.76335e-01,1.93316e-03
2.83717e-01,1.76799e-03
2.91298e-01,1.61608e-03
2.99080e-01,1.47643e-03
3.07071e-01,1.34809e-03
3.15275e-01,1.23022e-03
3.23698e-01,1.12201e-03
3.32346e-01,1.02271e-03
3.41226e-01,9.31621e-04
3.50342e-01,8.48113e-04
3.59703e-01,7.71585e-04
3.69313e-01,7.01484e-04
3.79180e-01,6.37300e-04
3.89310e-01,5.78557e-04
3.99712e-01,5.24818e-04
4.10391e-01,4.75677e-04
4.21355e-01,4.30759e-04
4.32613e-01,3.89719e-04
4.44171e-01,3.52237e-04
4.56038e-01,3.18017e-04
4.68222e-01,2.86789e-04
4.80732e-01,2.58301e-04
4.93575e-01,2.32323e-04
5.06762e-01,2.08643e-04
5.20302e-01,1.87065e-04
5.34203e-01,1.67410e-04
5.48475e-01,1.49512e-04
5.63129e-01,1.33220e-04
5.78174e-01,1.18395e-04
5.93621e-01,1.04909e-04
6.09481e-01,9.26445e-05
6.25765e-01,8.14951e-05
6.42483e-01,7.13623e-05
6.59649e-01,6.21559e-05
6.77273e-01,5.37937e-05
6.95367e-01,4.62005e-05
7.13946e-01,3.93072e-05
7.33020e-01,3.30512e-05
7.52605e-01,2.73749e-05
7.72712e-01,2.22259e-05
7.93357e-01,1.75562e-05
8.14553e-01,1.33224e-05
8.36315e-01,9.48455e-06
8.58659e-01,6.00640e-06
8.81600e-01,2.85492e-06
9.05154e-01,0.00000e+00
