m1=359456.895, m2=4.701, gsp=2.381, rhosp=495.903
fGW[Hz],dPh[rad]
2.90959e-03,2.04299e+04
2.93066e-03,1.98852e+04
2.95189e-03,1.93549e+04
2.97327e-03,1.88387e+04
2.99480e-03,1.83362e+04
3.01649e-03,1.78470e+04
3.03834e-03,1.73707e+04
3.06034e-03,1.69070e+04
3.08251e-03,1.64557e+04
3.10484e-03,1.60163e+04
3.12732e-03,1.55885e+04
3.14997e-03,1.51721e+04
3.17279e-03,1.47667e+04
3.19577e-03,1.43720e+04
3.21891e-03,1.39878e+04
3.24222e-03,1.36138e+04
3.26571e-03,1.32497e+04
3.28936e-03,1.28953e+04
3.31318e-03,1.25502e+04
3.33718e-03,1.22143e+04
3.36135e-03,1.18873e+04
3.38569e-03,1.15690e+04
3.41022e-03,1.12592e+04
3.43491e-03,1.09575e+04
3.45979e-03,1.06638e+04
3.48485e-03,1.03780e+04
3.51009e-03,1.00997e+04
3.53551e-03,9.82877e+03
3.56112e-03,9.56505e+03
3.58691e-03,9.30833e+03
3.61289e-03,9.05842e+03
3.63906e-03,8.81514e+03
3.66541e-03,8.57832e+03
3.69196e-03,8.34778e+03
3.71870e-03,8.12336e+03
3.74563e-03,7.90490e+03
3.77276e-03,7.69223e+03
3.80008e-03,7.48521e+03
3.82761e-03,7.28368e+03
3.85533e-03,7.08751e+03
3.88325e-03,6.89654e+03
3.91138e-03,6.71064e+03
3.93970e-03,6.52968e+03
3.96824e-03,6.35353e+03
3.99698e-03,6.18205e+03
4.02593e-03,6.01512e+03
4.05509e-03,5.85263e+03
4.08446e-03,5.69445e+03
4.11404e-03,5.54047e+03
4.14383e-03,5.39059e+03
4.17385e-03,5.24468e+03
4.20408e-03,5.10265e+03
4.23452e-03,4.96440e+03
4.26519e-03,4.82981e+03
4.29608e-03,4.69880e+03
4.32720e-03,4.57128e+03
4.35854e-03,4.44714e+03
4.39011e-03,4.32629e+03
4.42190e-03,4.20866e+03
4.45393e-03,4.09416e+03
4.48619e-03,3.98270e+03
4.51868e-03,3.87420e+03
4.55141e-03,3.76858e+03
4.58437e-03,3.66577e+03
4.61757e-03,3.56569e+03
4.65102e-03,3.46828e+03
4.68470e-03,3.37345e+03
4.71863e-03,3.28114e+03
4.75281e-03,3.19129e+03
4.78723e-03,3.10382e+03
4.82190e-03,3.01868e+03
4.85682e-03,2.93581e+03
4.89200e-03,2.85514e+03
4.92743e-03,2.77661e+03
4.96312e-03,2.70017e+03
4.99907e-03,2.62576e+03
5.03527e-03,2.55333e+03
5.07174e-03,2.48283e+03
5.10847e-03,2.41420e+03
5.14547e-03,2.34740e+03
5.18274e-03,2.28237e+03
5.22028e-03,2.21907e+03
5.25808e-03,2.15746e+03
5.29617e-03,2.09748e+03
5.33452e-03,2.03910e+03
5.37316e-03,1.98228e+03
5.41208e-03,1.92696e+03
5.45127e-03,1.87312e+03
5.49076e-03,1.82070e+03
5.53052e-03,1.76969e+03
5.57058e-03,1.72002e+03
5.61092e-03,1.67169e+03
5.65156e-03,1.62463e+03
5.69249e-03,1.57883e+03
5.73372e-03,1.53425e+03
5.77525e-03,1.49085e+03
5.81708e-03,1.44861e+03
5.85921e-03,1.40749e+03
5.90164e-03,1.36747e+03
5.94439e-03,1.32851e+03
5.98744e-03,1.29058e+03
6.03081e-03,1.25367e+03
6.07448e-03,1.21774e+03
6.11848e-03,1.18276e+03
6.16279e-03,1.14872e+03
6.20743e-03,1.11558e+03
6.25239e-03,1.08333e+03
6.29767e-03,1.05193e+03
6.34328e-03,1.02137e+03
6.38922e-03,9.91617e+02
6.43550e-03,9.62661e+02
6.48211e-03,9.34475e+02
6.52906e-03,9.07039e+02
6.57634e-03,8.80333e+02
6.62397e-03,8.54338e+02
6.67195e-03,8.29036e+02
6.72027e-03,8.04407e+02
6.76894e-03,7.80433e+02
6.81797e-03,7.57098e+02
6.86735e-03,7.34384e+02
6.91708e-03,7.12274e+02
6.96718e-03,6.90753e+02
7.01764e-03,6.69806e+02
7.06847e-03,6.49416e+02
7.11966e-03,6.29568e+02
7.17123e-03,6.10249e+02
7.22317e-03,5.91445e+02
7.27548e-03,5.73141e+02
7.32818e-03,5.55325e+02
7.38125e-03,5.37983e+02
7.43471e-03,5.21103e+02
7.48856e-03,5.04672e+02
7.54279e-03,4.88679e+02
7.59742e-03,4.73111e+02
7.65245e-03,4.57959e+02
7.70787e-03,4.43209e+02
7.76370e-03,4.28853e+02
7.81993e-03,4.14879e+02
7.87656e-03,4.01277e+02
7.93361e-03,3.88037e+02
7.99107e-03,3.75150e+02
8.04895e-03,3.62606e+02
8.10724e-03,3.50396e+02
8.16596e-03,3.38511e+02
8.22510e-03,3.26943e+02
8.28468e-03,3.15683e+02
8.34468e-03,3.04723e+02
8.40512e-03,2.94055e+02
8.46599e-03,2.83671e+02
8.52731e-03,2.73563e+02
8.58907e-03,2.63725e+02
8.65127e-03,2.54149e+02
8.71393e-03,2.44828e+02
8.77704e-03,2.35755e+02
8.84061e-03,2.26924e+02
8.90464e-03,2.18328e+02
8.96913e-03,2.09961e+02
9.03409e-03,2.01817e+02
9.09952e-03,1.93890e+02
9.16543e-03,1.86174e+02
9.23181e-03,1.78664e+02
9.29867e-03,1.71354e+02
9.36602e-03,1.64238e+02
9.43385e-03,1.57312e+02
9.50218e-03,1.50571e+02
9.57100e-03,1.44009e+02
9.64032e-03,1.37622e+02
9.71014e-03,1.31405e+02
9.78047e-03,1.25354e+02
9.85130e-03,1.19464e+02
9.92265e-03,1.13731e+02
9.99452e-03,1.08151e+02
1.00669e-02,1.02719e+02
1.01398e-02,9.74320e+01
1.02133e-02,9.22860e+01
1.02872e-02,8.72770e+01
1.03617e-02,8.24016e+01
1.04368e-02,7.76560e+01
1.05124e-02,7.30369e+01
1.05885e-02,6.85409e+01
1.06652e-02,6.41646e+01
1.07424e-02,5.99050e+01
1.08202e-02,5.57589e+01
1.08986e-02,5.17233e+01
1.09775e-02,4.77952e+01
1.10571e-02,4.39718e+01
1.11371e-02,4.02502e+01
1.12178e-02,3.66279e+01
1.12990e-02,3.31020e+01
1.13809e-02,2.96701e+01
1.14633e-02,2.63297e+01
1.15463e-02,2.30783e+01
1.16300e-02,1.99135e+01
1.17142e-02,1.68331e+01
1.17990e-02,1.38348e+01
1.18845e-02,1.09164e+01
1.19706e-02,8.07573e+00
1.20573e-02,5.31079e+00
1.21446e-02,2.61953e+00
1.22325e-02,0.00000e+00
