m1=70750.771, m2=13.438, gsp=2.338, rhosp=64.037
fGW[Hz],dPh[rad]
2.94620e-03,3.33493e+04
2.99169e-03,3.18844e+04
3.03788e-03,3.04796e+04
3.08479e-03,2.91325e+04
3.13242e-03,2.78410e+04
3.18078e-03,2.66030e+04
3.22989e-03,2.54164e+04
3.27976e-03,2.42793e+04
3.33040e-03,2.31897e+04
3.38183e-03,2.21459e+04
3.43404e-03,2.11460e+04
3.48706e-03,2.01884e+04
3.54090e-03,1.92714e+04
3.59558e-03,1.83935e+04
3.65109e-03,1.75530e+04
3.70746e-03,1.67486e+04
3.76471e-03,1.59787e+04
3.82284e-03,1.52421e+04
3.88186e-03,1.45374e+04
3.94180e-03,1.38633e+04
4.00266e-03,1.32187e+04
4.06446e-03,1.26022e+04
4.12722e-03,1.20128e+04
4.19094e-03,1.14494e+04
4.25565e-03,1.09108e+04
4.32136e-03,1.03962e+04
4.38808e-03,9.90449e+03
4.45583e-03,9.43473e+03
4.52463e-03,8.98603e+03
4.59449e-03,8.55751e+03
4.66543e-03,8.14832e+03
4.73747e-03,7.75766e+03
4.81061e-03,7.38474e+03
4.88489e-03,7.02882e+03
4.96031e-03,6.68916e+03
5.03690e-03,6.36509e+03
5.11467e-03,6.05593e+03
5.19364e-03,5.76104e+03
5.27383e-03,5.47981e+03
5.35526e-03,5.21164e+03
5.43795e-03,4.95597e+03
5.52191e-03,4.71225e+03
5.60717e-03,4.47996e+03
5.69374e-03,4.25860e+03
5.78165e-03,4.04768e+03
5.87092e-03,3.84674e+03
5.96157e-03,3.65534e+03
6.05362e-03,3.47305e+03
6.14709e-03,3.29946e+03
6.24200e-03,3.13419e+03
6.33838e-03,2.97685e+03
6.43624e-03,2.82708e+03
6.53562e-03,2.68455e+03
6.63653e-03,2.54892e+03
6.73900e-03,2.41987e+03
6.84305e-03,2.29711e+03
6.94870e-03,2.18034e+03
7.05599e-03,2.06928e+03
7.16494e-03,1.96368e+03
7.27557e-03,1.86327e+03
7.38790e-03,1.76781e+03
7.50197e-03,1.67707e+03
7.61780e-03,1.59083e+03
7.73542e-03,1.50888e+03
7.85486e-03,1.43100e+03
7.97614e-03,1.35702e+03
8.09929e-03,1.28674e+03
8.22434e-03,1.21998e+03
8.35133e-03,1.15658e+03
8.48027e-03,1.09637e+03
8.61121e-03,1.03921e+03
8.74417e-03,9.84932e+02
8.87918e-03,9.33411e+02
9.01628e-03,8.84509e+02
9.15549e-03,8.38097e+02
9.29685e-03,7.94053e+02
9.44039e-03,7.52261e+02
9.58615e-03,7.12610e+02
9.73417e-03,6.74995e+02
9.88446e-03,6.39314e+02
1.00371e-02,6.05472e+02
1.01921e-02,5.73377e+02
1.03494e-02,5.42941e+02
1.05092e-02,5.14083e+02
1.06715e-02,4.86722e+02
1.08362e-02,4.60783e+02
1.10036e-02,4.36195e+02
1.11735e-02,4.12889e+02
1.13460e-02,3.90802e+02
1.15212e-02,3.69869e+02
1.16990e-02,3.50034e+02
1.18797e-02,3.31240e+02
1.20631e-02,3.13434e+02
1.22494e-02,2.96566e+02
1.24385e-02,2.80587e+02
1.26305e-02,2.65451e+02
1.28256e-02,2.51116e+02
1.30236e-02,2.37539e+02
1.32247e-02,2.24683e+02
1.34289e-02,2.12508e+02
1.36362e-02,2.00981e+02
1.38468e-02,1.90068e+02
1.40605e-02,1.79736e+02
1.42776e-02,1.69955e+02
1.44981e-02,1.60696e+02
1.47219e-02,1.51933e+02
1.49493e-02,1.43639e+02
1.51801e-02,1.35789e+02
1.54145e-02,1.28360e+02
1.56525e-02,1.21331e+02
1.58941e-02,1.14679e+02
1.61395e-02,1.08385e+02
1.63887e-02,1.02431e+02
1.66418e-02,9.67975e+01
1.68987e-02,9.14682e+01
1.71596e-02,8.64269e+01
1.74246e-02,8.16581e+01
1.76936e-02,7.71475e+01
1.79668e-02,7.28813e+01
1.82442e-02,6.88464e+01
1.85259e-02,6.50304e+01
1.88120e-02,6.14218e+01
1.91024e-02,5.80092e+01
1.93974e-02,5.47824e+01
1.96969e-02,5.17312e+01
2.00010e-02,4.88462e+01
2.03098e-02,4.61185e+01
2.06234e-02,4.35397e+01
2.09418e-02,4.11017e+01
2.12652e-02,3.87969e+01
2.15935e-02,3.66180e+01
2.19269e-02,3.45584e+01
2.22655e-02,3.26116e+01
2.26092e-02,3.07714e+01
2.29583e-02,2.90321e+01
2.33128e-02,2.73881e+01
2.36728e-02,2.58344e+01
2.40383e-02,2.43660e+01
2.44094e-02,2.29783e+01
2.47863e-02,2.16669e+01
2.51690e-02,2.04275e+01
2.55576e-02,1.92564e+01
2.59522e-02,1.81498e+01
2.63529e-02,1.71041e+01
2.67598e-02,1.61161e+01
2.71730e-02,1.51825e+01
2.75926e-02,1.43004e+01
2.80186e-02,1.34670e+01
2.84512e-02,1.26796e+01
2.88905e-02,1.19357e+01
2.93366e-02,1.12329e+01
2.97895e-02,1.05690e+01
3.02495e-02,9.94179e+00
3.07165e-02,9.34928e+00
3.11908e-02,8.78955e+00
3.16724e-02,8.26082e+00
3.21614e-02,7.76137e+00
3.26580e-02,7.28960e+00
3.31622e-02,6.84397e+00
3.36743e-02,6.42305e+00
3.41942e-02,6.02548e+00
3.47222e-02,5.64996e+00
3.52583e-02,5.29528e+00
3.58027e-02,4.96030e+00
3.63555e-02,4.64391e+00
3.69168e-02,4.34510e+00
3.74868e-02,4.06290e+00
3.80656e-02,3.79638e+00
3.86533e-02,3.54467e+00
3.92501e-02,3.30696e+00
3.98562e-02,3.08248e+00
4.04716e-02,2.87048e+00
4.10964e-02,2.67029e+00
4.17310e-02,2.48123e+00
4.23753e-02,2.30271e+00
4.30296e-02,2.13412e+00
4.36940e-02,1.97493e+00
4.43686e-02,1.82460e+00
4.50537e-02,1.68266e+00
4.57493e-02,1.54862e+00
4.64557e-02,1.42206e+00
4.71729e-02,1.30255e+00
4.79013e-02,1.18971e+00
4.86409e-02,1.08316e+00
4.93919e-02,9.82562e-01
5.01545e-02,8.87574e-01
5.09289e-02,7.97887e-01
5.17153e-02,7.13207e-01
5.25138e-02,6.33255e-01
5.33246e-02,5.57767e-01
5.41479e-02,4.86495e-01
5.49840e-02,4.19204e-01
5.58329e-02,3.55672e-01
5.66950e-02,2.95690e-01
5.75704e-02,2.39060e-01
5.84593e-02,1.85595e-01
5.93619e-02,1.35119e-01
6.02784e-02,8.74645e-02
6.12091e-02,4.24743e-02
6.21542e-02,0.00000e+00
