m1=5559.107, m2=5.379, gsp=2.391, rhosp=7613.479
fGW[Hz],dPh[rad]
7.84517e-03,2.17291e+05
8.02918e-03,2.06735e+05
8.21751e-03,1.96681e+05
8.41026e-03,1.87107e+05
8.60754e-03,1.77989e+05
8.80943e-03,1.69306e+05
9.01607e-03,1.61037e+05
9.22755e-03,1.53162e+05
9.44399e-03,1.45664e+05
9.66551e-03,1.38525e+05
9.89222e-03,1.31727e+05
1.01243e-02,1.25254e+05
1.03617e-02,1.19091e+05
1.06048e-02,1.13224e+05
1.08535e-02,1.07638e+05
1.11081e-02,1.02320e+05
1.13686e-02,9.72577e+04
1.16353e-02,9.24386e+04
1.19082e-02,8.78514e+04
1.21875e-02,8.34850e+04
1.24734e-02,7.93291e+04
1.27660e-02,7.53736e+04
1.30654e-02,7.16090e+04
1.33719e-02,6.80264e+04
1.36855e-02,6.46171e+04
1.40066e-02,6.13728e+04
1.43351e-02,5.82858e+04
1.46713e-02,5.53486e+04
1.50155e-02,5.25541e+04
1.53677e-02,4.98954e+04
1.57281e-02,4.73662e+04
1.60970e-02,4.49603e+04
1.64746e-02,4.26718e+04
1.68610e-02,4.04952e+04
1.72565e-02,3.84251e+04
1.76613e-02,3.64564e+04
1.80756e-02,3.45843e+04
1.84996e-02,3.28043e+04
1.89335e-02,3.11118e+04
1.93776e-02,2.95028e+04
1.98321e-02,2.79732e+04
2.02973e-02,2.65192e+04
2.07734e-02,2.51373e+04
2.12606e-02,2.38239e+04
2.17593e-02,2.25758e+04
2.22697e-02,2.13899e+04
2.27921e-02,2.02631e+04
2.33267e-02,1.91927e+04
2.38738e-02,1.81759e+04
2.44338e-02,1.72101e+04
2.50069e-02,1.62929e+04
2.55935e-02,1.54219e+04
2.61938e-02,1.45950e+04
2.68082e-02,1.38099e+04
2.74370e-02,1.30646e+04
2.80806e-02,1.23573e+04
2.87392e-02,1.16860e+04
2.94133e-02,1.10491e+04
3.01033e-02,1.04448e+04
3.08094e-02,9.87161e+03
3.15320e-02,9.32794e+03
3.22716e-02,8.81236e+03
3.30286e-02,8.32351e+03
3.38033e-02,7.86008e+03
3.45962e-02,7.42081e+03
3.54077e-02,7.00452e+03
3.62382e-02,6.61007e+03
3.70882e-02,6.23638e+03
3.79582e-02,5.88243e+03
3.88485e-02,5.54724e+03
3.97597e-02,5.22987e+03
4.06923e-02,4.92944e+03
4.16468e-02,4.64509e+03
4.26237e-02,4.37603e+03
4.36235e-02,4.12149e+03
4.46467e-02,3.88073e+03
4.56939e-02,3.65307e+03
4.67657e-02,3.43783e+03
4.78627e-02,3.23439e+03
4.89853e-02,3.04214e+03
5.01343e-02,2.86051e+03
5.13103e-02,2.68897e+03
5.25138e-02,2.52699e+03
5.37456e-02,2.37407e+03
5.50062e-02,2.22976e+03
5.62964e-02,2.09359e+03
5.76169e-02,1.96515e+03
5.89684e-02,1.84403e+03
6.03516e-02,1.72985e+03
6.17672e-02,1.62224e+03
6.32160e-02,1.52085e+03
6.46988e-02,1.42536e+03
6.62163e-02,1.33544e+03
6.77695e-02,1.25079e+03
6.93591e-02,1.17114e+03
7.09860e-02,1.09621e+03
7.26510e-02,1.02574e+03
7.43551e-02,9.59490e+02
7.60992e-02,8.97228e+02
7.78842e-02,8.38734e+02
7.97110e-02,7.83796e+02
8.15807e-02,7.32217e+02
8.34943e-02,6.83808e+02
8.54527e-02,6.38390e+02
8.74571e-02,5.95792e+02
8.95085e-02,5.55853e+02
9.16080e-02,5.18422e+02
9.37568e-02,4.83352e+02
9.59559e-02,4.50506e+02
9.82067e-02,4.19755e+02
1.00510e-01,3.90976e+02
1.02868e-01,3.64051e+02
1.05281e-01,3.38870e+02
1.07750e-01,3.15328e+02
1.10277e-01,2.93328e+02
1.12864e-01,2.72776e+02
1.15511e-01,2.53582e+02
1.18221e-01,2.35665e+02
1.20994e-01,2.18944e+02
1.23832e-01,2.03347e+02
1.26736e-01,1.88801e+02
1.29709e-01,1.75243e+02
1.32752e-01,1.62608e+02
1.35865e-01,1.50839e+02
1.39052e-01,1.39879e+02
1.42314e-01,1.29677e+02
1.45652e-01,1.20183e+02
1.49068e-01,1.11352e+02
1.52565e-01,1.03140e+02
1.56144e-01,9.55063e+01
1.59806e-01,8.84122e+01
1.63554e-01,8.18220e+01
1.67391e-01,7.57018e+01
1.71317e-01,7.00200e+01
1.75336e-01,6.47468e+01
1.79448e-01,5.98543e+01
1.83657e-01,5.53166e+01
1.87965e-01,5.11091e+01
1.92374e-01,4.72091e+01
1.96886e-01,4.35950e+01
2.01505e-01,4.02469e+01
2.06231e-01,3.71461e+01
2.11068e-01,3.42752e+01
2.16019e-01,3.16178e+01
2.21086e-01,2.91587e+01
2.26272e-01,2.68837e+01
2.31579e-01,2.47796e+01
2.37011e-01,2.28341e+01
2.42571e-01,2.10355e+01
2.48260e-01,1.93733e+01
2.54084e-01,1.78375e+01
2.60043e-01,1.64187e+01
2.66143e-01,1.51084e+01
2.72386e-01,1.38986e+01
2.78775e-01,1.27817e+01
2.85314e-01,1.17508e+01
2.92006e-01,1.07996e+01
2.98855e-01,9.92201e+00
3.05865e-01,9.11251e+00
3.13039e-01,8.36598e+00
3.20382e-01,7.67762e+00
3.27897e-01,7.04304e+00
3.35588e-01,6.45812e+00
3.43460e-01,5.91908e+00
3.51516e-01,5.42240e+00
3.59761e-01,4.96482e+00
3.68199e-01,4.54333e+00
3.76836e-01,4.15514e+00
3.85675e-01,3.79768e+00
3.94721e-01,3.46856e+00
4.03980e-01,3.16557e+00
4.13456e-01,2.88668e+00
4.23154e-01,2.63000e+00
4.33079e-01,2.39380e+00
4.43237e-01,2.17647e+00
4.53634e-01,1.97652e+00
4.64274e-01,1.79259e+00
4.75164e-01,1.62341e+00
4.86310e-01,1.46781e+00
4.97717e-01,1.32473e+00
5.09391e-01,1.19316e+00
5.21339e-01,1.07219e+00
5.33568e-01,9.60980e-01
5.46083e-01,8.58751e-01
5.58892e-01,7.64785e-01
5.72002e-01,6.78422e-01
5.85418e-01,5.99054e-01
5.99150e-01,5.26119e-01
6.13204e-01,4.59102e-01
6.27587e-01,3.97526e-01
6.42308e-01,3.40955e-01
6.57374e-01,2.88985e-01
6.72793e-01,2.41245e-01
6.88574e-01,1.97393e-01
7.04725e-01,1.57116e-01
7.21255e-01,1.20124e-01
7.38173e-01,8.61517e-02
7.55487e-01,5.49539e-02
7.73208e-01,2.63056e-02
7.91344e-01,0.00000e+00
