m1=1696.521, m2=65.863, gsp=2.267, rhosp=824.556
fGW[Hz],dPh[rad]
4.14474e-03,3.54939e+02
4.28144e-03,3.30958e+02
4.42264e-03,3.08596e+02
4.56851e-03,2.87746e+02
4.71918e-03,2.68303e+02
4.87482e-03,2.50175e+02
5.03560e-03,2.33270e+02
5.20168e-03,2.17508e+02
5.37324e-03,2.02811e+02
5.55045e-03,1.89107e+02
5.73351e-03,1.76328e+02
5.92261e-03,1.64413e+02
6.11794e-03,1.53302e+02
6.31972e-03,1.42942e+02
6.52815e-03,1.33282e+02
6.74345e-03,1.24275e+02
6.96586e-03,1.15876e+02
7.19560e-03,1.08045e+02
7.43292e-03,1.00743e+02
7.67806e-03,9.39336e+01
7.93129e-03,8.75847e+01
8.19287e-03,8.16647e+01
8.46308e-03,7.61446e+01
8.74220e-03,7.09976e+01
9.03053e-03,6.61982e+01
9.32837e-03,6.17232e+01
9.63603e-03,5.75505e+01
9.95383e-03,5.36597e+01
1.02821e-02,5.00319e+01
1.06212e-02,4.66491e+01
1.09715e-02,4.34949e+01
1.13334e-02,4.05539e+01
1.17072e-02,3.78116e+01
1.20933e-02,3.52546e+01
1.24921e-02,3.28703e+01
1.29041e-02,3.06472e+01
1.33297e-02,2.85743e+01
1.37694e-02,2.66415e+01
1.42235e-02,2.48394e+01
1.46926e-02,2.31590e+01
1.51772e-02,2.15922e+01
1.56777e-02,2.01312e+01
1.61948e-02,1.87690e+01
1.67289e-02,1.74989e+01
1.72806e-02,1.63146e+01
1.78506e-02,1.52104e+01
1.84393e-02,1.41808e+01
1.90475e-02,1.32208e+01
1.96757e-02,1.23257e+01
2.03246e-02,1.14912e+01
2.09949e-02,1.07130e+01
2.16873e-02,9.98745e+00
2.24026e-02,9.31095e+00
2.31415e-02,8.68019e+00
2.39047e-02,8.09208e+00
2.46931e-02,7.54375e+00
2.55075e-02,7.03249e+00
2.63488e-02,6.55580e+00
2.72178e-02,6.11136e+00
2.81155e-02,5.69698e+00
2.90427e-02,5.31062e+00
3.00006e-02,4.95040e+00
3.09900e-02,4.61455e+00
3.20121e-02,4.30143e+00
3.30679e-02,4.00948e+00
3.41585e-02,3.73730e+00
3.52851e-02,3.48353e+00
3.64488e-02,3.24693e+00
3.76510e-02,3.02635e+00
3.88927e-02,2.82070e+00
4.01755e-02,2.62898e+00
4.15005e-02,2.45023e+00
4.28692e-02,2.28359e+00
4.42831e-02,2.12823e+00
4.57436e-02,1.98340e+00
4.72522e-02,1.84837e+00
4.88107e-02,1.72250e+00
5.04205e-02,1.60515e+00
5.20834e-02,1.49575e+00
5.38012e-02,1.39377e+00
5.55756e-02,1.29871e+00
5.74085e-02,1.21009e+00
5.93019e-02,1.12747e+00
6.12578e-02,1.05047e+00
6.32781e-02,9.78682e-01
6.53651e-02,9.11769e-01
6.75209e-02,8.49398e-01
6.97478e-02,7.91260e-01
7.20481e-02,7.37071e-01
7.44244e-02,6.86562e-01
7.68790e-02,6.39484e-01
7.94145e-02,5.95606e-01
8.20337e-02,5.54711e-01
8.47392e-02,5.16596e-01
8.75340e-02,4.81074e-01
9.04210e-02,4.47969e-01
9.34031e-02,4.17117e-01
9.64837e-02,3.88366e-01
9.96658e-02,3.61573e-01
1.02953e-01,3.36607e-01
1.06348e-01,3.13342e-01
1.09856e-01,2.91664e-01
1.13479e-01,2.71465e-01
1.17222e-01,2.52645e-01
1.21088e-01,2.35111e-01
1.25081e-01,2.18775e-01
1.29207e-01,2.03556e-01
1.33468e-01,1.89378e-01
1.37870e-01,1.76171e-01
1.42417e-01,1.63868e-01
1.47114e-01,1.52409e-01
1.51966e-01,1.41736e-01
1.56978e-01,1.31796e-01
1.62155e-01,1.22538e-01
1.67503e-01,1.13917e-01
1.73028e-01,1.05889e-01
1.78734e-01,9.84143e-02
1.84629e-01,9.14546e-02
1.90719e-01,8.49750e-02
1.97009e-01,7.89430e-02
2.03506e-01,7.33281e-02
2.10218e-01,6.81017e-02
2.17151e-01,6.32375e-02
2.24313e-01,5.87108e-02
2.31711e-01,5.44985e-02
2.39353e-01,5.05791e-02
2.47247e-01,4.69327e-02
2.55402e-01,4.35405e-02
2.63825e-01,4.03853e-02
2.72526e-01,3.74508e-02
2.81515e-01,3.47219e-02
2.90799e-01,3.21845e-02
3.00390e-01,2.98254e-02
3.10297e-01,2.76325e-02
3.20531e-01,2.55943e-02
3.31103e-01,2.37002e-02
3.42023e-01,2.19403e-02
3.53303e-01,2.03054e-02
3.64955e-01,1.87867e-02
3.76992e-01,1.73764e-02
3.89425e-01,1.60668e-02
4.02269e-01,1.48511e-02
4.15536e-01,1.37228e-02
4.29241e-01,1.26757e-02
4.43398e-01,1.17043e-02
4.58022e-01,1.08033e-02
4.73128e-01,9.96772e-03
4.88732e-01,9.19308e-03
5.04851e-01,8.47509e-03
5.21501e-01,7.80979e-03
5.38701e-01,7.19348e-03
5.56468e-01,6.62271e-03
5.74821e-01,6.09429e-03
5.93779e-01,5.60521e-03
6.13362e-01,5.15270e-03
6.33592e-01,4.73416e-03
6.54488e-01,4.34718e-03
6.76074e-01,3.98949e-03
6.98371e-01,3.65902e-03
7.21404e-01,3.35380e-03
7.45197e-01,3.07201e-03
7.69774e-01,2.81197e-03
7.95162e-01,2.57210e-03
8.21387e-01,2.35093e-03
8.48478e-01,2.14709e-03
8.76461e-01,1.95932e-03
9.05368e-01,1.78643e-03
9.35228e-01,1.62731e-03
9.66072e-01,1.48096e-03
9.97935e-01,1.34640e-03
1.03085e+00,1.22277e-03
1.06485e+00,1.10923e-03
1.09997e+00,1.00501e-03
1.13624e+00,9.09416e-04
1.17372e+00,8.21776e-04
1.21243e+00,7.41478e-04
1.25242e+00,6.67952e-04
1.29372e+00,6.00669e-04
1.33639e+00,5.39138e-04
1.38047e+00,4.82903e-04
1.42599e+00,4.31542e-04
1.47302e+00,3.84664e-04
1.52161e+00,3.41907e-04
1.57179e+00,3.02934e-04
1.62363e+00,2.67435e-04
1.67718e+00,2.35122e-04
1.73249e+00,2.05731e-04
1.78963e+00,1.79016e-04
1.84866e+00,1.54749e-04
1.90963e+00,1.32724e-04
1.97261e+00,1.12745e-04
2.03767e+00,9.46368e-05
2.10487e+00,7.82351e-05
2.17429e+00,6.33896e-05
2.24600e+00,4.99620e-05
2.32008e+00,3.78255e-05
2.39660e+00,2.68635e-05
2.47564e+00,1.69691e-05
2.55729e+00,8.04452e-06
2.64163e+00,0.00000e+00
