m1=161382.402, m2=20.440, gsp=2.218, rhosp=72.937
fGW[Hz],dPh[rad]
2.04846e-03,2.51279e+03
2.07527e-03,2.40521e+03
2.10243e-03,2.30204e+03
2.12995e-03,2.20309e+03
2.15783e-03,2.10821e+03
2.18608e-03,2.01723e+03
2.21469e-03,1.93002e+03
2.24368e-03,1.84641e+03
2.27305e-03,1.76628e+03
2.30280e-03,1.68948e+03
2.33295e-03,1.61588e+03
2.36348e-03,1.54536e+03
2.39442e-03,1.47779e+03
2.42576e-03,1.41306e+03
2.45751e-03,1.35105e+03
2.48968e-03,1.29167e+03
2.52227e-03,1.23479e+03
2.55528e-03,1.18032e+03
2.58873e-03,1.12817e+03
2.62261e-03,1.07824e+03
2.65694e-03,1.03044e+03
2.69172e-03,9.84682e+02
2.72695e-03,9.40885e+02
2.76265e-03,8.98970e+02
2.79881e-03,8.58858e+02
2.83544e-03,8.20476e+02
2.87256e-03,7.83753e+02
2.91016e-03,7.48620e+02
2.94825e-03,7.15011e+02
2.98684e-03,6.82863e+02
3.02594e-03,6.52115e+02
3.06554e-03,6.22710e+02
3.10567e-03,5.94590e+02
3.14632e-03,5.67702e+02
3.18751e-03,5.41994e+02
3.22923e-03,5.17417e+02
3.27150e-03,4.93922e+02
3.31432e-03,4.71464e+02
3.35770e-03,4.49999e+02
3.40165e-03,4.29485e+02
3.44618e-03,4.09880e+02
3.49128e-03,3.91147e+02
3.53698e-03,3.73248e+02
3.58328e-03,3.56147e+02
3.63018e-03,3.39809e+02
3.67770e-03,3.24203e+02
3.72584e-03,3.09295e+02
3.77461e-03,2.95057e+02
3.82401e-03,2.81458e+02
3.87407e-03,2.68471e+02
3.92478e-03,2.56070e+02
3.97615e-03,2.44229e+02
4.02820e-03,2.32923e+02
4.08092e-03,2.22128e+02
4.13434e-03,2.11824e+02
4.18846e-03,2.01987e+02
4.24328e-03,1.92597e+02
4.29882e-03,1.83635e+02
4.35509e-03,1.75081e+02
4.41210e-03,1.66918e+02
4.46985e-03,1.59128e+02
4.52836e-03,1.51694e+02
4.58763e-03,1.44601e+02
4.64768e-03,1.37833e+02
4.70851e-03,1.31376e+02
4.77014e-03,1.25216e+02
4.83258e-03,1.19339e+02
4.89584e-03,1.13734e+02
4.95992e-03,1.08387e+02
5.02484e-03,1.03287e+02
5.09062e-03,9.84225e+01
5.15725e-03,9.37835e+01
5.22475e-03,8.93595e+01
5.29314e-03,8.51407e+01
5.36243e-03,8.11177e+01
5.43262e-03,7.72818e+01
5.50373e-03,7.36244e+01
5.57577e-03,7.01372e+01
5.64875e-03,6.68127e+01
5.72269e-03,6.36432e+01
5.79760e-03,6.06218e+01
5.87348e-03,5.77416e+01
5.95036e-03,5.49961e+01
6.02825e-03,5.23792e+01
6.10716e-03,4.98850e+01
6.18710e-03,4.75077e+01
6.26808e-03,4.52421e+01
6.35013e-03,4.30828e+01
6.43325e-03,4.10251e+01
6.51745e-03,3.90643e+01
6.60276e-03,3.71957e+01
6.68919e-03,3.54152e+01
6.77675e-03,3.37187e+01
6.86545e-03,3.21023e+01
6.95531e-03,3.05622e+01
7.04635e-03,2.90948e+01
7.13859e-03,2.76969e+01
7.23203e-03,2.63651e+01
7.32669e-03,2.50964e+01
7.42259e-03,2.38878e+01
7.51975e-03,2.27366e+01
7.61818e-03,2.16399e+01
7.71789e-03,2.05953e+01
7.81892e-03,1.96003e+01
7.92126e-03,1.86526e+01
8.02495e-03,1.77500e+01
8.12999e-03,1.68903e+01
8.23640e-03,1.60716e+01
8.34421e-03,1.52919e+01
8.45343e-03,1.45493e+01
8.56408e-03,1.38421e+01
8.67618e-03,1.31687e+01
8.78975e-03,1.25274e+01
8.90480e-03,1.19168e+01
9.02136e-03,1.13353e+01
9.13944e-03,1.07816e+01
9.25907e-03,1.02544e+01
9.38027e-03,9.75247e+00
9.50305e-03,9.27453e+00
9.62744e-03,8.81948e+00
9.75346e-03,8.38622e+00
9.88112e-03,7.97374e+00
1.00105e-02,7.58103e+00
1.01415e-02,7.20716e+00
1.02742e-02,6.85123e+00
1.04087e-02,6.51239e+00
1.05450e-02,6.18982e+00
1.06830e-02,5.88274e+00
1.08228e-02,5.59043e+00
1.09645e-02,5.31217e+00
1.11080e-02,5.04729e+00
1.12534e-02,4.79516e+00
1.14007e-02,4.55516e+00
1.15499e-02,4.32671e+00
1.17011e-02,4.10927e+00
1.18543e-02,3.90230e+00
1.20094e-02,3.70530e+00
1.21666e-02,3.51780e+00
1.23259e-02,3.33934e+00
1.24872e-02,3.16949e+00
1.26507e-02,3.00783e+00
1.28163e-02,2.85398e+00
1.29840e-02,2.70755e+00
1.31540e-02,2.56819e+00
1.33262e-02,2.43556e+00
1.35006e-02,2.30934e+00
1.36773e-02,2.18922e+00
1.38563e-02,2.07490e+00
1.40377e-02,1.96611e+00
1.42214e-02,1.86259e+00
1.44076e-02,1.76406e+00
1.45962e-02,1.67031e+00
1.47872e-02,1.58109e+00
1.49808e-02,1.49619e+00
1.51769e-02,1.41540e+00
1.53755e-02,1.33853e+00
1.55768e-02,1.26537e+00
1.57807e-02,1.19576e+00
1.59872e-02,1.12952e+00
1.61965e-02,1.06649e+00
1.64085e-02,1.00652e+00
1.66233e-02,9.49454e-01
1.68409e-02,8.95155e-01
1.70613e-02,8.43489e-01
1.72846e-02,7.94329e-01
1.75109e-02,7.47554e-01
1.77401e-02,7.03048e-01
1.79723e-02,6.60702e-01
1.82075e-02,6.20412e-01
1.84459e-02,5.82077e-01
1.86873e-02,5.45603e-01
1.89319e-02,5.10900e-01
1.91797e-02,4.77883e-01
1.94308e-02,4.46469e-01
1.96851e-02,4.16582e-01
1.99428e-02,3.88146e-01
2.02038e-02,3.61092e-01
2.04683e-02,3.35353e-01
2.07362e-02,3.10865e-01
2.10076e-02,2.87568e-01
2.12826e-02,2.65403e-01
2.15612e-02,2.44315e-01
2.18434e-02,2.24253e-01
2.21293e-02,2.05167e-01
2.24190e-02,1.87009e-01
2.27124e-02,1.69735e-01
2.30097e-02,1.53301e-01
2.33109e-02,1.37666e-01
2.36160e-02,1.22792e-01
2.39251e-02,1.08642e-01
2.42383e-02,9.51809e-02
2.45556e-02,8.23748e-02
2.48770e-02,7.01921e-02
2.52026e-02,5.86025e-02
2.55325e-02,4.75772e-02
2.58667e-02,3.70887e-02
2.62053e-02,2.71110e-02
2.65483e-02,1.76192e-02
2.68958e-02,8.58968e-03
2.72478e-02,0.00000e+00
