m1=178044.009, m2=41.432, gsp=2.410, rhosp=323.132
fGW[Hz],dPh[rad]
1.53352e-03,7.89536e+04
1.55509e-03,7.57162e+04
1.57696e-03,7.26029e+04
1.59914e-03,6.96095e+04
1.62163e-03,6.67316e+04
1.64444e-03,6.39651e+04
1.66756e-03,6.13062e+04
1.69101e-03,5.87509e+04
1.71480e-03,5.62955e+04
1.73891e-03,5.39364e+04
1.76337e-03,5.16701e+04
1.78817e-03,4.94934e+04
1.81332e-03,4.74029e+04
1.83882e-03,4.53954e+04
1.86468e-03,4.34680e+04
1.89090e-03,4.16176e+04
1.91750e-03,3.98414e+04
1.94447e-03,3.81368e+04
1.97181e-03,3.65009e+04
1.99954e-03,3.49313e+04
2.02766e-03,3.34255e+04
2.05618e-03,3.19810e+04
2.08510e-03,3.05955e+04
2.11442e-03,2.92669e+04
2.14416e-03,2.79928e+04
2.17432e-03,2.67714e+04
2.20490e-03,2.56004e+04
2.23590e-03,2.44781e+04
2.26735e-03,2.34024e+04
2.29924e-03,2.23717e+04
2.33157e-03,2.13841e+04
2.36436e-03,2.04379e+04
2.39762e-03,1.95316e+04
2.43134e-03,1.86636e+04
2.46553e-03,1.78323e+04
2.50020e-03,1.70363e+04
2.53537e-03,1.62742e+04
2.57102e-03,1.55447e+04
2.60718e-03,1.48464e+04
2.64385e-03,1.41781e+04
2.68103e-03,1.35385e+04
2.71874e-03,1.29266e+04
2.75697e-03,1.23411e+04
2.79575e-03,1.17810e+04
2.83507e-03,1.12453e+04
2.87494e-03,1.07330e+04
2.91537e-03,1.02431e+04
2.95637e-03,9.77464e+03
2.99795e-03,9.32677e+03
3.04011e-03,8.89864e+03
3.08287e-03,8.48941e+03
3.12623e-03,8.09830e+03
3.17019e-03,7.72454e+03
3.21478e-03,7.36741e+03
3.25999e-03,7.02619e+03
3.30584e-03,6.70022e+03
3.35233e-03,6.38885e+03
3.39948e-03,6.09145e+03
3.44729e-03,5.80743e+03
3.49577e-03,5.53621e+03
3.54493e-03,5.27724e+03
3.59479e-03,5.03000e+03
3.64534e-03,4.79397e+03
3.69661e-03,4.56867e+03
3.74860e-03,4.35363e+03
3.80132e-03,4.14841e+03
3.85478e-03,3.95257e+03
3.90899e-03,3.76570e+03
3.96397e-03,3.58741e+03
4.01972e-03,3.41732e+03
4.07625e-03,3.25507e+03
4.13358e-03,3.10030e+03
4.19171e-03,2.95270e+03
4.25066e-03,2.81193e+03
4.31044e-03,2.67769e+03
4.37107e-03,2.54970e+03
4.43254e-03,2.42766e+03
4.49488e-03,2.31132e+03
4.55809e-03,2.20041e+03
4.62220e-03,2.09469e+03
4.68720e-03,1.99393e+03
4.75312e-03,1.89790e+03
4.81997e-03,1.80638e+03
4.88776e-03,1.71917e+03
4.95650e-03,1.63607e+03
5.02621e-03,1.55690e+03
5.09689e-03,1.48147e+03
5.16858e-03,1.40961e+03
5.24127e-03,1.34116e+03
5.31498e-03,1.27596e+03
5.38973e-03,1.21386e+03
5.46553e-03,1.15472e+03
5.54239e-03,1.09840e+03
5.62034e-03,1.04476e+03
5.69938e-03,9.93691e+02
5.77954e-03,9.45064e+02
5.86082e-03,8.98766e+02
5.94325e-03,8.54689e+02
6.02683e-03,8.12728e+02
6.11159e-03,7.72785e+02
6.19754e-03,7.34763e+02
6.28471e-03,6.98574e+02
6.37309e-03,6.64130e+02
6.46272e-03,6.31350e+02
6.55361e-03,6.00153e+02
6.64578e-03,5.70466e+02
6.73925e-03,5.42217e+02
6.83403e-03,5.15337e+02
6.93014e-03,4.89761e+02
7.02760e-03,4.65427e+02
7.12644e-03,4.42277e+02
7.22666e-03,4.20252e+02
7.32830e-03,3.99301e+02
7.43136e-03,3.79370e+02
7.53588e-03,3.60412e+02
7.64186e-03,3.42379e+02
7.74933e-03,3.25228e+02
7.85832e-03,3.08915e+02
7.96884e-03,2.93400e+02
8.08091e-03,2.78645e+02
8.19456e-03,2.64614e+02
8.30981e-03,2.51271e+02
8.42667e-03,2.38582e+02
8.54518e-03,2.26517e+02
8.66536e-03,2.15045e+02
8.78723e-03,2.04137e+02
8.91081e-03,1.93767e+02
9.03613e-03,1.83906e+02
9.16322e-03,1.74532e+02
9.29209e-03,1.65620e+02
9.42277e-03,1.57148e+02
9.55529e-03,1.49094e+02
9.68967e-03,1.41438e+02
9.82595e-03,1.34161e+02
9.96414e-03,1.27243e+02
1.01043e-02,1.20668e+02
1.02464e-02,1.14418e+02
1.03905e-02,1.08478e+02
1.05366e-02,1.02832e+02
1.06848e-02,9.74666e+01
1.08351e-02,9.23671e+01
1.09874e-02,8.75207e+01
1.11420e-02,8.29149e+01
1.12987e-02,7.85380e+01
1.14576e-02,7.43787e+01
1.16187e-02,7.04262e+01
1.17821e-02,6.66703e+01
1.19478e-02,6.31013e+01
1.21158e-02,5.97101e+01
1.22862e-02,5.64878e+01
1.24590e-02,5.34261e+01
1.26343e-02,5.05169e+01
1.28119e-02,4.77529e+01
1.29921e-02,4.51268e+01
1.31748e-02,4.26317e+01
1.33601e-02,4.02612e+01
1.35480e-02,3.80091e+01
1.37386e-02,3.58695e+01
1.39318e-02,3.38368e+01
1.41277e-02,3.19058e+01
1.43264e-02,3.00713e+01
1.45279e-02,2.83286e+01
1.47322e-02,2.66730e+01
1.49394e-02,2.51004e+01
1.51495e-02,2.36065e+01
1.53626e-02,2.21874e+01
1.55786e-02,2.08394e+01
1.57977e-02,1.95590e+01
1.60199e-02,1.83427e+01
1.62452e-02,1.71874e+01
1.64737e-02,1.60901e+01
1.67053e-02,1.50478e+01
1.69403e-02,1.40578e+01
1.71785e-02,1.31175e+01
1.74201e-02,1.22244e+01
1.76651e-02,1.13761e+01
1.79136e-02,1.05704e+01
1.81655e-02,9.80525e+00
1.84210e-02,9.07850e+00
1.86800e-02,8.38827e+00
1.89428e-02,7.73274e+00
1.92092e-02,7.11017e+00
1.94793e-02,6.51890e+00
1.97533e-02,5.95737e+00
2.00311e-02,5.42408e+00
2.03128e-02,4.91763e+00
2.05985e-02,4.43666e+00
2.08882e-02,3.97990e+00
2.11819e-02,3.54613e+00
2.14798e-02,3.13421e+00
2.17819e-02,2.74302e+00
2.20883e-02,2.37154e+00
2.23989e-02,2.01877e+00
2.27139e-02,1.68377e+00
2.30334e-02,1.36565e+00
2.33573e-02,1.06356e+00
2.36858e-02,7.76697e-01
2.40189e-02,5.04295e-01
2.43567e-02,2.45626e-01
2.46992e-02,0.00000e+00
