m1=602568.857, m2=3.204, gsp=2.397, rhosp=45.760
fGW[Hz],dPh[rad]
2.95254e-03,7.19162e+03
2.96599e-03,7.06636e+03
2.97951e-03,6.94320e+03
2.99309e-03,6.82212e+03
3.00673e-03,6.70307e+03
3.02043e-03,6.58603e+03
3.03420e-03,6.47095e+03
3.04802e-03,6.35781e+03
3.06191e-03,6.24657e+03
3.07587e-03,6.13720e+03
3.08988e-03,6.02967e+03
3.10397e-03,5.92395e+03
3.11811e-03,5.82001e+03
3.13232e-03,5.71782e+03
3.14660e-03,5.61734e+03
3.16094e-03,5.51855e+03
3.17534e-03,5.42143e+03
3.18981e-03,5.32594e+03
3.20435e-03,5.23205e+03
3.21895e-03,5.13975e+03
3.23362e-03,5.04899e+03
3.24836e-03,4.95977e+03
3.26316e-03,4.87204e+03
3.27803e-03,4.78579e+03
3.29297e-03,4.70099e+03
3.30798e-03,4.61761e+03
3.32305e-03,4.53564e+03
3.33819e-03,4.45505e+03
3.35341e-03,4.37581e+03
3.36869e-03,4.29791e+03
3.38404e-03,4.22131e+03
3.39946e-03,4.14600e+03
3.41496e-03,4.07197e+03
3.43052e-03,3.99917e+03
3.44615e-03,3.92760e+03
3.46186e-03,3.85724e+03
3.47763e-03,3.78805e+03
3.49348e-03,3.72004e+03
3.50940e-03,3.65316e+03
3.52539e-03,3.58741e+03
3.54146e-03,3.52277e+03
3.55760e-03,3.45922e+03
3.57381e-03,3.39673e+03
3.59010e-03,3.33529e+03
3.60646e-03,3.27489e+03
3.62290e-03,3.21551e+03
3.63941e-03,3.15712e+03
3.65599e-03,3.09972e+03
3.67265e-03,3.04328e+03
3.68939e-03,2.98779e+03
3.70620e-03,2.93323e+03
3.72309e-03,2.87959e+03
3.74006e-03,2.82686e+03
3.75710e-03,2.77501e+03
3.77423e-03,2.72403e+03
3.79142e-03,2.67392e+03
3.80870e-03,2.62464e+03
3.82606e-03,2.57619e+03
3.84350e-03,2.52856e+03
3.86101e-03,2.48173e+03
3.87861e-03,2.43569e+03
3.89628e-03,2.39042e+03
3.91404e-03,2.34592e+03
3.93188e-03,2.30216e+03
3.94979e-03,2.25914e+03
3.96779e-03,2.21685e+03
3.98588e-03,2.17526e+03
4.00404e-03,2.13438e+03
4.02229e-03,2.09418e+03
4.04062e-03,2.05466e+03
4.05903e-03,2.01580e+03
4.07753e-03,1.97760e+03
4.09611e-03,1.94004e+03
4.11478e-03,1.90311e+03
4.13353e-03,1.86680e+03
4.15237e-03,1.83111e+03
4.17129e-03,1.79602e+03
4.19030e-03,1.76151e+03
4.20940e-03,1.72759e+03
4.22858e-03,1.69423e+03
4.24785e-03,1.66144e+03
4.26721e-03,1.62920e+03
4.28666e-03,1.59751e+03
4.30619e-03,1.56634e+03
4.32581e-03,1.53570e+03
4.34553e-03,1.50558e+03
4.36533e-03,1.47596e+03
4.38523e-03,1.44684e+03
4.40521e-03,1.41822e+03
4.42529e-03,1.39007e+03
4.44545e-03,1.36240e+03
4.46571e-03,1.33519e+03
4.48606e-03,1.30844e+03
4.50651e-03,1.28214e+03
4.52704e-03,1.25628e+03
4.54767e-03,1.23086e+03
4.56840e-03,1.20587e+03
4.58922e-03,1.18129e+03
4.61013e-03,1.15713e+03
4.63114e-03,1.13338e+03
4.65225e-03,1.11003e+03
4.67345e-03,1.08707e+03
4.69474e-03,1.06449e+03
4.71614e-03,1.04230e+03
4.73763e-03,1.02048e+03
4.75922e-03,9.99025e+02
4.78091e-03,9.77933e+02
4.80270e-03,9.57196e+02
4.82459e-03,9.36807e+02
4.84657e-03,9.16762e+02
4.86866e-03,8.97054e+02
4.89085e-03,8.77678e+02
4.91314e-03,8.58628e+02
4.93553e-03,8.39899e+02
4.95802e-03,8.21485e+02
4.98061e-03,8.03380e+02
5.00331e-03,7.85581e+02
5.02611e-03,7.68081e+02
5.04902e-03,7.50875e+02
5.07203e-03,7.33959e+02
5.09514e-03,7.17328e+02
5.11836e-03,7.00977e+02
5.14168e-03,6.84901e+02
5.16512e-03,6.69095e+02
5.18865e-03,6.53556e+02
5.21230e-03,6.38278e+02
5.23605e-03,6.23257e+02
5.25992e-03,6.08489e+02
5.28389e-03,5.93970e+02
5.30797e-03,5.79695e+02
5.33216e-03,5.65660e+02
5.35645e-03,5.51862e+02
5.38087e-03,5.38295e+02
5.40539e-03,5.24957e+02
5.43002e-03,5.11844e+02
5.45477e-03,4.98951e+02
5.47962e-03,4.86276e+02
5.50460e-03,4.73813e+02
5.52968e-03,4.61561e+02
5.55488e-03,4.49514e+02
5.58020e-03,4.37671e+02
5.60563e-03,4.26027e+02
5.63117e-03,4.14578e+02
5.65683e-03,4.03323e+02
5.68261e-03,3.92257e+02
5.70851e-03,3.81377e+02
5.73453e-03,3.70681e+02
5.76066e-03,3.60164e+02
5.78691e-03,3.49824e+02
5.81328e-03,3.39659e+02
5.83978e-03,3.29664e+02
5.86639e-03,3.19838e+02
5.89312e-03,3.10178e+02
5.91998e-03,3.00679e+02
5.94696e-03,2.91341e+02
5.97406e-03,2.82160e+02
6.00128e-03,2.73134e+02
6.02863e-03,2.64259e+02
6.05611e-03,2.55534e+02
6.08371e-03,2.46956e+02
6.11143e-03,2.38522e+02
6.13928e-03,2.30230e+02
6.16726e-03,2.22077e+02
6.19537e-03,2.14062e+02
6.22360e-03,2.06182e+02
6.25196e-03,1.98434e+02
6.28045e-03,1.90817e+02
6.30907e-03,1.83328e+02
6.33783e-03,1.75966e+02
6.36671e-03,1.68727e+02
6.39572e-03,1.61610e+02
6.42487e-03,1.54613e+02
6.45415e-03,1.47733e+02
6.48356e-03,1.40970e+02
6.51311e-03,1.34320e+02
6.54279e-03,1.27782e+02
6.57261e-03,1.21354e+02
6.60256e-03,1.15035e+02
6.63265e-03,1.08822e+02
6.66287e-03,1.02713e+02
6.69324e-03,9.67073e+01
6.72374e-03,9.08027e+01
6.75438e-03,8.49975e+01
6.78516e-03,7.92900e+01
6.81609e-03,7.36786e+01
6.84715e-03,6.81617e+01
6.87835e-03,6.27376e+01
6.90970e-03,5.74049e+01
6.94119e-03,5.21619e+01
6.97282e-03,4.70072e+01
7.00459e-03,4.19393e+01
7.03652e-03,3.69567e+01
7.06858e-03,3.20580e+01
7.10080e-03,2.72417e+01
7.13316e-03,2.25065e+01
7.16566e-03,1.78511e+01
7.19832e-03,1.32740e+01
7.23112e-03,8.77402e+00
7.26408e-03,4.34977e+00
7.29718e-03,0.00000e+00
