m1=4402.965, m2=3.708, gsp=2.225, rhosp=4092.073
fGW[Hz],dPh[rad]
9.56074e-03,1.34337e+04
9.78673e-03,1.27437e+04
1.00181e-02,1.20885e+04
1.02549e-02,1.14663e+04
1.04973e-02,1.08756e+04
1.07454e-02,1.03148e+04
1.09994e-02,9.78229e+03
1.12594e-02,9.27674e+03
1.15255e-02,8.79678e+03
1.17980e-02,8.34113e+03
1.20769e-02,7.90858e+03
1.23623e-02,7.49797e+03
1.26545e-02,7.10820e+03
1.29537e-02,6.73822e+03
1.32599e-02,6.38705e+03
1.35733e-02,6.05373e+03
1.38941e-02,5.73738e+03
1.42226e-02,5.43715e+03
1.45588e-02,5.15221e+03
1.49029e-02,4.88182e+03
1.52552e-02,4.62523e+03
1.56158e-02,4.38175e+03
1.59849e-02,4.15072e+03
1.63627e-02,3.93153e+03
1.67495e-02,3.72356e+03
1.71454e-02,3.52627e+03
1.75507e-02,3.33910e+03
1.79656e-02,3.16155e+03
1.83902e-02,2.99314e+03
1.88249e-02,2.83341e+03
1.92699e-02,2.68191e+03
1.97254e-02,2.53824e+03
2.01917e-02,2.40199e+03
2.06689e-02,2.27279e+03
2.11575e-02,2.15029e+03
2.16576e-02,2.03415e+03
2.21696e-02,1.92404e+03
2.26936e-02,1.81966e+03
2.32300e-02,1.72072e+03
2.37791e-02,1.62695e+03
2.43412e-02,1.53808e+03
2.49166e-02,1.45386e+03
2.55055e-02,1.37405e+03
2.61084e-02,1.29844e+03
2.67256e-02,1.22681e+03
2.73573e-02,1.15895e+03
2.80040e-02,1.09468e+03
2.86659e-02,1.03380e+03
2.93435e-02,9.76155e+02
3.00371e-02,9.21570e+02
3.07471e-02,8.69889e+02
3.14739e-02,8.20965e+02
3.22179e-02,7.74655e+02
3.29795e-02,7.30826e+02
3.37590e-02,6.89350e+02
3.45570e-02,6.50106e+02
3.53738e-02,6.12978e+02
3.62100e-02,5.77857e+02
3.70659e-02,5.44641e+02
3.79421e-02,5.13229e+02
3.88389e-02,4.83529e+02
3.97570e-02,4.55451e+02
4.06968e-02,4.28912e+02
4.16587e-02,4.03830e+02
4.26435e-02,3.80131e+02
4.36514e-02,3.57741e+02
4.46833e-02,3.36592e+02
4.57395e-02,3.16619e+02
4.68206e-02,2.97761e+02
4.79274e-02,2.79957e+02
4.90603e-02,2.63153e+02
5.02199e-02,2.47296e+02
5.14070e-02,2.32335e+02
5.26222e-02,2.18222e+02
5.38660e-02,2.04914e+02
5.51393e-02,1.92365e+02
5.64427e-02,1.80536e+02
5.77768e-02,1.69389e+02
5.91426e-02,1.58885e+02
6.05405e-02,1.48991e+02
6.19716e-02,1.39674e+02
6.34364e-02,1.30901e+02
6.49359e-02,1.22644e+02
6.64709e-02,1.14874e+02
6.80421e-02,1.07563e+02
6.96504e-02,1.00688e+02
7.12968e-02,9.42240e+01
7.29821e-02,8.81476e+01
7.47072e-02,8.24375e+01
7.64731e-02,7.70733e+01
7.82808e-02,7.20355e+01
8.01312e-02,6.73056e+01
8.20253e-02,6.28662e+01
8.39642e-02,5.87007e+01
8.59489e-02,5.47936e+01
8.79805e-02,5.11298e+01
9.00602e-02,4.76955e+01
9.21890e-02,4.44772e+01
9.43681e-02,4.14624e+01
9.65988e-02,3.86392e+01
9.88821e-02,3.59963e+01
1.01219e-01,3.35231e+01
1.03612e-01,3.12093e+01
1.06061e-01,2.90456e+01
1.08568e-01,2.70229e+01
1.11135e-01,2.51326e+01
1.13762e-01,2.33668e+01
1.16451e-01,2.17178e+01
1.19203e-01,2.01785e+01
1.22021e-01,1.87421e+01
1.24905e-01,1.74021e+01
1.27858e-01,1.61526e+01
1.30880e-01,1.49880e+01
1.33974e-01,1.39027e+01
1.37140e-01,1.28918e+01
1.40382e-01,1.19506e+01
1.43700e-01,1.10745e+01
1.47097e-01,1.02593e+01
1.50574e-01,9.50118e+00
1.54133e-01,8.79626e+00
1.57777e-01,8.14110e+00
1.61506e-01,7.53239e+00
1.65324e-01,6.96705e+00
1.69232e-01,6.44217e+00
1.73232e-01,5.95504e+00
1.77327e-01,5.50309e+00
1.81518e-01,5.08393e+00
1.85809e-01,4.69531e+00
1.90201e-01,4.33514e+00
1.94697e-01,4.00145e+00
1.99299e-01,3.69239e+00
2.04010e-01,3.40623e+00
2.08833e-01,3.14138e+00
2.13769e-01,2.89631e+00
2.18822e-01,2.66964e+00
2.23994e-01,2.46003e+00
2.29289e-01,2.26627e+00
2.34709e-01,2.08721e+00
2.40257e-01,1.92180e+00
2.45936e-01,1.76902e+00
2.51749e-01,1.62796e+00
2.57700e-01,1.49776e+00
2.63792e-01,1.37762e+00
2.70027e-01,1.26678e+00
2.76410e-01,1.16456e+00
2.82944e-01,1.07031e+00
2.89632e-01,9.83425e-01
2.96478e-01,9.03360e-01
3.03486e-01,8.29593e-01
3.10660e-01,7.61646e-01
3.18003e-01,6.99075e-01
3.25520e-01,6.41467e-01
3.33214e-01,5.88441e-01
3.41091e-01,5.39643e-01
3.49153e-01,4.94746e-01
3.57407e-01,4.53446e-01
3.65855e-01,4.15464e-01
3.74503e-01,3.80539e-01
3.83355e-01,3.48431e-01
3.92417e-01,3.18920e-01
4.01693e-01,2.91799e-01
4.11188e-01,2.66881e-01
4.20907e-01,2.43989e-01
4.30856e-01,2.22964e-01
4.41041e-01,2.03655e-01
4.51466e-01,1.85925e-01
4.62138e-01,1.69648e-01
4.73062e-01,1.54708e-01
4.84244e-01,1.40995e-01
4.95690e-01,1.28412e-01
5.07407e-01,1.16866e-01
5.19401e-01,1.06274e-01
5.31678e-01,9.65585e-02
5.44246e-01,8.76474e-02
5.57111e-01,7.94753e-02
5.70280e-01,7.19819e-02
5.83760e-01,6.51116e-02
5.97558e-01,5.88132e-02
6.11683e-01,5.30398e-02
6.26142e-01,4.77482e-02
6.40943e-01,4.28985e-02
6.56093e-01,3.84545e-02
6.71601e-01,3.43824e-02
6.87477e-01,3.06516e-02
7.03727e-01,2.72336e-02
7.20361e-01,2.41026e-02
7.37389e-01,2.12347e-02
7.54819e-01,1.86080e-02
7.72661e-01,1.62023e-02
7.90925e-01,1.39993e-02
8.09621e-01,1.19820e-02
8.28759e-01,1.01348e-02
8.48348e-01,8.44365e-03
8.68401e-01,6.89533e-03
8.88928e-01,5.47791e-03
9.09941e-01,4.18039e-03
9.31450e-01,2.99269e-03
9.53467e-01,1.90559e-03
9.76005e-01,9.10612e-04
9.99075e-01,0.00000e+00
