m1=234970.193, m2=13.092, gsp=2.206, rhosp=10.027
fGW[Hz],dPh[rad]
2.20385e-03,8.37722e+02
2.22767e-03,8.05131e+02
2.25174e-03,7.73786e+02
2.27608e-03,7.43639e+02
2.30068e-03,7.14647e+02
2.32554e-03,6.86766e+02
2.35067e-03,6.59954e+02
2.37607e-03,6.34171e+02
2.40175e-03,6.09379e+02
2.42771e-03,5.85541e+02
2.45394e-03,5.62620e+02
2.48046e-03,5.40583e+02
2.50727e-03,5.19395e+02
2.53437e-03,4.99025e+02
2.56176e-03,4.79442e+02
2.58944e-03,4.60616e+02
2.61742e-03,4.42518e+02
2.64571e-03,4.25121e+02
2.67430e-03,4.08399e+02
2.70320e-03,3.92325e+02
2.73242e-03,3.76874e+02
2.76195e-03,3.62024e+02
2.79180e-03,3.47751e+02
2.82197e-03,3.34033e+02
2.85246e-03,3.20849e+02
2.88329e-03,3.08179e+02
2.91445e-03,2.96003e+02
2.94595e-03,2.84302e+02
2.97778e-03,2.73057e+02
3.00996e-03,2.62252e+02
3.04249e-03,2.51869e+02
3.07537e-03,2.41892e+02
3.10861e-03,2.32305e+02
3.14220e-03,2.23095e+02
3.17616e-03,2.14245e+02
3.21048e-03,2.05742e+02
3.24518e-03,1.97572e+02
3.28025e-03,1.89723e+02
3.31570e-03,1.82183e+02
3.35153e-03,1.74939e+02
3.38775e-03,1.67980e+02
3.42436e-03,1.61295e+02
3.46137e-03,1.54873e+02
3.49878e-03,1.48703e+02
3.53659e-03,1.42777e+02
3.57481e-03,1.37085e+02
3.61344e-03,1.31617e+02
3.65249e-03,1.26365e+02
3.69196e-03,1.21321e+02
3.73186e-03,1.16476e+02
3.77219e-03,1.11822e+02
3.81296e-03,1.07353e+02
3.85417e-03,1.03060e+02
3.89582e-03,9.89369e+01
3.93792e-03,9.49774e+01
3.98048e-03,9.11748e+01
4.02349e-03,8.75229e+01
4.06698e-03,8.40158e+01
4.11093e-03,8.06478e+01
4.15535e-03,7.74135e+01
4.20026e-03,7.43077e+01
4.24565e-03,7.13252e+01
4.29154e-03,6.84613e+01
4.33791e-03,6.57111e+01
4.38479e-03,6.30704e+01
4.43218e-03,6.05347e+01
4.48008e-03,5.81000e+01
4.52849e-03,5.57622e+01
4.57743e-03,5.35175e+01
4.62690e-03,5.13622e+01
4.67690e-03,4.92928e+01
4.72745e-03,4.73060e+01
4.77854e-03,4.53983e+01
4.83018e-03,4.35668e+01
4.88238e-03,4.18084e+01
4.93514e-03,4.01202e+01
4.98848e-03,3.84994e+01
5.04239e-03,3.69434e+01
5.09688e-03,3.54495e+01
5.15196e-03,3.40154e+01
5.20764e-03,3.26385e+01
5.26392e-03,3.13168e+01
5.32080e-03,3.00479e+01
5.37831e-03,2.88299e+01
5.43643e-03,2.76605e+01
5.49518e-03,2.65380e+01
5.55457e-03,2.54605e+01
5.61459e-03,2.44261e+01
5.67527e-03,2.34332e+01
5.73660e-03,2.24801e+01
5.79860e-03,2.15651e+01
5.86126e-03,2.06869e+01
5.92461e-03,1.98439e+01
5.98863e-03,1.90347e+01
6.05335e-03,1.82580e+01
6.11877e-03,1.75125e+01
6.18490e-03,1.67969e+01
6.25174e-03,1.61101e+01
6.31930e-03,1.54508e+01
6.38759e-03,1.48180e+01
6.45662e-03,1.42107e+01
6.52640e-03,1.36277e+01
6.59693e-03,1.30682e+01
6.66822e-03,1.25312e+01
6.74028e-03,1.20158e+01
6.81313e-03,1.15211e+01
6.88676e-03,1.10464e+01
6.96118e-03,1.05907e+01
7.03641e-03,1.01534e+01
7.11245e-03,9.73363e+00
7.18932e-03,9.33080e+00
7.26701e-03,8.94419e+00
7.34555e-03,8.57315e+00
7.42493e-03,8.21706e+00
7.50517e-03,7.87532e+00
7.58628e-03,7.54734e+00
7.66826e-03,7.23259e+00
7.75113e-03,6.93052e+00
7.83490e-03,6.64063e+00
7.91957e-03,6.36243e+00
8.00516e-03,6.09545e+00
8.09167e-03,5.83924e+00
8.17912e-03,5.59336e+00
8.26751e-03,5.35740e+00
8.35685e-03,5.13096e+00
8.44717e-03,4.91366e+00
8.53845e-03,4.70513e+00
8.63073e-03,4.50502e+00
8.72400e-03,4.31299e+00
8.81828e-03,4.12871e+00
8.91358e-03,3.95187e+00
9.00991e-03,3.78217e+00
9.10728e-03,3.61933e+00
9.20570e-03,3.46307e+00
9.30519e-03,3.31312e+00
9.40575e-03,3.16923e+00
9.50740e-03,3.03115e+00
9.61014e-03,2.89866e+00
9.71400e-03,2.77152e+00
9.81898e-03,2.64952e+00
9.92509e-03,2.53245e+00
1.00324e-02,2.42011e+00
1.01408e-02,2.31232e+00
1.02504e-02,2.20889e+00
1.03611e-02,2.10964e+00
1.04731e-02,2.01440e+00
1.05863e-02,1.92302e+00
1.07007e-02,1.83533e+00
1.08163e-02,1.75119e+00
1.09332e-02,1.67046e+00
1.10514e-02,1.59299e+00
1.11708e-02,1.51866e+00
1.12915e-02,1.44734e+00
1.14136e-02,1.37890e+00
1.15369e-02,1.31324e+00
1.16616e-02,1.25023e+00
1.17876e-02,1.18977e+00
1.19150e-02,1.13177e+00
1.20438e-02,1.07611e+00
1.21739e-02,1.02270e+00
1.23055e-02,9.71460e-01
1.24385e-02,9.22293e-01
1.25729e-02,8.75117e-01
1.27088e-02,8.29853e-01
1.28461e-02,7.86422e-01
1.29849e-02,7.44751e-01
1.31253e-02,7.04768e-01
1.32671e-02,6.66406e-01
1.34105e-02,6.29598e-01
1.35554e-02,5.94281e-01
1.37019e-02,5.60396e-01
1.38500e-02,5.27884e-01
1.39997e-02,4.96690e-01
1.41510e-02,4.66760e-01
1.43039e-02,4.38044e-01
1.44585e-02,4.10492e-01
1.46147e-02,3.84057e-01
1.47727e-02,3.58693e-01
1.49323e-02,3.34358e-01
1.50937e-02,3.11010e-01
1.52568e-02,2.88608e-01
1.54217e-02,2.67115e-01
1.55883e-02,2.46494e-01
1.57568e-02,2.26709e-01
1.59271e-02,2.07726e-01
1.60992e-02,1.89513e-01
1.62732e-02,1.72039e-01
1.64491e-02,1.55274e-01
1.66268e-02,1.39189e-01
1.68065e-02,1.23757e-01
1.69881e-02,1.08950e-01
1.71717e-02,9.47445e-02
1.73573e-02,8.11151e-02
1.75449e-02,6.80388e-02
1.77345e-02,5.54930e-02
1.79261e-02,4.34563e-02
1.81199e-02,3.19081e-02
1.83157e-02,2.08285e-02
1.85136e-02,1.01986e-02
1.87137e-02,0.00000e+00
