m1=13012.094, m2=38.982, gsp=2.042, rhosp=10.052
fGW[Hz],dPh[rad]
3.01864e-03,1.64797e+01
3.09109e-03,1.55920e+01
3.16527e-03,1.47519e+01
3.24124e-03,1.39567e+01
3.31902e-03,1.32040e+01
3.39868e-03,1.24916e+01
3.48025e-03,1.18174e+01
3.56377e-03,1.11793e+01
3.64930e-03,1.05753e+01
3.73688e-03,1.00037e+01
3.82656e-03,9.46274e+00
3.91840e-03,8.95076e+00
4.01244e-03,8.46622e+00
4.10874e-03,8.00766e+00
4.20734e-03,7.57370e+00
4.30832e-03,7.16302e+00
4.41172e-03,6.77438e+00
4.51760e-03,6.40660e+00
4.62602e-03,6.05857e+00
4.73704e-03,5.72924e+00
4.85072e-03,5.41760e+00
4.96714e-03,5.12271e+00
5.08635e-03,4.84368e+00
5.20842e-03,4.57966e+00
5.33342e-03,4.32984e+00
5.46142e-03,4.09347e+00
5.59249e-03,3.86983e+00
5.72671e-03,3.65824e+00
5.86414e-03,3.45805e+00
6.00488e-03,3.26866e+00
6.14900e-03,3.08948e+00
6.29657e-03,2.91997e+00
6.44768e-03,2.75962e+00
6.60242e-03,2.60793e+00
6.76088e-03,2.46443e+00
6.92314e-03,2.32870e+00
7.08929e-03,2.20031e+00
7.25943e-03,2.07887e+00
7.43365e-03,1.96401e+00
7.61206e-03,1.85538e+00
7.79474e-03,1.75264e+00
7.98181e-03,1.65547e+00
8.17337e-03,1.56358e+00
8.36953e-03,1.47669e+00
8.57039e-03,1.39452e+00
8.77608e-03,1.31682e+00
8.98670e-03,1.24335e+00
9.20238e-03,1.17389e+00
9.42323e-03,1.10822e+00
9.64938e-03,1.04613e+00
9.88096e-03,9.87435e-01
1.01181e-02,9.31950e-01
1.03609e-02,8.79502e-01
1.06096e-02,8.29928e-01
1.08642e-02,7.83073e-01
1.11250e-02,7.38790e-01
1.13919e-02,6.96940e-01
1.16653e-02,6.57393e-01
1.19453e-02,6.20023e-01
1.22320e-02,5.84714e-01
1.25256e-02,5.51353e-01
1.28262e-02,5.19837e-01
1.31340e-02,4.90064e-01
1.34492e-02,4.61940e-01
1.37720e-02,4.35377e-01
1.41025e-02,4.10289e-01
1.44409e-02,3.86596e-01
1.47875e-02,3.64223e-01
1.51424e-02,3.43098e-01
1.55058e-02,3.23153e-01
1.58779e-02,3.04325e-01
1.62590e-02,2.86551e-01
1.66492e-02,2.69775e-01
1.70488e-02,2.53943e-01
1.74580e-02,2.39002e-01
1.78769e-02,2.24904e-01
1.83060e-02,2.11603e-01
1.87453e-02,1.99056e-01
1.91952e-02,1.87220e-01
1.96559e-02,1.76058e-01
2.01276e-02,1.65531e-01
2.06107e-02,1.55605e-01
2.11053e-02,1.46248e-01
2.16118e-02,1.37427e-01
2.21305e-02,1.29113e-01
2.26616e-02,1.21277e-01
2.32055e-02,1.13895e-01
2.37624e-02,1.06939e-01
2.43327e-02,1.00387e-01
2.49167e-02,9.42169e-02
2.55146e-02,8.84062e-02
2.61270e-02,8.29355e-02
2.67540e-02,7.77856e-02
2.73961e-02,7.29386e-02
2.80536e-02,6.83775e-02
2.87269e-02,6.40863e-02
2.94163e-02,6.00497e-02
3.01223e-02,5.62535e-02
3.08452e-02,5.26839e-02
3.15855e-02,4.93281e-02
3.23435e-02,4.61741e-02
3.31197e-02,4.32102e-02
3.39146e-02,4.04258e-02
3.47285e-02,3.78104e-02
3.55620e-02,3.53544e-02
3.64155e-02,3.30487e-02
3.72894e-02,3.08845e-02
3.81843e-02,2.88536e-02
3.91008e-02,2.69484e-02
4.00392e-02,2.51615e-02
4.10001e-02,2.34861e-02
4.19841e-02,2.19155e-02
4.29917e-02,2.04436e-02
4.40234e-02,1.90647e-02
4.50800e-02,1.77731e-02
4.61619e-02,1.65638e-02
4.72697e-02,1.54318e-02
4.84042e-02,1.43724e-02
4.95659e-02,1.33814e-02
5.07554e-02,1.24546e-02
5.19735e-02,1.15881e-02
5.32209e-02,1.07783e-02
5.44981e-02,1.00216e-02
5.58061e-02,9.31492e-03
5.71454e-02,8.65506e-03
5.85169e-02,8.03915e-03
5.99212e-02,7.46446e-03
6.13593e-02,6.92842e-03
6.28319e-02,6.42861e-03
6.43398e-02,5.96273e-03
6.58840e-02,5.52864e-03
6.74652e-02,5.12431e-03
6.90843e-02,4.74785e-03
7.07423e-02,4.39745e-03
7.24401e-02,4.07143e-03
7.41786e-02,3.76820e-03
7.59588e-02,3.48629e-03
7.77818e-02,3.22428e-03
7.96485e-02,2.98086e-03
8.15601e-02,2.75479e-03
8.35175e-02,2.54493e-03
8.55219e-02,2.35017e-03
8.75743e-02,2.16951e-03
8.96761e-02,2.00198e-03
9.18283e-02,1.84668e-03
9.40321e-02,1.70278e-03
9.62888e-02,1.56949e-03
9.85997e-02,1.44608e-03
1.00966e-01,1.33185e-03
1.03389e-01,1.22616e-03
1.05870e-01,1.12841e-03
1.08411e-01,1.03803e-03
1.11013e-01,9.54504e-04
1.13677e-01,8.77332e-04
1.16406e-01,8.06058e-04
1.19199e-01,7.40256e-04
1.22060e-01,6.79527e-04
1.24989e-01,6.23498e-04
1.27989e-01,5.71824e-04
1.31061e-01,5.24182e-04
1.34206e-01,4.80272e-04
1.37427e-01,4.39816e-04
1.40725e-01,4.02553e-04
1.44103e-01,3.68244e-04
1.47561e-01,3.36662e-04
1.51102e-01,3.07602e-04
1.54729e-01,2.80869e-04
1.58442e-01,2.56285e-04
1.62245e-01,2.33684e-04
1.66138e-01,2.12911e-04
1.70126e-01,1.93824e-04
1.74209e-01,1.76292e-04
1.78390e-01,1.60192e-04
1.82671e-01,1.45411e-04
1.87055e-01,1.31844e-04
1.91544e-01,1.19395e-04
1.96141e-01,1.07975e-04
2.00848e-01,9.75013e-05
2.05669e-01,8.78975e-05
2.10605e-01,7.90937e-05
2.15659e-01,7.10250e-05
2.20835e-01,6.36317e-05
2.26135e-01,5.68587e-05
2.31562e-01,5.06553e-05
2.37119e-01,4.49748e-05
2.42810e-01,3.97741e-05
2.48637e-01,3.50136e-05
2.54604e-01,3.06569e-05
2.60715e-01,2.66705e-05
2.66972e-01,2.30236e-05
2.73379e-01,1.96877e-05
2.79940e-01,1.66370e-05
2.86658e-01,1.38476e-05
2.93538e-01,1.12973e-05
3.00583e-01,8.96614e-06
3.07797e-01,6.83556e-06
3.15184e-01,4.88859e-06
3.22748e-01,3.10967e-06
3.30494e-01,1.48450e-06
3.38425e-01,0.00000e+00
