m1=111665.983, m2=3.752, gsp=2.077, rhosp=3152.754
fGW[Hz],dPh[rad]
4.24104e-03,7.46848e+02
4.28880e-03,7.15714e+02
4.33709e-03,6.85860e+02
4.38593e-03,6.57233e+02
4.43532e-03,6.29784e+02
4.48527e-03,6.03466e+02
4.53577e-03,5.78232e+02
4.58685e-03,5.54040e+02
4.63850e-03,5.30846e+02
4.69074e-03,5.08611e+02
4.74356e-03,4.87295e+02
4.79697e-03,4.66861e+02
4.85099e-03,4.47273e+02
4.90562e-03,4.28497e+02
4.96086e-03,4.10500e+02
5.01672e-03,3.93250e+02
5.07322e-03,3.76716e+02
5.13034e-03,3.60869e+02
5.18812e-03,3.45681e+02
5.24654e-03,3.31125e+02
5.30562e-03,3.17176e+02
5.36537e-03,3.03808e+02
5.42578e-03,2.90997e+02
5.48688e-03,2.78720e+02
5.54867e-03,2.66957e+02
5.61115e-03,2.55684e+02
5.67434e-03,2.44883e+02
5.73824e-03,2.34533e+02
5.80285e-03,2.24617e+02
5.86820e-03,2.15116e+02
5.93428e-03,2.06013e+02
6.00110e-03,1.97291e+02
6.06868e-03,1.88935e+02
6.13702e-03,1.80930e+02
6.20613e-03,1.73261e+02
6.27601e-03,1.65914e+02
6.34669e-03,1.58876e+02
6.41816e-03,1.52134e+02
6.49043e-03,1.45676e+02
6.56352e-03,1.39489e+02
6.63743e-03,1.33563e+02
6.71217e-03,1.27886e+02
6.78776e-03,1.22449e+02
6.86419e-03,1.17241e+02
6.94149e-03,1.12253e+02
7.01966e-03,1.07475e+02
7.09870e-03,1.02899e+02
7.17864e-03,9.85167e+01
7.25948e-03,9.43192e+01
7.34123e-03,9.02992e+01
7.42389e-03,8.64492e+01
7.50749e-03,8.27622e+01
7.59203e-03,7.92311e+01
7.67753e-03,7.58496e+01
7.76398e-03,7.26114e+01
7.85141e-03,6.95103e+01
7.93983e-03,6.65407e+01
8.02923e-03,6.36971e+01
8.11965e-03,6.09740e+01
8.21108e-03,5.83665e+01
8.30355e-03,5.58697e+01
8.39705e-03,5.34789e+01
8.49161e-03,5.11897e+01
8.58723e-03,4.89978e+01
8.68393e-03,4.68990e+01
8.78172e-03,4.48894e+01
8.88061e-03,4.29653e+01
8.98061e-03,4.11231e+01
9.08174e-03,3.93593e+01
9.18401e-03,3.76705e+01
9.28743e-03,3.60537e+01
9.39201e-03,3.45057e+01
9.49778e-03,3.30237e+01
9.60473e-03,3.16048e+01
9.71289e-03,3.02464e+01
9.82226e-03,2.89459e+01
9.93287e-03,2.77009e+01
1.00447e-02,2.65090e+01
1.01578e-02,2.53680e+01
1.02722e-02,2.42756e+01
1.03879e-02,2.32299e+01
1.05049e-02,2.22289e+01
1.06232e-02,2.12706e+01
1.07428e-02,2.03532e+01
1.08638e-02,1.94751e+01
1.09861e-02,1.86344e+01
1.11098e-02,1.78297e+01
1.12349e-02,1.70594e+01
1.13614e-02,1.63221e+01
1.14894e-02,1.56163e+01
1.16187e-02,1.49407e+01
1.17496e-02,1.42940e+01
1.18819e-02,1.36750e+01
1.20157e-02,1.30824e+01
1.21510e-02,1.25153e+01
1.22878e-02,1.19724e+01
1.24262e-02,1.14528e+01
1.25661e-02,1.09555e+01
1.27076e-02,1.04794e+01
1.28507e-02,1.00238e+01
1.29954e-02,9.58766e+00
1.31418e-02,9.17025e+00
1.32898e-02,8.77073e+00
1.34394e-02,8.38834e+00
1.35908e-02,8.02235e+00
1.37438e-02,7.67206e+00
1.38986e-02,7.33679e+00
1.40551e-02,7.01592e+00
1.42134e-02,6.70881e+00
1.43734e-02,6.41489e+00
1.45353e-02,6.13358e+00
1.46990e-02,5.86435e+00
1.48645e-02,5.60667e+00
1.50319e-02,5.36007e+00
1.52011e-02,5.12405e+00
1.53723e-02,4.89818e+00
1.55454e-02,4.68200e+00
1.57205e-02,4.47512e+00
1.58975e-02,4.27712e+00
1.60765e-02,4.08764e+00
1.62575e-02,3.90630e+00
1.64406e-02,3.73275e+00
1.66258e-02,3.56666e+00
1.68130e-02,3.40772e+00
1.70023e-02,3.25561e+00
1.71938e-02,3.11004e+00
1.73874e-02,2.97073e+00
1.75832e-02,2.83741e+00
1.77812e-02,2.70983e+00
1.79814e-02,2.58774e+00
1.81839e-02,2.47090e+00
1.83887e-02,2.35909e+00
1.85957e-02,2.25209e+00
1.88051e-02,2.14969e+00
1.90169e-02,2.05170e+00
1.92310e-02,1.95793e+00
1.94476e-02,1.86820e+00
1.96666e-02,1.78233e+00
1.98881e-02,1.70016e+00
2.01120e-02,1.62152e+00
2.03385e-02,1.54627e+00
2.05675e-02,1.47427e+00
2.07991e-02,1.40536e+00
2.10333e-02,1.33942e+00
2.12702e-02,1.27633e+00
2.15097e-02,1.21595e+00
2.17519e-02,1.15817e+00
2.19969e-02,1.10288e+00
2.22446e-02,1.04997e+00
2.24951e-02,9.99347e-01
2.27484e-02,9.50903e-01
2.30046e-02,9.04546e-01
2.32636e-02,8.60187e-01
2.35256e-02,8.17741e-01
2.37905e-02,7.77124e-01
2.40584e-02,7.38258e-01
2.43293e-02,7.01067e-01
2.46033e-02,6.65480e-01
2.48803e-02,6.31428e-01
2.51605e-02,5.98843e-01
2.54438e-02,5.67664e-01
2.57304e-02,5.37830e-01
2.60201e-02,5.09282e-01
2.63131e-02,4.81965e-01
2.66094e-02,4.55826e-01
2.69091e-02,4.30815e-01
2.72121e-02,4.06883e-01
2.75185e-02,3.83983e-01
2.78284e-02,3.62071e-01
2.81418e-02,3.41104e-01
2.84587e-02,3.21042e-01
2.87791e-02,3.01845e-01
2.91032e-02,2.83477e-01
2.94309e-02,2.65901e-01
2.97624e-02,2.49084e-01
3.00975e-02,2.32992e-01
3.04364e-02,2.17595e-01
3.07792e-02,2.02863e-01
3.11258e-02,1.88766e-01
3.14763e-02,1.75277e-01
3.18307e-02,1.62371e-01
3.21892e-02,1.50022e-01
3.25516e-02,1.38206e-01
3.29182e-02,1.26900e-01
3.32889e-02,1.16082e-01
3.36637e-02,1.05731e-01
3.40428e-02,9.58266e-02
3.44262e-02,8.63500e-02
3.48138e-02,7.72826e-02
3.52059e-02,6.86067e-02
3.56023e-02,6.03054e-02
3.60032e-02,5.23625e-02
3.64087e-02,4.47625e-02
3.68187e-02,3.74908e-02
3.72333e-02,3.05330e-02
3.76525e-02,2.38757e-02
3.80765e-02,1.75059e-02
3.85053e-02,1.14112e-02
3.89389e-02,5.57966e-03
3.93774e-02,0.00000e+00
