m1=9293.144, m2=18.844, gsp=2.297, rhosp=1200.562
fGW[Hz],dPh[rad]
4.31207e-03,1.08020e+04
4.41511e-03,1.02606e+04
4.52060e-03,9.74609e+03
4.62862e-03,9.25707e+03
4.73921e-03,8.79230e+03
4.85245e-03,8.35058e+03
4.96840e-03,7.93077e+03
5.08711e-03,7.53180e+03
5.20867e-03,7.15263e+03
5.33312e-03,6.79229e+03
5.46055e-03,6.44985e+03
5.59103e-03,6.12442e+03
5.72462e-03,5.81518e+03
5.86140e-03,5.52131e+03
6.00146e-03,5.24206e+03
6.14486e-03,4.97671e+03
6.29168e-03,4.72457e+03
6.44202e-03,4.48499e+03
6.59594e-03,4.25734e+03
6.75355e-03,4.04105e+03
6.91492e-03,3.83555e+03
7.08014e-03,3.64030e+03
7.24932e-03,3.45480e+03
7.42253e-03,3.27857e+03
7.59989e-03,3.11114e+03
7.78148e-03,2.95209e+03
7.96741e-03,2.80100e+03
8.15778e-03,2.65747e+03
8.35271e-03,2.52113e+03
8.55229e-03,2.39163e+03
8.75664e-03,2.26863e+03
8.96587e-03,2.15179e+03
9.18010e-03,2.04083e+03
9.39945e-03,1.93545e+03
9.62404e-03,1.83537e+03
9.85400e-03,1.74032e+03
1.00894e-02,1.65007e+03
1.03305e-02,1.56437e+03
1.05774e-02,1.48299e+03
1.08301e-02,1.40572e+03
1.10889e-02,1.33237e+03
1.13538e-02,1.26272e+03
1.16251e-02,1.19660e+03
1.19029e-02,1.13383e+03
1.21873e-02,1.07426e+03
1.24785e-02,1.01770e+03
1.27767e-02,9.64028e+02
1.30820e-02,9.13087e+02
1.33945e-02,8.64742e+02
1.37146e-02,8.18866e+02
1.40423e-02,7.75335e+02
1.43778e-02,7.34031e+02
1.47214e-02,6.94844e+02
1.50731e-02,6.57667e+02
1.54333e-02,6.22401e+02
1.58020e-02,5.88950e+02
1.61796e-02,5.57223e+02
1.65662e-02,5.27133e+02
1.69620e-02,4.98599e+02
1.73673e-02,4.71542e+02
1.77823e-02,4.45889e+02
1.82072e-02,4.21569e+02
1.86422e-02,3.98514e+02
1.90877e-02,3.76661e+02
1.95438e-02,3.55950e+02
2.00108e-02,3.36323e+02
2.04889e-02,3.17725e+02
2.09785e-02,3.00105e+02
2.14797e-02,2.83412e+02
2.19930e-02,2.67601e+02
2.25185e-02,2.52625e+02
2.30565e-02,2.38444e+02
2.36074e-02,2.25016e+02
2.41715e-02,2.12303e+02
2.47491e-02,2.00269e+02
2.53404e-02,1.88879e+02
2.59459e-02,1.78101e+02
2.65659e-02,1.67902e+02
2.72006e-02,1.58254e+02
2.78506e-02,1.49127e+02
2.85160e-02,1.40496e+02
2.91974e-02,1.32335e+02
2.98950e-02,1.24619e+02
3.06093e-02,1.17325e+02
3.13407e-02,1.10433e+02
3.20896e-02,1.03920e+02
3.28563e-02,9.77665e+01
3.36414e-02,9.19548e+01
3.44452e-02,8.64666e+01
3.52683e-02,8.12850e+01
3.61110e-02,7.63938e+01
3.69738e-02,7.17778e+01
3.78573e-02,6.74224e+01
3.87618e-02,6.33140e+01
3.96880e-02,5.94393e+01
4.06363e-02,5.57860e+01
4.16073e-02,5.23423e+01
4.26015e-02,4.90969e+01
4.36194e-02,4.60393e+01
4.46616e-02,4.31592e+01
4.57288e-02,4.04471e+01
4.68214e-02,3.78940e+01
4.79402e-02,3.54910e+01
4.90857e-02,3.32302e+01
5.02585e-02,3.11035e+01
5.14594e-02,2.91038e+01
5.26890e-02,2.72239e+01
5.39479e-02,2.54572e+01
5.52370e-02,2.37974e+01
5.65568e-02,2.22386e+01
5.79082e-02,2.07750e+01
5.92918e-02,1.94012e+01
6.07086e-02,1.81123e+01
6.21591e-02,1.69032e+01
6.36444e-02,1.57696e+01
6.51651e-02,1.47069e+01
6.67222e-02,1.37112e+01
6.83164e-02,1.27785e+01
6.99488e-02,1.19052e+01
7.16201e-02,1.10877e+01
7.33314e-02,1.03227e+01
7.50836e-02,9.60725e+00
7.68777e-02,8.93823e+00
7.87146e-02,8.31291e+00
8.05954e-02,7.72864e+00
8.25212e-02,7.18292e+00
8.44929e-02,6.67341e+00
8.65118e-02,6.19788e+00
8.85789e-02,5.75423e+00
9.06955e-02,5.34047e+00
9.28625e-02,4.95473e+00
9.50814e-02,4.59526e+00
9.73533e-02,4.26039e+00
9.96795e-02,3.94855e+00
1.02061e-01,3.65827e+00
1.04500e-01,3.38816e+00
1.06997e-01,3.13691e+00
1.09553e-01,2.90329e+00
1.12171e-01,2.68614e+00
1.14851e-01,2.48438e+00
1.17596e-01,2.29698e+00
1.20405e-01,2.12299e+00
1.23282e-01,1.96150e+00
1.26228e-01,1.81167e+00
1.29244e-01,1.67271e+00
1.32332e-01,1.54387e+00
1.35494e-01,1.42446e+00
1.38732e-01,1.31383e+00
1.42047e-01,1.21136e+00
1.45441e-01,1.11649e+00
1.48916e-01,1.02867e+00
1.52474e-01,9.47423e-01
1.56117e-01,8.72268e-01
1.59848e-01,8.02774e-01
1.63667e-01,7.38535e-01
1.67578e-01,6.79170e-01
1.71582e-01,6.24328e-01
1.75682e-01,5.73678e-01
1.79879e-01,5.26914e-01
1.84177e-01,4.83750e-01
1.88578e-01,4.43919e-01
1.93084e-01,4.07176e-01
1.97698e-01,3.73288e-01
2.02421e-01,3.42044e-01
2.07258e-01,3.13244e-01
2.12210e-01,2.86703e-01
2.17281e-01,2.62251e-01
2.22473e-01,2.39728e-01
2.27789e-01,2.18987e-01
2.33231e-01,1.99891e-01
2.38804e-01,1.82315e-01
2.44510e-01,1.66140e-01
2.50353e-01,1.51259e-01
2.56334e-01,1.37569e-01
2.62459e-01,1.24980e-01
2.68731e-01,1.13403e-01
2.75152e-01,1.02761e-01
2.81726e-01,9.29793e-02
2.88458e-01,8.39900e-02
2.95350e-01,7.57303e-02
3.02407e-01,6.81425e-02
3.09633e-01,6.11730e-02
3.17031e-01,5.47725e-02
3.24607e-01,4.88954e-02
3.32363e-01,4.34998e-02
3.40304e-01,3.85469e-02
3.48435e-01,3.40011e-02
3.56761e-01,2.98295e-02
3.65286e-01,2.60018e-02
3.74014e-01,2.24902e-02
3.82950e-01,1.92688e-02
3.92101e-01,1.63142e-02
4.01470e-01,1.36044e-02
4.11062e-01,1.11196e-02
4.20884e-01,8.84133e-03
4.30941e-01,6.75258e-03
4.41238e-01,4.83782e-03
4.51781e-01,3.08273e-03
4.62576e-01,1.47415e-03
4.73628e-01,0.00000e+00
