m1=27840.279, m2=6.006, gsp=2.228, rhosp=644.931
fGW[Hz],dPh[rad]
5.03143e-03,1.35159e+04
5.11933e-03,1.28904e+04
5.20877e-03,1.22919e+04
5.29977e-03,1.17194e+04
5.39235e-03,1.11718e+04
5.48656e-03,1.06482e+04
5.58241e-03,1.01474e+04
5.67994e-03,9.66864e+03
5.77917e-03,9.21097e+03
5.88014e-03,8.77353e+03
5.98287e-03,8.35550e+03
6.08739e-03,7.95606e+03
6.19374e-03,7.57445e+03
6.30195e-03,7.20993e+03
6.41205e-03,6.86179e+03
6.52407e-03,6.52935e+03
6.63805e-03,6.21195e+03
6.75402e-03,5.90896e+03
6.87201e-03,5.61977e+03
6.99207e-03,5.34380e+03
7.11423e-03,5.08050e+03
7.23851e-03,4.82932e+03
7.36497e-03,4.58974e+03
7.49364e-03,4.36128e+03
7.62456e-03,4.14345e+03
7.75777e-03,3.93579e+03
7.89330e-03,3.73787e+03
8.03120e-03,3.54926e+03
8.17151e-03,3.36957e+03
8.31427e-03,3.19839e+03
8.45952e-03,3.03535e+03
8.60731e-03,2.88011e+03
8.75769e-03,2.73231e+03
8.91069e-03,2.59162e+03
9.06636e-03,2.45772e+03
9.22476e-03,2.33032e+03
9.38592e-03,2.20912e+03
9.54989e-03,2.09384e+03
9.71674e-03,1.98422e+03
9.88649e-03,1.87999e+03
1.00592e-02,1.78092e+03
1.02350e-02,1.68675e+03
1.04138e-02,1.59728e+03
1.05957e-02,1.51228e+03
1.07808e-02,1.43155e+03
1.09692e-02,1.35488e+03
1.11608e-02,1.28209e+03
1.13558e-02,1.21299e+03
1.15542e-02,1.14741e+03
1.17560e-02,1.08518e+03
1.19614e-02,1.02615e+03
1.21704e-02,9.70161e+02
1.23830e-02,9.17064e+02
1.25993e-02,8.66723e+02
1.28195e-02,8.19004e+02
1.30434e-02,7.73779e+02
1.32713e-02,7.30927e+02
1.35031e-02,6.90331e+02
1.37391e-02,6.51880e+02
1.39791e-02,6.15468e+02
1.42233e-02,5.80994e+02
1.44718e-02,5.48360e+02
1.47246e-02,5.17476e+02
1.49819e-02,4.88252e+02
1.52436e-02,4.60604e+02
1.55099e-02,4.34453e+02
1.57809e-02,4.09723e+02
1.60566e-02,3.86340e+02
1.63371e-02,3.64236e+02
1.66225e-02,3.43344e+02
1.69129e-02,3.23602e+02
1.72084e-02,3.04949e+02
1.75090e-02,2.87330e+02
1.78149e-02,2.70689e+02
1.81262e-02,2.54975e+02
1.84428e-02,2.40139e+02
1.87650e-02,2.26135e+02
1.90929e-02,2.12918e+02
1.94264e-02,2.00446e+02
1.97658e-02,1.88679e+02
2.01112e-02,1.77579e+02
2.04625e-02,1.67111e+02
2.08200e-02,1.57239e+02
2.11837e-02,1.47931e+02
2.15538e-02,1.39157e+02
2.19304e-02,1.30887e+02
2.23135e-02,1.23094e+02
2.27033e-02,1.15750e+02
2.31000e-02,1.08832e+02
2.35035e-02,1.02315e+02
2.39142e-02,9.61779e+01
2.43320e-02,9.03982e+01
2.47570e-02,8.49564e+01
2.51896e-02,7.98333e+01
2.56296e-02,7.50111e+01
2.60774e-02,7.04726e+01
2.65330e-02,6.62017e+01
2.69965e-02,6.21833e+01
2.74682e-02,5.84027e+01
2.79481e-02,5.48465e+01
2.84363e-02,5.15018e+01
2.89331e-02,4.83563e+01
2.94386e-02,4.53985e+01
2.99529e-02,4.26176e+01
3.04762e-02,4.00033e+01
3.10086e-02,3.75459e+01
3.15504e-02,3.52362e+01
3.21016e-02,3.30656e+01
3.26624e-02,3.10260e+01
3.32330e-02,2.91096e+01
3.38136e-02,2.73092e+01
3.44044e-02,2.56179e+01
3.50054e-02,2.40293e+01
3.56170e-02,2.25373e+01
3.62392e-02,2.11362e+01
3.68723e-02,1.98205e+01
3.75165e-02,1.85851e+01
3.81720e-02,1.74253e+01
3.88388e-02,1.63366e+01
3.95174e-02,1.53145e+01
4.02078e-02,1.43553e+01
4.09102e-02,1.34550e+01
4.16249e-02,1.26101e+01
4.23521e-02,1.18173e+01
4.30921e-02,1.10734e+01
4.38449e-02,1.03754e+01
4.46109e-02,9.72063e+00
4.53903e-02,9.10636e+00
4.61832e-02,8.53017e+00
4.69901e-02,7.98971e+00
4.78110e-02,7.48282e+00
4.86463e-02,7.00744e+00
4.94962e-02,6.56163e+00
5.03609e-02,6.14359e+00
5.12407e-02,5.75160e+00
5.21359e-02,5.38408e+00
5.30468e-02,5.03950e+00
5.39735e-02,4.71646e+00
5.49165e-02,4.41362e+00
5.58759e-02,4.12974e+00
5.68521e-02,3.86365e+00
5.78453e-02,3.61424e+00
5.88559e-02,3.38048e+00
5.98841e-02,3.16140e+00
6.09303e-02,2.95609e+00
6.19948e-02,2.76368e+00
6.30779e-02,2.58338e+00
6.41799e-02,2.41444e+00
6.53012e-02,2.25614e+00
6.64420e-02,2.10782e+00
6.76028e-02,1.96885e+00
6.87838e-02,1.83866e+00
6.99855e-02,1.71669e+00
7.12082e-02,1.60242e+00
7.24522e-02,1.49538e+00
7.37180e-02,1.39512e+00
7.50059e-02,1.30119e+00
7.63163e-02,1.21322e+00
7.76496e-02,1.13082e+00
7.90062e-02,1.05364e+00
8.03864e-02,9.81361e-01
8.17908e-02,9.13664e-01
8.32198e-02,8.50264e-01
8.46736e-02,7.90890e-01
8.61529e-02,7.35288e-01
8.76581e-02,6.83219e-01
8.91895e-02,6.34461e-01
9.07477e-02,5.88804e-01
9.23331e-02,5.46052e-01
9.39462e-02,5.06021e-01
9.55875e-02,4.68539e-01
9.72574e-02,4.33445e-01
9.89566e-02,4.00586e-01
1.00685e-01,3.69822e-01
1.02444e-01,3.41019e-01
1.04234e-01,3.14053e-01
1.06055e-01,2.88807e-01
1.07908e-01,2.65173e-01
1.09793e-01,2.43047e-01
1.11711e-01,2.22333e-01
1.13663e-01,2.02943e-01
1.15649e-01,1.84791e-01
1.17669e-01,1.67800e-01
1.19725e-01,1.51894e-01
1.21817e-01,1.37005e-01
1.23945e-01,1.23068e-01
1.26110e-01,1.10023e-01
1.28313e-01,9.78124e-02
1.30555e-01,8.63830e-02
1.32836e-01,7.56851e-02
1.35157e-01,6.56721e-02
1.37518e-01,5.63001e-02
1.39920e-01,4.75284e-02
1.42365e-01,3.93185e-02
1.44852e-01,3.16345e-02
1.47383e-01,2.44429e-02
1.49958e-01,1.77122e-02
1.52577e-01,1.14129e-02
1.55243e-01,5.51746e-03
1.57955e-01,0.00000e+00
