m1=215359.501, m2=73.791, gsp=2.022, rhosp=30.214
fGW[Hz],dPh[rad]
1.17771e-03,3.92753e+01
1.19471e-03,3.76002e+01
1.21196e-03,3.59922e+01
1.22946e-03,3.44489e+01
1.24722e-03,3.29677e+01
1.26523e-03,3.15464e+01
1.28350e-03,3.01827e+01
1.30203e-03,2.88745e+01
1.32083e-03,2.76195e+01
1.33990e-03,2.64159e+01
1.35925e-03,2.52616e+01
1.37888e-03,2.41548e+01
1.39879e-03,2.30936e+01
1.41899e-03,2.20763e+01
1.43948e-03,2.11012e+01
1.46026e-03,2.01666e+01
1.48135e-03,1.92710e+01
1.50274e-03,1.84130e+01
1.52444e-03,1.75909e+01
1.54645e-03,1.68034e+01
1.56878e-03,1.60492e+01
1.59144e-03,1.53269e+01
1.61442e-03,1.46353e+01
1.63773e-03,1.39731e+01
1.66138e-03,1.33393e+01
1.68537e-03,1.27326e+01
1.70970e-03,1.21519e+01
1.73439e-03,1.15964e+01
1.75944e-03,1.10648e+01
1.78484e-03,1.05563e+01
1.81061e-03,1.00699e+01
1.83676e-03,9.60471e+00
1.86328e-03,9.15989e+00
1.89019e-03,8.73459e+00
1.91748e-03,8.32802e+00
1.94517e-03,7.93939e+00
1.97326e-03,7.56797e+00
2.00175e-03,7.21305e+00
2.03066e-03,6.87394e+00
2.05998e-03,6.54998e+00
2.08972e-03,6.24053e+00
2.11990e-03,5.94499e+00
2.15051e-03,5.66277e+00
2.18156e-03,5.39330e+00
2.21307e-03,5.13605e+00
2.24502e-03,4.89049e+00
2.27744e-03,4.65612e+00
2.31033e-03,4.43247e+00
2.34369e-03,4.21907e+00
2.37753e-03,4.01548e+00
2.41186e-03,3.82128e+00
2.44669e-03,3.63606e+00
2.48202e-03,3.45942e+00
2.51786e-03,3.29099e+00
2.55421e-03,3.13042e+00
2.59110e-03,2.97734e+00
2.62851e-03,2.83144e+00
2.66647e-03,2.69240e+00
2.70497e-03,2.55991e+00
2.74403e-03,2.43367e+00
2.78365e-03,2.31342e+00
2.82385e-03,2.19887e+00
2.86462e-03,2.08977e+00
2.90599e-03,1.98588e+00
2.94795e-03,1.88696e+00
2.99052e-03,1.79279e+00
3.03370e-03,1.70314e+00
3.07751e-03,1.61781e+00
3.12195e-03,1.53661e+00
3.16703e-03,1.45933e+00
3.21276e-03,1.38581e+00
3.25915e-03,1.31586e+00
3.30621e-03,1.24933e+00
3.35395e-03,1.18604e+00
3.40238e-03,1.12586e+00
3.45151e-03,1.06863e+00
3.50135e-03,1.01422e+00
3.55191e-03,9.62485e-01
3.60320e-03,9.13310e-01
3.65523e-03,8.66570e-01
3.70801e-03,8.22150e-01
3.76155e-03,7.79938e-01
3.81587e-03,7.39829e-01
3.87097e-03,7.01722e-01
3.92687e-03,6.65522e-01
3.98357e-03,6.31136e-01
4.04109e-03,5.98477e-01
4.09945e-03,5.67461e-01
4.15864e-03,5.38008e-01
4.21869e-03,5.10043e-01
4.27961e-03,4.83492e-01
4.34141e-03,4.58288e-01
4.40410e-03,4.34362e-01
4.46769e-03,4.11654e-01
4.53220e-03,3.90103e-01
4.59765e-03,3.69651e-01
4.66404e-03,3.50245e-01
4.73138e-03,3.31833e-01
4.79970e-03,3.14364e-01
4.86901e-03,2.97793e-01
4.93932e-03,2.82075e-01
5.01064e-03,2.67166e-01
5.08300e-03,2.53027e-01
5.15639e-03,2.39618e-01
5.23085e-03,2.26904e-01
5.30638e-03,2.14848e-01
5.38301e-03,2.03418e-01
5.46074e-03,1.92582e-01
5.53959e-03,1.82310e-01
5.61958e-03,1.72573e-01
5.70073e-03,1.63344e-01
5.78304e-03,1.54598e-01
5.86655e-03,1.46309e-01
5.95126e-03,1.38454e-01
6.03720e-03,1.31011e-01
6.12437e-03,1.23959e-01
6.21281e-03,1.17278e-01
6.30252e-03,1.10948e-01
6.39353e-03,1.04952e-01
6.48585e-03,9.92716e-02
6.57950e-03,9.38915e-02
6.67451e-03,8.87958e-02
6.77089e-03,8.39698e-02
6.86866e-03,7.93994e-02
6.96784e-03,7.50714e-02
7.06846e-03,7.09731e-02
7.17053e-03,6.70925e-02
7.27407e-03,6.34183e-02
7.37910e-03,5.99396e-02
7.48566e-03,5.66463e-02
7.59375e-03,5.35286e-02
7.70340e-03,5.05773e-02
7.81464e-03,4.77837e-02
7.92748e-03,4.51394e-02
8.04195e-03,4.26366e-02
8.15807e-03,4.02678e-02
8.27588e-03,3.80260e-02
8.39538e-03,3.59045e-02
8.51661e-03,3.38968e-02
8.63958e-03,3.19969e-02
8.76434e-03,3.01992e-02
8.89090e-03,2.84982e-02
9.01928e-03,2.68888e-02
9.14952e-03,2.53661e-02
9.28163e-03,2.39254e-02
9.41566e-03,2.25625e-02
9.55162e-03,2.12731e-02
9.68954e-03,2.00534e-02
9.82946e-03,1.88996e-02
9.97139e-03,1.78082e-02
1.01154e-02,1.67759e-02
1.02614e-02,1.57994e-02
1.04096e-02,1.48759e-02
1.05599e-02,1.40024e-02
1.07124e-02,1.31762e-02
1.08671e-02,1.23949e-02
1.10240e-02,1.16561e-02
1.11832e-02,1.09573e-02
1.13447e-02,1.02966e-02
1.15085e-02,9.67171e-03
1.16747e-02,9.08085e-03
1.18433e-02,8.52215e-03
1.20143e-02,7.99388e-03
1.21878e-02,7.49438e-03
1.23638e-02,7.02210e-03
1.25423e-02,6.57557e-03
1.27234e-02,6.15339e-03
1.29071e-02,5.75425e-03
1.30935e-02,5.37690e-03
1.32826e-02,5.02016e-03
1.34744e-02,4.68290e-03
1.36689e-02,4.36408e-03
1.38663e-02,4.06268e-03
1.40665e-02,3.77777e-03
1.42697e-02,3.50845e-03
1.44757e-02,3.25387e-03
1.46847e-02,3.01322e-03
1.48968e-02,2.78575e-03
1.51119e-02,2.57075e-03
1.53301e-02,2.36752e-03
1.55515e-02,2.17544e-03
1.57760e-02,1.99389e-03
1.60038e-02,1.82230e-03
1.62349e-02,1.66012e-03
1.64693e-02,1.50684e-03
1.67072e-02,1.36198e-03
1.69484e-02,1.22507e-03
1.71931e-02,1.09568e-03
1.74414e-02,9.73395e-04
1.76933e-02,8.57834e-04
1.79488e-02,7.48624e-04
1.82079e-02,6.45419e-04
1.84708e-02,5.47889e-04
1.87376e-02,4.55723e-04
1.90081e-02,3.68628e-04
1.92826e-02,2.86326e-04
1.95610e-02,2.08554e-04
1.98435e-02,1.35063e-04
2.01300e-02,6.56195e-05
2.04207e-02,0.00000e+00
