m1=423677.404, m2=4.697, gsp=2.041, rhosp=13.493
fGW[Hz],dPh[rad]
2.79326e-03,1.59466e+01
2.81174e-03,1.55336e+01
2.83035e-03,1.51313e+01
2.84908e-03,1.47392e+01
2.86793e-03,1.43573e+01
2.88691e-03,1.39851e+01
2.90601e-03,1.36226e+01
2.92524e-03,1.32693e+01
2.94460e-03,1.29252e+01
2.96408e-03,1.25899e+01
2.98370e-03,1.22632e+01
3.00344e-03,1.19450e+01
3.02332e-03,1.16349e+01
3.04332e-03,1.13328e+01
3.06346e-03,1.10385e+01
3.08373e-03,1.07517e+01
3.10414e-03,1.04724e+01
3.12468e-03,1.02002e+01
3.14536e-03,9.93502e+00
3.16617e-03,9.67667e+00
3.18712e-03,9.42498e+00
3.20821e-03,9.17976e+00
3.22944e-03,8.94086e+00
3.25081e-03,8.70810e+00
3.27233e-03,8.48134e+00
3.29398e-03,8.26042e+00
3.31578e-03,8.04518e+00
3.33772e-03,7.83549e+00
3.35981e-03,7.63119e+00
3.38204e-03,7.43216e+00
3.40442e-03,7.23826e+00
3.42695e-03,7.04934e+00
3.44962e-03,6.86530e+00
3.47245e-03,6.68599e+00
3.49543e-03,6.51130e+00
3.51856e-03,6.34111e+00
3.54184e-03,6.17531e+00
3.56528e-03,6.01378e+00
3.58887e-03,5.85640e+00
3.61262e-03,5.70309e+00
3.63653e-03,5.55372e+00
3.66059e-03,5.40820e+00
3.68482e-03,5.26643e+00
3.70920e-03,5.12831e+00
3.73375e-03,4.99376e+00
3.75845e-03,4.86267e+00
3.78332e-03,4.73495e+00
3.80836e-03,4.61053e+00
3.83356e-03,4.48932e+00
3.85893e-03,4.37123e+00
3.88446e-03,4.25618e+00
3.91017e-03,4.14410e+00
3.93604e-03,4.03491e+00
3.96209e-03,3.92853e+00
3.98831e-03,3.82490e+00
4.01470e-03,3.72393e+00
4.04127e-03,3.62557e+00
4.06801e-03,3.52975e+00
4.09493e-03,3.43639e+00
4.12203e-03,3.34545e+00
4.14930e-03,3.25684e+00
4.17676e-03,3.17053e+00
4.20440e-03,3.08643e+00
4.23222e-03,3.00451e+00
4.26023e-03,2.92470e+00
4.28842e-03,2.84694e+00
4.31680e-03,2.77119e+00
4.34536e-03,2.69740e+00
4.37412e-03,2.62551e+00
4.40306e-03,2.55547e+00
4.43220e-03,2.48724e+00
4.46153e-03,2.42076e+00
4.49105e-03,2.35601e+00
4.52077e-03,2.29292e+00
4.55069e-03,2.23146e+00
4.58080e-03,2.17159e+00
4.61111e-03,2.11326e+00
4.64163e-03,2.05643e+00
4.67234e-03,2.00107e+00
4.70326e-03,1.94714e+00
4.73438e-03,1.89460e+00
4.76571e-03,1.84342e+00
4.79725e-03,1.79355e+00
4.82899e-03,1.74497e+00
4.86095e-03,1.69765e+00
4.89311e-03,1.65155e+00
4.92549e-03,1.60663e+00
4.95809e-03,1.56288e+00
4.99090e-03,1.52025e+00
5.02392e-03,1.47873e+00
5.05717e-03,1.43827e+00
5.09063e-03,1.39886e+00
5.12432e-03,1.36047e+00
5.15823e-03,1.32307e+00
5.19236e-03,1.28663e+00
5.22672e-03,1.25113e+00
5.26131e-03,1.21655e+00
5.29613e-03,1.18286e+00
5.33117e-03,1.15004e+00
5.36645e-03,1.11807e+00
5.40196e-03,1.08692e+00
5.43771e-03,1.05658e+00
5.47369e-03,1.02702e+00
5.50991e-03,9.98225e-01
5.54637e-03,9.70172e-01
5.58308e-03,9.42843e-01
5.62002e-03,9.16219e-01
5.65721e-03,8.90283e-01
5.69465e-03,8.65016e-01
5.73233e-03,8.40401e-01
5.77026e-03,8.16422e-01
5.80845e-03,7.93062e-01
5.84688e-03,7.70304e-01
5.88557e-03,7.48135e-01
5.92452e-03,7.26538e-01
5.96372e-03,7.05498e-01
6.00319e-03,6.85001e-01
6.04291e-03,6.65034e-01
6.08290e-03,6.45582e-01
6.12315e-03,6.26633e-01
6.16367e-03,6.08173e-01
6.20446e-03,5.90189e-01
6.24552e-03,5.72670e-01
6.28685e-03,5.55603e-01
6.32845e-03,5.38977e-01
6.37033e-03,5.22780e-01
6.41248e-03,5.07002e-01
6.45491e-03,4.91630e-01
6.49763e-03,4.76656e-01
6.54062e-03,4.62069e-01
6.58391e-03,4.47858e-01
6.62747e-03,4.34014e-01
6.67133e-03,4.20528e-01
6.71548e-03,4.07390e-01
6.75992e-03,3.94591e-01
6.80465e-03,3.82123e-01
6.84968e-03,3.69977e-01
6.89500e-03,3.58144e-01
6.94063e-03,3.46617e-01
6.98656e-03,3.35388e-01
7.03279e-03,3.24449e-01
7.07933e-03,3.13792e-01
7.12618e-03,3.03411e-01
7.17333e-03,2.93298e-01
7.22080e-03,2.83446e-01
7.26858e-03,2.73848e-01
7.31668e-03,2.64499e-01
7.36510e-03,2.55390e-01
7.41384e-03,2.46518e-01
7.46290e-03,2.37874e-01
7.51228e-03,2.29453e-01
7.56199e-03,2.21251e-01
7.61203e-03,2.13260e-01
7.66240e-03,2.05475e-01
7.71311e-03,1.97892e-01
7.76415e-03,1.90504e-01
7.81553e-03,1.83307e-01
7.86724e-03,1.76296e-01
7.91930e-03,1.69467e-01
7.97171e-03,1.62813e-01
8.02446e-03,1.56332e-01
8.07756e-03,1.50018e-01
8.13101e-03,1.43867e-01
8.18482e-03,1.37875e-01
8.23898e-03,1.32038e-01
8.29350e-03,1.26352e-01
8.34838e-03,1.20813e-01
8.40363e-03,1.15416e-01
8.45924e-03,1.10159e-01
8.51521e-03,1.05038e-01
8.57156e-03,1.00050e-01
8.62828e-03,9.51899e-02
8.68538e-03,9.04556e-02
8.74285e-03,8.58437e-02
8.80071e-03,8.13509e-02
8.85894e-03,7.69742e-02
8.91757e-03,7.27106e-02
8.97658e-03,6.85571e-02
9.03598e-03,6.45110e-02
9.09577e-03,6.05694e-02
9.15596e-03,5.67297e-02
9.21655e-03,5.29892e-02
9.27754e-03,4.93453e-02
9.33893e-03,4.57956e-02
9.40073e-03,4.23376e-02
9.46294e-03,3.89690e-02
9.52556e-03,3.56874e-02
9.58859e-03,3.24906e-02
9.65204e-03,2.93765e-02
9.71591e-03,2.63428e-02
9.78021e-03,2.33875e-02
9.84493e-03,2.05085e-02
9.91007e-03,1.77040e-02
9.97565e-03,1.49719e-02
1.00417e-02,1.23105e-02
1.01081e-02,9.71779e-03
1.01750e-02,7.19211e-03
1.02423e-02,4.73171e-03
1.03101e-02,2.33488e-03
1.03783e-02,0.00000e+00
