m1=124048.801, m2=18.808, gsp=2.228, rhosp=1345.164
fGW[Hz],dPh[rad]
2.25706e-03,7.46464e+03
2.28852e-03,7.13912e+03
2.32041e-03,6.82701e+03
2.35274e-03,6.52782e+03
2.38553e-03,6.24105e+03
2.41877e-03,5.96621e+03
2.45248e-03,5.70284e+03
2.48666e-03,5.45050e+03
2.52131e-03,5.20876e+03
2.55645e-03,4.97719e+03
2.59207e-03,4.75540e+03
2.62819e-03,4.54300e+03
2.66482e-03,4.33963e+03
2.70196e-03,4.14492e+03
2.73961e-03,3.95852e+03
2.77779e-03,3.78011e+03
2.81650e-03,3.60937e+03
2.85575e-03,3.44598e+03
2.89554e-03,3.28964e+03
2.93589e-03,3.14008e+03
2.97681e-03,2.99701e+03
3.01829e-03,2.86017e+03
3.06035e-03,2.72931e+03
3.10300e-03,2.60418e+03
3.14624e-03,2.48454e+03
3.19008e-03,2.37016e+03
3.23454e-03,2.26084e+03
3.27962e-03,2.15634e+03
3.32532e-03,2.05649e+03
3.37166e-03,1.96107e+03
3.41864e-03,1.86990e+03
3.46628e-03,1.78281e+03
3.51459e-03,1.69962e+03
3.56357e-03,1.62016e+03
3.61323e-03,1.54429e+03
3.66358e-03,1.47183e+03
3.71463e-03,1.40265e+03
3.76640e-03,1.33661e+03
3.81888e-03,1.27356e+03
3.87210e-03,1.21339e+03
3.92606e-03,1.15596e+03
3.98077e-03,1.10116e+03
4.03625e-03,1.04887e+03
4.09250e-03,9.98987e+02
4.14953e-03,9.51397e+02
4.20735e-03,9.06002e+02
4.26598e-03,8.62705e+02
4.32543e-03,8.21414e+02
4.38571e-03,7.82040e+02
4.44683e-03,7.44497e+02
4.50880e-03,7.08703e+02
4.57163e-03,6.74581e+02
4.63534e-03,6.42054e+02
4.69993e-03,6.11053e+02
4.76543e-03,5.81507e+02
4.83184e-03,5.53351e+02
4.89917e-03,5.26522e+02
4.96744e-03,5.00959e+02
5.03667e-03,4.76606e+02
5.10686e-03,4.53406e+02
5.17802e-03,4.31308e+02
5.25018e-03,4.10260e+02
5.32335e-03,3.90214e+02
5.39753e-03,3.71125e+02
5.47275e-03,3.52947e+02
5.54901e-03,3.35639e+02
5.62634e-03,3.19161e+02
5.70475e-03,3.03473e+02
5.78425e-03,2.88540e+02
5.86485e-03,2.74326e+02
5.94658e-03,2.60796e+02
6.02945e-03,2.47920e+02
6.11347e-03,2.35667e+02
6.19867e-03,2.24007e+02
6.28505e-03,2.12912e+02
6.37264e-03,2.02356e+02
6.46144e-03,1.92312e+02
6.55148e-03,1.82758e+02
6.64278e-03,1.73669e+02
6.73535e-03,1.65024e+02
6.82921e-03,1.56801e+02
6.92438e-03,1.48981e+02
7.02088e-03,1.41543e+02
7.11872e-03,1.34470e+02
7.21792e-03,1.27745e+02
7.31851e-03,1.21349e+02
7.42049e-03,1.15269e+02
7.52390e-03,1.09488e+02
7.62875e-03,1.03992e+02
7.73506e-03,9.87669e+01
7.84285e-03,9.38002e+01
7.95215e-03,8.90791e+01
8.06297e-03,8.45918e+01
8.17533e-03,8.03267e+01
8.28925e-03,7.62733e+01
8.40477e-03,7.24210e+01
8.52189e-03,6.87602e+01
8.64065e-03,6.52814e+01
8.76106e-03,6.19759e+01
8.88315e-03,5.88349e+01
9.00695e-03,5.58507e+01
9.13246e-03,5.30153e+01
9.25973e-03,5.03216e+01
9.38877e-03,4.77625e+01
9.51960e-03,4.53314e+01
9.65226e-03,4.30220e+01
9.78677e-03,4.08283e+01
9.92316e-03,3.87447e+01
1.00614e-02,3.67655e+01
1.02017e-02,3.48858e+01
1.03438e-02,3.31004e+01
1.04880e-02,3.14049e+01
1.06341e-02,2.97946e+01
1.07823e-02,2.82654e+01
1.09326e-02,2.68133e+01
1.10849e-02,2.54343e+01
1.12394e-02,2.41250e+01
1.13960e-02,2.28816e+01
1.15548e-02,2.17011e+01
1.17159e-02,2.05803e+01
1.18791e-02,1.95161e+01
1.20447e-02,1.85057e+01
1.22125e-02,1.75464e+01
1.23827e-02,1.66358e+01
1.25553e-02,1.57713e+01
1.27302e-02,1.49506e+01
1.29076e-02,1.41715e+01
1.30875e-02,1.34320e+01
1.32699e-02,1.27300e+01
1.34548e-02,1.20636e+01
1.36423e-02,1.14312e+01
1.38324e-02,1.08308e+01
1.40252e-02,1.02610e+01
1.42206e-02,9.72022e+00
1.44188e-02,9.20695e+00
1.46197e-02,8.71981e+00
1.48235e-02,8.25748e+00
1.50300e-02,7.81872e+00
1.52395e-02,7.40233e+00
1.54519e-02,7.00717e+00
1.56672e-02,6.63218e+00
1.58855e-02,6.27632e+00
1.61069e-02,5.93864e+00
1.63313e-02,5.61820e+00
1.65589e-02,5.31414e+00
1.67897e-02,5.02561e+00
1.70237e-02,4.75184e+00
1.72609e-02,4.49207e+00
1.75014e-02,4.24558e+00
1.77453e-02,4.01171e+00
1.79926e-02,3.78982e+00
1.82434e-02,3.57928e+00
1.84976e-02,3.37953e+00
1.87554e-02,3.19001e+00
1.90167e-02,3.01021e+00
1.92817e-02,2.83962e+00
1.95504e-02,2.67778e+00
1.98229e-02,2.52423e+00
2.00991e-02,2.37857e+00
2.03792e-02,2.24038e+00
2.06632e-02,2.10928e+00
2.09512e-02,1.98492e+00
2.12431e-02,1.86693e+00
2.15392e-02,1.75501e+00
2.18393e-02,1.64884e+00
2.21437e-02,1.54812e+00
2.24522e-02,1.45258e+00
2.27651e-02,1.36195e+00
2.30824e-02,1.27598e+00
2.34040e-02,1.19444e+00
2.37302e-02,1.11708e+00
2.40609e-02,1.04371e+00
2.43962e-02,9.74106e-01
2.47362e-02,9.08088e-01
2.50809e-02,8.45468e-01
2.54304e-02,7.86072e-01
2.57848e-02,7.29734e-01
2.61441e-02,6.76297e-01
2.65084e-02,6.25613e-01
2.68778e-02,5.77539e-01
2.72524e-02,5.31942e-01
2.76322e-02,4.88695e-01
2.80172e-02,4.47677e-01
2.84077e-02,4.08773e-01
2.88035e-02,3.71874e-01
2.92049e-02,3.36878e-01
2.96119e-02,3.03686e-01
3.00246e-02,2.72207e-01
3.04430e-02,2.42350e-01
3.08672e-02,2.14034e-01
3.12974e-02,1.87179e-01
3.17335e-02,1.61710e-01
3.21757e-02,1.37555e-01
3.26241e-02,1.14646e-01
3.30788e-02,9.29199e-02
3.35397e-02,7.23153e-02
3.40071e-02,5.27744e-02
3.44810e-02,3.42425e-02
3.49615e-02,1.66674e-02
3.54488e-02,0.00000e+00
