m1=62717.057, m2=4.094, gsp=2.404, rhosp=151.440
fGW[Hz],dPh[rad]
4.74161e-03,1.72634e+05
4.80623e-03,1.64944e+05
4.87173e-03,1.57584e+05
4.93812e-03,1.50541e+05
5.00542e-03,1.43801e+05
5.07364e-03,1.37351e+05
5.14278e-03,1.31181e+05
5.21287e-03,1.25278e+05
5.28391e-03,1.19632e+05
5.35592e-03,1.14231e+05
5.42891e-03,1.09066e+05
5.50290e-03,1.04127e+05
5.57790e-03,9.94046e+04
5.65391e-03,9.48894e+04
5.73097e-03,9.05728e+04
5.80907e-03,8.64466e+04
5.88824e-03,8.25027e+04
5.96848e-03,7.87333e+04
6.04982e-03,7.51311e+04
6.13227e-03,7.16889e+04
6.21584e-03,6.84000e+04
6.30055e-03,6.52577e+04
6.38642e-03,6.22558e+04
6.47346e-03,5.93883e+04
6.56168e-03,5.66494e+04
6.65110e-03,5.40335e+04
6.74174e-03,5.15353e+04
6.83362e-03,4.91496e+04
6.92675e-03,4.68717e+04
7.02115e-03,4.46967e+04
7.11684e-03,4.26203e+04
7.21383e-03,4.06381e+04
7.31214e-03,3.87459e+04
7.41179e-03,3.69398e+04
7.51280e-03,3.52160e+04
7.61519e-03,3.35709e+04
7.71897e-03,3.20010e+04
7.82417e-03,3.05030e+04
7.93080e-03,2.90736e+04
8.03888e-03,2.77098e+04
8.14844e-03,2.64087e+04
8.25948e-03,2.51675e+04
8.37205e-03,2.39835e+04
8.48614e-03,2.28541e+04
8.60179e-03,2.17770e+04
8.71902e-03,2.07496e+04
8.83785e-03,1.97699e+04
8.95829e-03,1.88356e+04
9.08038e-03,1.79446e+04
9.20413e-03,1.70951e+04
9.32956e-03,1.62851e+04
9.45671e-03,1.55129e+04
9.58559e-03,1.47767e+04
9.71622e-03,1.40748e+04
9.84864e-03,1.34058e+04
9.98286e-03,1.27681e+04
1.01189e-02,1.21602e+04
1.02568e-02,1.15809e+04
1.03966e-02,1.10288e+04
1.05383e-02,1.05025e+04
1.06819e-02,1.00011e+04
1.08275e-02,9.52324e+03
1.09750e-02,9.06790e+03
1.11246e-02,8.63404e+03
1.12762e-02,8.22066e+03
1.14299e-02,7.82680e+03
1.15857e-02,7.45157e+03
1.17435e-02,7.09410e+03
1.19036e-02,6.75356e+03
1.20658e-02,6.42916e+03
1.22303e-02,6.12015e+03
1.23969e-02,5.82581e+03
1.25659e-02,5.54545e+03
1.27371e-02,5.27843e+03
1.29107e-02,5.02411e+03
1.30867e-02,4.78190e+03
1.32650e-02,4.55123e+03
1.34458e-02,4.33156e+03
1.36290e-02,4.12238e+03
1.38148e-02,3.92318e+03
1.40030e-02,3.73350e+03
1.41939e-02,3.55288e+03
1.43873e-02,3.38091e+03
1.45834e-02,3.21717e+03
1.47821e-02,3.06127e+03
1.49836e-02,2.91285e+03
1.51878e-02,2.77154e+03
1.53948e-02,2.63701e+03
1.56046e-02,2.50894e+03
1.58173e-02,2.38702e+03
1.60328e-02,2.27096e+03
1.62513e-02,2.16048e+03
1.64728e-02,2.05532e+03
1.66973e-02,1.95521e+03
1.69248e-02,1.85993e+03
1.71555e-02,1.76924e+03
1.73893e-02,1.68292e+03
1.76263e-02,1.60076e+03
1.78665e-02,1.52257e+03
1.81100e-02,1.44815e+03
1.83568e-02,1.37732e+03
1.86070e-02,1.30992e+03
1.88605e-02,1.24577e+03
1.91176e-02,1.18472e+03
1.93781e-02,1.12663e+03
1.96422e-02,1.07135e+03
1.99099e-02,1.01874e+03
2.01812e-02,9.68683e+02
2.04563e-02,9.21049e+02
2.07351e-02,8.75723e+02
2.10176e-02,8.32594e+02
2.13041e-02,7.91556e+02
2.15944e-02,7.52509e+02
2.18887e-02,7.15356e+02
2.21870e-02,6.80007e+02
2.24894e-02,6.46374e+02
2.27959e-02,6.14375e+02
2.31065e-02,5.83931e+02
2.34214e-02,5.54965e+02
2.37406e-02,5.27408e+02
2.40642e-02,5.01191e+02
2.43921e-02,4.76249e+02
2.47246e-02,4.52521e+02
2.50615e-02,4.29947e+02
2.54030e-02,4.08472e+02
2.57492e-02,3.88043e+02
2.61002e-02,3.68608e+02
2.64559e-02,3.50121e+02
2.68164e-02,3.32534e+02
2.71819e-02,3.15804e+02
2.75523e-02,2.99890e+02
2.79278e-02,2.84752e+02
2.83084e-02,2.70352e+02
2.86942e-02,2.56654e+02
2.90853e-02,2.43625e+02
2.94816e-02,2.31231e+02
2.98834e-02,2.19443e+02
3.02907e-02,2.08230e+02
3.07035e-02,1.97565e+02
3.11219e-02,1.87420e+02
3.15461e-02,1.77771e+02
3.19760e-02,1.68593e+02
3.24118e-02,1.59864e+02
3.28535e-02,1.51561e+02
3.33012e-02,1.43665e+02
3.37551e-02,1.36154e+02
3.42151e-02,1.29010e+02
3.46814e-02,1.22216e+02
3.51540e-02,1.15755e+02
3.56331e-02,1.09609e+02
3.61187e-02,1.03764e+02
3.66110e-02,9.82048e+01
3.71099e-02,9.29179e+01
3.76156e-02,8.78897e+01
3.81283e-02,8.31077e+01
3.86479e-02,7.85598e+01
3.91746e-02,7.42346e+01
3.97085e-02,7.01212e+01
4.02496e-02,6.62093e+01
4.07982e-02,6.24890e+01
4.13542e-02,5.89510e+01
4.19178e-02,5.55863e+01
4.24890e-02,5.23865e+01
4.30681e-02,4.93435e+01
4.36550e-02,4.64496e+01
4.42500e-02,4.36976e+01
4.48530e-02,4.10805e+01
4.54643e-02,3.85917e+01
4.60839e-02,3.62249e+01
4.67119e-02,3.39742e+01
4.73485e-02,3.18339e+01
4.79938e-02,2.97985e+01
4.86479e-02,2.78630e+01
4.93109e-02,2.60224e+01
4.99829e-02,2.42722e+01
5.06641e-02,2.26077e+01
5.13545e-02,2.10250e+01
5.20544e-02,1.95199e+01
5.27638e-02,1.80887e+01
5.34829e-02,1.67278e+01
5.42118e-02,1.54336e+01
5.49506e-02,1.42029e+01
5.56995e-02,1.30327e+01
5.64586e-02,1.19199e+01
5.72280e-02,1.08618e+01
5.80079e-02,9.85559e+00
5.87984e-02,8.89880e+00
5.95998e-02,7.98900e+00
6.04120e-02,7.12387e+00
6.12353e-02,6.30124e+00
6.20699e-02,5.51901e+00
6.29158e-02,4.77520e+00
6.37732e-02,4.06793e+00
6.46423e-02,3.39540e+00
6.55233e-02,2.75591e+00
6.64162e-02,2.14784e+00
6.73214e-02,1.56964e+00
6.82388e-02,1.01986e+00
6.91688e-02,4.97083e-01
7.01115e-02,0.00000e+00
