m1=63238.866, m2=27.676, gsp=2.388, rhosp=1128.056
fGW[Hz],dPh[rad]
2.31100e-03,9.57663e+04
2.35087e-03,9.17324e+04
2.39144e-03,8.78572e+04
2.43270e-03,8.41346e+04
2.47467e-03,8.05591e+04
2.51737e-03,7.71253e+04
2.56081e-03,7.38278e+04
2.60499e-03,7.06617e+04
2.64994e-03,6.76220e+04
2.69566e-03,6.47040e+04
2.74217e-03,6.19032e+04
2.78949e-03,5.92151e+04
2.83762e-03,5.66356e+04
2.88658e-03,5.41606e+04
2.93638e-03,5.17861e+04
2.98705e-03,4.95083e+04
3.03859e-03,4.73237e+04
3.09102e-03,4.52286e+04
3.14435e-03,4.32196e+04
3.19860e-03,4.12935e+04
3.25379e-03,3.94471e+04
3.30994e-03,3.76774e+04
3.36705e-03,3.59814e+04
3.42514e-03,3.43562e+04
3.48424e-03,3.27992e+04
3.54436e-03,3.13077e+04
3.60551e-03,2.98791e+04
3.66772e-03,2.85111e+04
3.73101e-03,2.72012e+04
3.79538e-03,2.59471e+04
3.86087e-03,2.47468e+04
3.92749e-03,2.35980e+04
3.99525e-03,2.24987e+04
4.06419e-03,2.14470e+04
4.13431e-03,2.04409e+04
4.20564e-03,1.94788e+04
4.27821e-03,1.85587e+04
4.35203e-03,1.76789e+04
4.42712e-03,1.68380e+04
4.50350e-03,1.60343e+04
4.58121e-03,1.52662e+04
4.66025e-03,1.45324e+04
4.74066e-03,1.38315e+04
4.82246e-03,1.31620e+04
4.90567e-03,1.25227e+04
4.99031e-03,1.19123e+04
5.07642e-03,1.13297e+04
5.16401e-03,1.07737e+04
5.25311e-03,1.02431e+04
5.34374e-03,9.73693e+03
5.43595e-03,9.25412e+03
5.52974e-03,8.79368e+03
5.62515e-03,8.35466e+03
5.72221e-03,7.93615e+03
5.82094e-03,7.53725e+03
5.92138e-03,7.15714e+03
6.02355e-03,6.79499e+03
6.12748e-03,6.45003e+03
6.23320e-03,6.12149e+03
6.34075e-03,5.80867e+03
6.45016e-03,5.51086e+03
6.56145e-03,5.22740e+03
6.67466e-03,4.95766e+03
6.78983e-03,4.70102e+03
6.90698e-03,4.45689e+03
7.02616e-03,4.22472e+03
7.14739e-03,4.00395e+03
7.27071e-03,3.79406e+03
7.39616e-03,3.59457e+03
7.52377e-03,3.40500e+03
7.65359e-03,3.22487e+03
7.78565e-03,3.05377e+03
7.91998e-03,2.89127e+03
8.05664e-03,2.73696e+03
8.19565e-03,2.59046e+03
8.33706e-03,2.45141e+03
8.48091e-03,2.31945e+03
8.62724e-03,2.19424e+03
8.77610e-03,2.07546e+03
8.92752e-03,1.96280e+03
9.08156e-03,1.85597e+03
9.23825e-03,1.75468e+03
9.39765e-03,1.65866e+03
9.55980e-03,1.56766e+03
9.72475e-03,1.48144e+03
9.89254e-03,1.39974e+03
1.00632e-02,1.32236e+03
1.02369e-02,1.24907e+03
1.04135e-02,1.17967e+03
1.05932e-02,1.11397e+03
1.07759e-02,1.05178e+03
1.09619e-02,9.92929e+02
1.11510e-02,9.37237e+02
1.13434e-02,8.84548e+02
1.15391e-02,8.34708e+02
1.17382e-02,7.87571e+02
1.19408e-02,7.42998e+02
1.21468e-02,7.00856e+02
1.23564e-02,6.61019e+02
1.25696e-02,6.23367e+02
1.27865e-02,5.87785e+02
1.30071e-02,5.54166e+02
1.32315e-02,5.22404e+02
1.34598e-02,4.92403e+02
1.36921e-02,4.64069e+02
1.39283e-02,4.37313e+02
1.41686e-02,4.12051e+02
1.44131e-02,3.88202e+02
1.46618e-02,3.65692e+02
1.49148e-02,3.44447e+02
1.51721e-02,3.24399e+02
1.54339e-02,3.05484e+02
1.57002e-02,2.87640e+02
1.59711e-02,2.70807e+02
1.62466e-02,2.54932e+02
1.65270e-02,2.39960e+02
1.68121e-02,2.25844e+02
1.71022e-02,2.12534e+02
1.73973e-02,1.99987e+02
1.76975e-02,1.88161e+02
1.80028e-02,1.77014e+02
1.83134e-02,1.66510e+02
1.86294e-02,1.56613e+02
1.89509e-02,1.47287e+02
1.92779e-02,1.38502e+02
1.96105e-02,1.30226e+02
1.99488e-02,1.22432e+02
2.02930e-02,1.15091e+02
2.06432e-02,1.08178e+02
2.09994e-02,1.01669e+02
2.13617e-02,9.55400e+01
2.17303e-02,8.97703e+01
2.21052e-02,8.43390e+01
2.24866e-02,7.92267e+01
2.28746e-02,7.44150e+01
2.32693e-02,6.98867e+01
2.36708e-02,6.56254e+01
2.40792e-02,6.16157e+01
2.44947e-02,5.78430e+01
2.49173e-02,5.42936e+01
2.53472e-02,5.09546e+01
2.57846e-02,4.78137e+01
2.62295e-02,4.48593e+01
2.66821e-02,4.20806e+01
2.71424e-02,3.94673e+01
2.76108e-02,3.70097e+01
2.80872e-02,3.46988e+01
2.85718e-02,3.25258e+01
2.90648e-02,3.04827e+01
2.95663e-02,2.85618e+01
3.00764e-02,2.67560e+01
3.05953e-02,2.50584e+01
3.11232e-02,2.34626e+01
3.16602e-02,2.19627e+01
3.22065e-02,2.05529e+01
3.27622e-02,1.92279e+01
3.33275e-02,1.79826e+01
3.39025e-02,1.68124e+01
3.44875e-02,1.57127e+01
3.50826e-02,1.46794e+01
3.56879e-02,1.37084e+01
3.63037e-02,1.27961e+01
3.69300e-02,1.19390e+01
3.75672e-02,1.11337e+01
3.82154e-02,1.03772e+01
3.88748e-02,9.66652e+00
3.95456e-02,8.99890e+00
4.02279e-02,8.37178e+00
4.09220e-02,7.78272e+00
4.16281e-02,7.22943e+00
4.23463e-02,6.70976e+00
4.30770e-02,6.22168e+00
4.38203e-02,5.76329e+00
4.45763e-02,5.33279e+00
4.53455e-02,4.92850e+00
4.61279e-02,4.54884e+00
4.69238e-02,4.19232e+00
4.77334e-02,3.85754e+00
4.85570e-02,3.54318e+00
4.93948e-02,3.24801e+00
5.02471e-02,2.97086e+00
5.11141e-02,2.71063e+00
5.19960e-02,2.46631e+00
5.28932e-02,2.23692e+00
5.38058e-02,2.02156e+00
5.47342e-02,1.81938e+00
5.56786e-02,1.62956e+00
5.66392e-02,1.45137e+00
5.76165e-02,1.28409e+00
5.86106e-02,1.12706e+00
5.96219e-02,9.79656e-01
6.06507e-02,8.41285e-01
6.16971e-02,7.11399e-01
6.27617e-02,5.89479e-01
6.38446e-02,4.75041e-01
6.49462e-02,3.67626e-01
6.60668e-02,2.66806e-01
6.72067e-02,1.72176e-01
6.83663e-02,8.33597e-02
6.95459e-02,0.00000e+00
