m1=21912.046, m2=48.196, gsp=2.424, rhosp=3567.455
fGW[Hz],dPh[rad]
2.44698e-03,7.52863e+04
2.50178e-03,7.18463e+04
2.55782e-03,6.85608e+04
2.61510e-03,6.54230e+04
2.67368e-03,6.24262e+04
2.73356e-03,5.95642e+04
2.79478e-03,5.68310e+04
2.85738e-03,5.42208e+04
2.92138e-03,5.17282e+04
2.98681e-03,4.93479e+04
3.05370e-03,4.70748e+04
3.12210e-03,4.49043e+04
3.19203e-03,4.28316e+04
3.26352e-03,4.08526e+04
3.33661e-03,3.89629e+04
3.41134e-03,3.71586e+04
3.48775e-03,3.54359e+04
3.56587e-03,3.37912e+04
3.64573e-03,3.22209e+04
3.72739e-03,3.07217e+04
3.81087e-03,2.92904e+04
3.89622e-03,2.79241e+04
3.98349e-03,2.66198e+04
4.07271e-03,2.53748e+04
4.16393e-03,2.41863e+04
4.25719e-03,2.30519e+04
4.35254e-03,2.19691e+04
4.45002e-03,2.09356e+04
4.54969e-03,1.99493e+04
4.65159e-03,1.90080e+04
4.75578e-03,1.81096e+04
4.86229e-03,1.72524e+04
4.97120e-03,1.64343e+04
5.08254e-03,1.56537e+04
5.19637e-03,1.49089e+04
5.31276e-03,1.41983e+04
5.43175e-03,1.35203e+04
5.55341e-03,1.28735e+04
5.67779e-03,1.22565e+04
5.80496e-03,1.16679e+04
5.93497e-03,1.11064e+04
6.06790e-03,1.05709e+04
6.20380e-03,1.00602e+04
6.34275e-03,9.57312e+03
6.48481e-03,9.10862e+03
6.63006e-03,8.66570e+03
6.77855e-03,8.24337e+03
6.93038e-03,7.84070e+03
7.08560e-03,7.45681e+03
7.24430e-03,7.09086e+03
7.40655e-03,6.74202e+03
7.57244e-03,6.40952e+03
7.74204e-03,6.09263e+03
7.91544e-03,5.79063e+03
8.09273e-03,5.50285e+03
8.27398e-03,5.22865e+03
8.45930e-03,4.96741e+03
8.64876e-03,4.71853e+03
8.84247e-03,4.48147e+03
9.04052e-03,4.25567e+03
9.24300e-03,4.04062e+03
9.45002e-03,3.83584e+03
9.66168e-03,3.64086e+03
9.87808e-03,3.45522e+03
1.00993e-02,3.27850e+03
1.03255e-02,3.11029e+03
1.05568e-02,2.95020e+03
1.07932e-02,2.79786e+03
1.10350e-02,2.65290e+03
1.12821e-02,2.51500e+03
1.15348e-02,2.38382e+03
1.17932e-02,2.25906e+03
1.20573e-02,2.14041e+03
1.23273e-02,2.02759e+03
1.26034e-02,1.92034e+03
1.28857e-02,1.81839e+03
1.31743e-02,1.72150e+03
1.34694e-02,1.62942e+03
1.37711e-02,1.54195e+03
1.40795e-02,1.45885e+03
1.43949e-02,1.37992e+03
1.47173e-02,1.30498e+03
1.50469e-02,1.23382e+03
1.53839e-02,1.16628e+03
1.57285e-02,1.10217e+03
1.60807e-02,1.04134e+03
1.64409e-02,9.83636e+02
1.68091e-02,9.28899e+02
1.71856e-02,8.76992e+02
1.75705e-02,8.27778e+02
1.79641e-02,7.81128e+02
1.83664e-02,7.36918e+02
1.87778e-02,6.95030e+02
1.91984e-02,6.55351e+02
1.96283e-02,6.17773e+02
2.00680e-02,5.82194e+02
2.05174e-02,5.48515e+02
2.09770e-02,5.16643e+02
2.14468e-02,4.86488e+02
2.19272e-02,4.57966e+02
2.24183e-02,4.30994e+02
2.29204e-02,4.05496e+02
2.34337e-02,3.81398e+02
2.39586e-02,3.58628e+02
2.44952e-02,3.37119e+02
2.50438e-02,3.16809e+02
2.56047e-02,2.97634e+02
2.61782e-02,2.79537e+02
2.67645e-02,2.62462e+02
2.73640e-02,2.46357e+02
2.79769e-02,2.31170e+02
2.86035e-02,2.16854e+02
2.92441e-02,2.03363e+02
2.98991e-02,1.90653e+02
3.05688e-02,1.78683e+02
3.12534e-02,1.67414e+02
3.19534e-02,1.56807e+02
3.26691e-02,1.46827e+02
3.34008e-02,1.37440e+02
3.41489e-02,1.28614e+02
3.49138e-02,1.20317e+02
3.56957e-02,1.12520e+02
3.64952e-02,1.05197e+02
3.73126e-02,9.83194e+01
3.81483e-02,9.18634e+01
3.90027e-02,8.58048e+01
3.98763e-02,8.01210e+01
4.07694e-02,7.47907e+01
4.16826e-02,6.97935e+01
4.26161e-02,6.51101e+01
4.35706e-02,6.07224e+01
4.45465e-02,5.66129e+01
4.55442e-02,5.27653e+01
4.65643e-02,4.91642e+01
4.76072e-02,4.57947e+01
4.86735e-02,4.26432e+01
4.97636e-02,3.96963e+01
5.08782e-02,3.69417e+01
5.20178e-02,3.43677e+01
5.31828e-02,3.19632e+01
5.43740e-02,2.97178e+01
5.55918e-02,2.76216e+01
5.68369e-02,2.56652e+01
5.81099e-02,2.38399e+01
5.94114e-02,2.21375e+01
6.07421e-02,2.05502e+01
6.21025e-02,1.90705e+01
6.34935e-02,1.76917e+01
6.49156e-02,1.64071e+01
6.63695e-02,1.52108e+01
6.78560e-02,1.40970e+01
6.93758e-02,1.30602e+01
7.09296e-02,1.20954e+01
7.25183e-02,1.11978e+01
7.41425e-02,1.03631e+01
7.58031e-02,9.58687e+00
7.75009e-02,8.86535e+00
7.92367e-02,8.19481e+00
8.10114e-02,7.57181e+00
8.28258e-02,6.99311e+00
8.46809e-02,6.45569e+00
8.65775e-02,5.95673e+00
8.85167e-02,5.49357e+00
9.04992e-02,5.06375e+00
9.25261e-02,4.66495e+00
9.45985e-02,4.29502e+00
9.67172e-02,3.95193e+00
9.88834e-02,3.63381e+00
1.01098e-01,3.33889e+00
1.03363e-01,3.06554e+00
1.05678e-01,2.81223e+00
1.08044e-01,2.57754e+00
1.10464e-01,2.36012e+00
1.12938e-01,2.15876e+00
1.15468e-01,1.97230e+00
1.18054e-01,1.79965e+00
1.20698e-01,1.63984e+00
1.23402e-01,1.49191e+00
1.26165e-01,1.35502e+00
1.28991e-01,1.22836e+00
1.31880e-01,1.11118e+00
1.34834e-01,1.00279e+00
1.37854e-01,9.02542e-01
1.40942e-01,8.09836e-01
1.44098e-01,7.24117e-01
1.47326e-01,6.44869e-01
1.50625e-01,5.71613e-01
1.53999e-01,5.03903e-01
1.57448e-01,4.41328e-01
1.60975e-01,3.83504e-01
1.64580e-01,3.30076e-01
1.68266e-01,2.80716e-01
1.72035e-01,2.35119e-01
1.75888e-01,1.93002e-01
1.79828e-01,1.54104e-01
1.83855e-01,1.18181e-01
1.87973e-01,8.50100e-02
1.92183e-01,5.43820e-02
1.96488e-01,2.61047e-02
2.00888e-01,0.00000e+00
