m1=11733.580, m2=14.927, gsp=2.138, rhosp=1063.293
fGW[Hz],dPh[rad]
4.43895e-03,9.70251e+02
4.53902e-03,9.21466e+02
4.64135e-03,8.75094e+02
4.74598e-03,8.31016e+02
4.85298e-03,7.89119e+02
4.96238e-03,7.49297e+02
5.07426e-03,7.11448e+02
5.18865e-03,6.75476e+02
5.30562e-03,6.41287e+02
5.42523e-03,6.08795e+02
5.54754e-03,5.77916e+02
5.67260e-03,5.48571e+02
5.80049e-03,5.20685e+02
5.93125e-03,4.94186e+02
6.06497e-03,4.69006e+02
6.20170e-03,4.45080e+02
6.34151e-03,4.22347e+02
6.48447e-03,4.00747e+02
6.63066e-03,3.80225e+02
6.78014e-03,3.60729e+02
6.93299e-03,3.42207e+02
7.08929e-03,3.24612e+02
7.24911e-03,3.07897e+02
7.41254e-03,2.92021e+02
7.57965e-03,2.76940e+02
7.75052e-03,2.62616e+02
7.92525e-03,2.49012e+02
8.10392e-03,2.36093e+02
8.28662e-03,2.23823e+02
8.47343e-03,2.12172e+02
8.66446e-03,2.01109e+02
8.85979e-03,1.90604e+02
9.05952e-03,1.80630e+02
9.26376e-03,1.71161e+02
9.47260e-03,1.62172e+02
9.68616e-03,1.53638e+02
9.90452e-03,1.45538e+02
1.01278e-02,1.37850e+02
1.03561e-02,1.30554e+02
1.05896e-02,1.23629e+02
1.08283e-02,1.17058e+02
1.10724e-02,1.10823e+02
1.13221e-02,1.04907e+02
1.15773e-02,9.92940e+01
1.18383e-02,9.39696e+01
1.21052e-02,8.89190e+01
1.23781e-02,8.41285e+01
1.26572e-02,7.95852e+01
1.29425e-02,7.52768e+01
1.32343e-02,7.11914e+01
1.35326e-02,6.73179e+01
1.38377e-02,6.36457e+01
1.41497e-02,6.01646e+01
1.44687e-02,5.68651e+01
1.47948e-02,5.37381e+01
1.51284e-02,5.07748e+01
1.54694e-02,4.79670e+01
1.58182e-02,4.53068e+01
1.61748e-02,4.27869e+01
1.65394e-02,4.04000e+01
1.69123e-02,3.81395e+01
1.72936e-02,3.59990e+01
1.76834e-02,3.39723e+01
1.80821e-02,3.20537e+01
1.84897e-02,3.02377e+01
1.89066e-02,2.85190e+01
1.93328e-02,2.68926e+01
1.97686e-02,2.53539e+01
2.02143e-02,2.38983e+01
2.06700e-02,2.25216e+01
2.11360e-02,2.12197e+01
2.16125e-02,1.99887e+01
2.20997e-02,1.88250e+01
2.25979e-02,1.77251e+01
2.31074e-02,1.66857e+01
2.36283e-02,1.57037e+01
2.41610e-02,1.47760e+01
2.47057e-02,1.38998e+01
2.52627e-02,1.30725e+01
2.58322e-02,1.22914e+01
2.64146e-02,1.15541e+01
2.70100e-02,1.08584e+01
2.76190e-02,1.02019e+01
2.82416e-02,9.58273e+00
2.88783e-02,8.99879e+00
2.95293e-02,8.44821e+00
3.01950e-02,7.92922e+00
3.08758e-02,7.44012e+00
3.15718e-02,6.97930e+00
3.22836e-02,6.54523e+00
3.30114e-02,6.13646e+00
3.37556e-02,5.75162e+00
3.45166e-02,5.38940e+00
3.52947e-02,5.04856e+00
3.60904e-02,4.72792e+00
3.69040e-02,4.42637e+00
3.77360e-02,4.14285e+00
3.85867e-02,3.87637e+00
3.94566e-02,3.62595e+00
4.03461e-02,3.39071e+00
4.12557e-02,3.16979e+00
4.21858e-02,2.96238e+00
4.31368e-02,2.76771e+00
4.41093e-02,2.58506e+00
4.51037e-02,2.41373e+00
4.61205e-02,2.25307e+00
4.71603e-02,2.10246e+00
4.82235e-02,1.96133e+00
4.93106e-02,1.82911e+00
5.04223e-02,1.70528e+00
5.15590e-02,1.58935e+00
5.27214e-02,1.48085e+00
5.39099e-02,1.37933e+00
5.51253e-02,1.28438e+00
5.63680e-02,1.19560e+00
5.76388e-02,1.11262e+00
5.89382e-02,1.03508e+00
6.02669e-02,9.62659e-01
6.16256e-02,8.95030e-01
6.30148e-02,8.31901e-01
6.44355e-02,7.72992e-01
6.58881e-02,7.18040e-01
6.73735e-02,6.66795e-01
6.88924e-02,6.19024e-01
7.04455e-02,5.74505e-01
7.20336e-02,5.33031e-01
7.36575e-02,4.94406e-01
7.53181e-02,4.58447e-01
7.70160e-02,4.24980e-01
7.87523e-02,3.93842e-01
8.05277e-02,3.64882e-01
8.23431e-02,3.37955e-01
8.41995e-02,3.12926e-01
8.60977e-02,2.89669e-01
8.80387e-02,2.68065e-01
9.00234e-02,2.48003e-01
9.20529e-02,2.29379e-01
9.41282e-02,2.12095e-01
9.62502e-02,1.96058e-01
9.84201e-02,1.81184e-01
1.00639e-01,1.67393e-01
1.02908e-01,1.54608e-01
1.05228e-01,1.42761e-01
1.07600e-01,1.31785e-01
1.10026e-01,1.21619e-01
1.12506e-01,1.12206e-01
1.15042e-01,1.03493e-01
1.17636e-01,9.54287e-02
1.20288e-01,8.79679e-02
1.23000e-01,8.10668e-02
1.25773e-01,7.46851e-02
1.28608e-01,6.87852e-02
1.31507e-01,6.33319e-02
1.34472e-01,5.82926e-02
1.37504e-01,5.36370e-02
1.40604e-01,4.93369e-02
1.43773e-01,4.53660e-02
1.47015e-01,4.16998e-02
1.50329e-01,3.83157e-02
1.53718e-01,3.51927e-02
1.57183e-01,3.23112e-02
1.60727e-01,2.96531e-02
1.64350e-01,2.72014e-02
1.68055e-01,2.49407e-02
1.71844e-01,2.28564e-02
1.75718e-01,2.09350e-02
1.79680e-01,1.91643e-02
1.83730e-01,1.75325e-02
1.87872e-01,1.60292e-02
1.92108e-01,1.46443e-02
1.96439e-01,1.33688e-02
2.00867e-01,1.21942e-02
2.05396e-01,1.11127e-02
2.10026e-01,1.01170e-02
2.14761e-01,9.20056e-03
2.19602e-01,8.35705e-03
2.24553e-01,7.58083e-03
2.29616e-01,6.86661e-03
2.34792e-01,6.20953e-03
2.40085e-01,5.60509e-03
2.45498e-01,5.04914e-03
2.51032e-01,4.53784e-03
2.56691e-01,4.06767e-03
2.62478e-01,3.63536e-03
2.68396e-01,3.23790e-03
2.74446e-01,2.87253e-03
2.80634e-01,2.53669e-03
2.86960e-01,2.22801e-03
2.93429e-01,1.94434e-03
3.00045e-01,1.68366e-03
3.06809e-01,1.44413e-03
3.13725e-01,1.22406e-03
3.20798e-01,1.02188e-03
3.28030e-01,8.36159e-04
3.35425e-01,6.65560e-04
3.42987e-01,5.08868e-04
3.50720e-01,3.64959e-04
3.58626e-01,2.32799e-04
3.66711e-01,1.11438e-04
3.74978e-01,0.00000e+00
