m1=197363.469, m2=30.165, gsp=2.030, rhosp=113.156
fGW[Hz],dPh[rad]
1.68341e-03,8.99220e+01
1.70540e-03,8.60238e+01
1.72768e-03,8.22867e+01
1.75025e-03,7.87044e+01
1.77312e-03,7.52710e+01
1.79628e-03,7.19806e+01
1.81975e-03,6.88276e+01
1.84352e-03,6.58065e+01
1.86761e-03,6.29123e+01
1.89200e-03,6.01398e+01
1.91672e-03,5.74843e+01
1.94176e-03,5.49410e+01
1.96713e-03,5.25056e+01
1.99283e-03,5.01736e+01
2.01886e-03,4.79409e+01
2.04523e-03,4.58036e+01
2.07195e-03,4.37577e+01
2.09902e-03,4.17995e+01
2.12644e-03,3.99256e+01
2.15422e-03,3.81324e+01
2.18237e-03,3.64167e+01
2.21088e-03,3.47752e+01
2.23976e-03,3.32050e+01
2.26902e-03,3.17030e+01
2.29866e-03,3.02665e+01
2.32869e-03,2.88928e+01
2.35911e-03,2.75792e+01
2.38993e-03,2.63232e+01
2.42115e-03,2.51224e+01
2.45278e-03,2.39746e+01
2.48483e-03,2.28774e+01
2.51729e-03,2.18288e+01
2.55017e-03,2.08266e+01
2.58349e-03,1.98690e+01
2.61724e-03,1.89540e+01
2.65143e-03,1.80798e+01
2.68607e-03,1.72446e+01
2.72116e-03,1.64469e+01
2.75671e-03,1.56849e+01
2.79272e-03,1.49572e+01
2.82921e-03,1.42623e+01
2.86617e-03,1.35987e+01
2.90361e-03,1.29651e+01
2.94154e-03,1.23602e+01
2.97997e-03,1.17828e+01
3.01890e-03,1.12316e+01
3.05834e-03,1.07054e+01
3.09830e-03,1.02033e+01
3.13877e-03,9.72411e+00
3.17978e-03,9.26684e+00
3.22132e-03,8.83052e+00
3.26340e-03,8.41423e+00
3.30603e-03,8.01708e+00
3.34922e-03,7.63822e+00
3.39298e-03,7.27684e+00
3.43730e-03,6.93215e+00
3.48221e-03,6.60341e+00
3.52770e-03,6.28990e+00
3.57379e-03,5.99093e+00
3.62047e-03,5.70586e+00
3.66777e-03,5.43406e+00
3.71569e-03,5.17493e+00
3.76423e-03,4.92789e+00
3.81340e-03,4.69239e+00
3.86322e-03,4.46792e+00
3.91369e-03,4.25396e+00
3.96482e-03,4.05005e+00
4.01662e-03,3.85571e+00
4.06909e-03,3.67052e+00
4.12225e-03,3.49405e+00
4.17610e-03,3.32590e+00
4.23066e-03,3.16569e+00
4.28593e-03,3.01306e+00
4.34192e-03,2.86764e+00
4.39864e-03,2.72912e+00
4.45610e-03,2.59717e+00
4.51432e-03,2.47149e+00
4.57329e-03,2.35179e+00
4.63304e-03,2.23778e+00
4.69356e-03,2.12920e+00
4.75488e-03,2.02580e+00
4.81700e-03,1.92734e+00
4.87993e-03,1.83358e+00
4.94368e-03,1.74431e+00
5.00826e-03,1.65932e+00
5.07369e-03,1.57840e+00
5.13997e-03,1.50136e+00
5.20712e-03,1.42802e+00
5.27515e-03,1.35821e+00
5.34406e-03,1.29175e+00
5.41388e-03,1.22850e+00
5.48460e-03,1.16829e+00
5.55625e-03,1.11099e+00
5.62884e-03,1.05646e+00
5.70238e-03,1.00456e+00
5.77687e-03,9.55168e-01
5.85234e-03,9.08168e-01
5.92879e-03,8.63445e-01
6.00625e-03,8.20889e-01
6.08471e-03,7.80398e-01
6.16420e-03,7.41872e-01
6.24473e-03,7.05218e-01
6.32631e-03,6.70345e-01
6.40896e-03,6.37169e-01
6.49269e-03,6.05608e-01
6.57751e-03,5.75584e-01
6.66344e-03,5.47024e-01
6.75049e-03,5.19857e-01
6.83867e-03,4.94016e-01
6.92802e-03,4.69437e-01
7.01852e-03,4.46059e-01
7.11021e-03,4.23824e-01
7.20310e-03,4.02677e-01
7.29720e-03,3.82565e-01
7.39253e-03,3.63438e-01
7.48911e-03,3.45249e-01
7.58694e-03,3.27951e-01
7.68606e-03,3.11502e-01
7.78647e-03,2.95861e-01
7.88819e-03,2.80988e-01
7.99124e-03,2.66845e-01
8.09564e-03,2.53398e-01
8.20140e-03,2.40613e-01
8.30855e-03,2.28456e-01
8.41709e-03,2.16898e-01
8.52705e-03,2.05909e-01
8.63845e-03,1.95462e-01
8.75130e-03,1.85530e-01
8.86562e-03,1.76087e-01
8.98144e-03,1.67111e-01
9.09878e-03,1.58578e-01
9.21764e-03,1.50466e-01
9.33806e-03,1.42754e-01
9.46006e-03,1.35424e-01
9.58364e-03,1.28456e-01
9.70884e-03,1.21833e-01
9.83568e-03,1.15538e-01
9.96417e-03,1.09554e-01
1.00943e-02,1.03866e-01
1.02262e-02,9.84603e-02
1.03598e-02,9.33222e-02
1.04951e-02,8.84388e-02
1.06323e-02,8.37974e-02
1.07712e-02,7.93863e-02
1.09119e-02,7.51940e-02
1.10544e-02,7.12097e-02
1.11988e-02,6.74232e-02
1.13451e-02,6.38247e-02
1.14934e-02,6.04050e-02
1.16435e-02,5.71551e-02
1.17956e-02,5.40668e-02
1.19497e-02,5.11319e-02
1.21058e-02,4.83430e-02
1.22640e-02,4.56928e-02
1.24242e-02,4.31745e-02
1.25865e-02,4.07815e-02
1.27509e-02,3.85075e-02
1.29175e-02,3.63468e-02
1.30863e-02,3.42937e-02
1.32572e-02,3.23428e-02
1.34304e-02,3.04891e-02
1.36059e-02,2.87278e-02
1.37836e-02,2.70543e-02
1.39637e-02,2.54642e-02
1.41461e-02,2.39534e-02
1.43309e-02,2.25180e-02
1.45181e-02,2.11541e-02
1.47078e-02,1.98583e-02
1.48999e-02,1.86271e-02
1.50946e-02,1.74574e-02
1.52918e-02,1.63461e-02
1.54915e-02,1.52903e-02
1.56939e-02,1.42872e-02
1.58989e-02,1.33342e-02
1.61067e-02,1.24288e-02
1.63171e-02,1.15687e-02
1.65302e-02,1.07515e-02
1.67462e-02,9.97517e-03
1.69650e-02,9.23764e-03
1.71866e-02,8.53699e-03
1.74111e-02,7.87136e-03
1.76386e-02,7.23903e-03
1.78690e-02,6.63832e-03
1.81024e-02,6.06767e-03
1.83389e-02,5.52556e-03
1.85785e-02,5.01057e-03
1.88212e-02,4.52136e-03
1.90671e-02,4.05663e-03
1.93162e-02,3.61517e-03
1.95685e-02,3.19580e-03
1.98242e-02,2.79744e-03
2.00832e-02,2.41902e-03
2.03455e-02,2.05955e-03
2.06113e-02,1.71808e-03
2.08806e-02,1.39372e-03
2.11534e-02,1.08561e-03
2.14297e-02,7.92933e-04
2.17097e-02,5.14923e-04
2.19933e-02,2.50844e-04
2.22806e-02,0.00000e+00
