m1=991908.890, m2=99.616, gsp=2.063, rhosp=1628.719
fGW[Hz],dPh[rad]
7.18332e-04,1.09103e+02
7.24931e-04,1.05388e+02
7.31591e-04,1.01797e+02
7.38313e-04,9.83261e+01
7.45096e-04,9.49717e+01
7.51941e-04,9.17298e+01
7.58850e-04,8.85968e+01
7.65822e-04,8.55689e+01
7.72857e-04,8.26428e+01
7.79958e-04,7.98151e+01
7.87124e-04,7.70825e+01
7.94355e-04,7.44421e+01
8.01653e-04,7.18906e+01
8.09018e-04,6.94252e+01
8.16451e-04,6.70430e+01
8.23952e-04,6.47413e+01
8.31522e-04,6.25174e+01
8.39161e-04,6.03687e+01
8.46871e-04,5.82927e+01
8.54651e-04,5.62871e+01
8.62503e-04,5.43495e+01
8.70427e-04,5.24775e+01
8.78424e-04,5.06691e+01
8.86495e-04,4.89221e+01
8.94639e-04,4.72345e+01
9.02859e-04,4.56043e+01
9.11153e-04,4.40295e+01
9.19524e-04,4.25083e+01
9.27972e-04,4.10390e+01
9.36498e-04,3.96197e+01
9.45102e-04,3.82488e+01
9.53785e-04,3.69248e+01
9.62548e-04,3.56459e+01
9.71391e-04,3.44107e+01
9.80315e-04,3.32177e+01
9.89322e-04,3.20656e+01
9.98411e-04,3.09528e+01
1.00758e-03,2.98782e+01
1.01684e-03,2.88404e+01
1.02618e-03,2.78381e+01
1.03561e-03,2.68702e+01
1.04513e-03,2.59355e+01
1.05473e-03,2.50329e+01
1.06442e-03,2.41613e+01
1.07420e-03,2.33197e+01
1.08407e-03,2.25069e+01
1.09402e-03,2.17221e+01
1.10408e-03,2.09644e+01
1.11422e-03,2.02327e+01
1.12446e-03,1.95262e+01
1.13479e-03,1.88440e+01
1.14521e-03,1.81854e+01
1.15573e-03,1.75495e+01
1.16635e-03,1.69355e+01
1.17707e-03,1.63427e+01
1.18788e-03,1.57704e+01
1.19880e-03,1.52178e+01
1.20981e-03,1.46844e+01
1.22092e-03,1.41694e+01
1.23214e-03,1.36722e+01
1.24346e-03,1.31922e+01
1.25489e-03,1.27288e+01
1.26641e-03,1.22814e+01
1.27805e-03,1.18496e+01
1.28979e-03,1.14327e+01
1.30164e-03,1.10303e+01
1.31360e-03,1.06418e+01
1.32567e-03,1.02668e+01
1.33785e-03,9.90479e+00
1.35014e-03,9.55536e+00
1.36254e-03,9.21807e+00
1.37506e-03,8.89250e+00
1.38769e-03,8.57824e+00
1.40044e-03,8.27490e+00
1.41331e-03,7.98212e+00
1.42629e-03,7.69951e+00
1.43940e-03,7.42674e+00
1.45262e-03,7.16346e+00
1.46597e-03,6.90935e+00
1.47944e-03,6.66408e+00
1.49303e-03,6.42736e+00
1.50675e-03,6.19889e+00
1.52059e-03,5.97839e+00
1.53456e-03,5.76557e+00
1.54866e-03,5.56017e+00
1.56288e-03,5.36194e+00
1.57724e-03,5.17063e+00
1.59173e-03,4.98599e+00
1.60636e-03,4.80780e+00
1.62112e-03,4.63583e+00
1.63601e-03,4.46987e+00
1.65104e-03,4.30971e+00
1.66621e-03,4.15515e+00
1.68152e-03,4.00599e+00
1.69697e-03,3.86204e+00
1.71256e-03,3.72313e+00
1.72829e-03,3.58908e+00
1.74417e-03,3.45972e+00
1.76019e-03,3.33489e+00
1.77636e-03,3.21443e+00
1.79268e-03,3.09819e+00
1.80915e-03,2.98601e+00
1.82578e-03,2.87777e+00
1.84255e-03,2.77332e+00
1.85948e-03,2.67253e+00
1.87656e-03,2.57528e+00
1.89380e-03,2.48143e+00
1.91120e-03,2.39087e+00
1.92876e-03,2.30349e+00
1.94648e-03,2.21918e+00
1.96436e-03,2.13782e+00
1.98241e-03,2.05932e+00
2.00062e-03,1.98358e+00
2.01900e-03,1.91049e+00
2.03755e-03,1.83998e+00
2.05627e-03,1.77193e+00
2.07516e-03,1.70628e+00
2.09423e-03,1.64294e+00
2.11347e-03,1.58182e+00
2.13289e-03,1.52284e+00
2.15248e-03,1.46595e+00
2.17226e-03,1.41105e+00
2.19221e-03,1.35808e+00
2.21236e-03,1.30698e+00
2.23268e-03,1.25767e+00
2.25319e-03,1.21010e+00
2.27389e-03,1.16420e+00
2.29478e-03,1.11991e+00
2.31587e-03,1.07719e+00
2.33714e-03,1.03597e+00
2.35862e-03,9.96198e-01
2.38029e-03,9.57829e-01
2.40215e-03,9.20811e-01
2.42422e-03,8.85097e-01
2.44650e-03,8.50641e-01
2.46897e-03,8.17399e-01
2.49166e-03,7.85328e-01
2.51455e-03,7.54387e-01
2.53765e-03,7.24537e-01
2.56096e-03,6.95739e-01
2.58449e-03,6.67957e-01
2.60824e-03,6.41154e-01
2.63220e-03,6.15296e-01
2.65638e-03,5.90350e-01
2.68079e-03,5.66283e-01
2.70542e-03,5.43066e-01
2.73027e-03,5.20668e-01
2.75536e-03,4.99060e-01
2.78067e-03,4.78215e-01
2.80622e-03,4.58105e-01
2.83200e-03,4.38705e-01
2.85802e-03,4.19990e-01
2.88427e-03,4.01936e-01
2.91077e-03,3.84519e-01
2.93752e-03,3.67717e-01
2.96450e-03,3.51508e-01
2.99174e-03,3.35872e-01
3.01923e-03,3.20788e-01
3.04696e-03,3.06237e-01
3.07496e-03,2.92200e-01
3.10321e-03,2.78658e-01
3.13172e-03,2.65596e-01
3.16049e-03,2.52995e-01
3.18953e-03,2.40839e-01
3.21883e-03,2.29113e-01
3.24840e-03,2.17801e-01
3.27825e-03,2.06889e-01
3.30837e-03,1.96363e-01
3.33876e-03,1.86209e-01
3.36943e-03,1.76414e-01
3.40039e-03,1.66965e-01
3.43163e-03,1.57851e-01
3.46316e-03,1.49059e-01
3.49498e-03,1.40578e-01
3.52709e-03,1.32397e-01
3.55949e-03,1.24505e-01
3.59219e-03,1.16893e-01
3.62519e-03,1.09549e-01
3.65850e-03,1.02466e-01
3.69211e-03,9.56332e-02
3.72603e-03,8.90422e-02
3.76027e-03,8.26845e-02
3.79481e-03,7.65518e-02
3.82968e-03,7.06362e-02
3.86486e-03,6.49299e-02
3.90037e-03,5.94257e-02
3.93620e-03,5.41163e-02
3.97237e-03,4.89949e-02
4.00886e-03,4.40548e-02
4.04569e-03,3.92896e-02
4.08286e-03,3.46931e-02
4.12037e-03,3.02595e-02
4.15823e-03,2.59828e-02
4.19643e-03,2.18576e-02
4.23498e-03,1.78785e-02
4.27389e-03,1.40403e-02
4.31316e-03,1.03381e-02
4.35278e-03,6.76707e-03
4.39277e-03,3.32252e-03
4.43313e-03,0.00000e+00
