m1=233936.447, m2=66.306, gsp=2.492, rhosp=222.662
fGW[Hz],dPh[rad]
1.20080e-03,2.15288e+05
1.21751e-03,2.06774e+05
1.23446e-03,1.98575e+05
1.25164e-03,1.90678e+05
1.26906e-03,1.83074e+05
1.28673e-03,1.75753e+05
1.30464e-03,1.68705e+05
1.32280e-03,1.61922e+05
1.34121e-03,1.55392e+05
1.35988e-03,1.49110e+05
1.37880e-03,1.43064e+05
1.39800e-03,1.37248e+05
1.41745e-03,1.31654e+05
1.43718e-03,1.26273e+05
1.45719e-03,1.21098e+05
1.47747e-03,1.16122e+05
1.49804e-03,1.11338e+05
1.51889e-03,1.06739e+05
1.54003e-03,1.02319e+05
1.56146e-03,9.80702e+04
1.58320e-03,9.39878e+04
1.60524e-03,9.00653e+04
1.62758e-03,8.62970e+04
1.65023e-03,8.26774e+04
1.67320e-03,7.92008e+04
1.69649e-03,7.58623e+04
1.72011e-03,7.26566e+04
1.74405e-03,6.95788e+04
1.76832e-03,6.66244e+04
1.79294e-03,6.37886e+04
1.81789e-03,6.10671e+04
1.84320e-03,5.84555e+04
1.86885e-03,5.59499e+04
1.89487e-03,5.35460e+04
1.92124e-03,5.12402e+04
1.94798e-03,4.90287e+04
1.97510e-03,4.69079e+04
2.00259e-03,4.48743e+04
2.03046e-03,4.29246e+04
2.05872e-03,4.10555e+04
2.08738e-03,3.92640e+04
2.11643e-03,3.75470e+04
2.14589e-03,3.59016e+04
2.17576e-03,3.43251e+04
2.20605e-03,3.28146e+04
2.23675e-03,3.13677e+04
2.26789e-03,2.99818e+04
2.29945e-03,2.86545e+04
2.33146e-03,2.73834e+04
2.36391e-03,2.61664e+04
2.39681e-03,2.50012e+04
2.43017e-03,2.38857e+04
2.46400e-03,2.28181e+04
2.49830e-03,2.17962e+04
2.53307e-03,2.08183e+04
2.56833e-03,1.98826e+04
2.60408e-03,1.89874e+04
2.64032e-03,1.81309e+04
2.67707e-03,1.73117e+04
2.71434e-03,1.65281e+04
2.75212e-03,1.57787e+04
2.79043e-03,1.50621e+04
2.82927e-03,1.43769e+04
2.86865e-03,1.37218e+04
2.90857e-03,1.30955e+04
2.94906e-03,1.24968e+04
2.99011e-03,1.19247e+04
3.03173e-03,1.13778e+04
3.07393e-03,1.08553e+04
3.11671e-03,1.03559e+04
3.16009e-03,9.87888e+03
3.20408e-03,9.42311e+03
3.24868e-03,8.98773e+03
3.29390e-03,8.57187e+03
3.33974e-03,8.17468e+03
3.38623e-03,7.79536e+03
3.43336e-03,7.43314e+03
3.48115e-03,7.08727e+03
3.52961e-03,6.75705e+03
3.57874e-03,6.44178e+03
3.62855e-03,6.14083e+03
3.67905e-03,5.85356e+03
3.73026e-03,5.57937e+03
3.78218e-03,5.31768e+03
3.83483e-03,5.06795e+03
3.88821e-03,4.82964e+03
3.94233e-03,4.60226e+03
3.99720e-03,4.38531e+03
4.05284e-03,4.17833e+03
4.10925e-03,3.98088e+03
4.16645e-03,3.79253e+03
4.22444e-03,3.61288e+03
4.28324e-03,3.44153e+03
4.34286e-03,3.27811e+03
4.40331e-03,3.12227e+03
4.46460e-03,2.97366e+03
4.52674e-03,2.83195e+03
4.58975e-03,2.69684e+03
4.65363e-03,2.56803e+03
4.71841e-03,2.44522e+03
4.78408e-03,2.32815e+03
4.85067e-03,2.21656e+03
4.91819e-03,2.11019e+03
4.98665e-03,2.00880e+03
5.05606e-03,1.91217e+03
5.12643e-03,1.82008e+03
5.19779e-03,1.73232e+03
5.27013e-03,1.64869e+03
5.34349e-03,1.56901e+03
5.41787e-03,1.49308e+03
5.49328e-03,1.42073e+03
5.56974e-03,1.35181e+03
5.64726e-03,1.28615e+03
5.72587e-03,1.22359e+03
5.80557e-03,1.16400e+03
5.88638e-03,1.10724e+03
5.96831e-03,1.05317e+03
6.05138e-03,1.00168e+03
6.13561e-03,9.52628e+02
6.22101e-03,9.05915e+02
6.30760e-03,8.61427e+02
6.39540e-03,8.19061e+02
6.48442e-03,7.78717e+02
6.57467e-03,7.40300e+02
6.66619e-03,7.03718e+02
6.75898e-03,6.68887e+02
6.85305e-03,6.35723e+02
6.94844e-03,6.04147e+02
7.04516e-03,5.74084e+02
7.14322e-03,5.45464e+02
7.24265e-03,5.18218e+02
7.34346e-03,4.92280e+02
7.44567e-03,4.67589e+02
7.54931e-03,4.44085e+02
7.65439e-03,4.21712e+02
7.76093e-03,4.00417e+02
7.86895e-03,3.80147e+02
7.97848e-03,3.60855e+02
8.08954e-03,3.42493e+02
8.20213e-03,3.25017e+02
8.31630e-03,3.08386e+02
8.43206e-03,2.92558e+02
8.54942e-03,2.77494e+02
8.66842e-03,2.63160e+02
8.78908e-03,2.49519e+02
8.91141e-03,2.36539e+02
9.03545e-03,2.24187e+02
9.16122e-03,2.12434e+02
9.28873e-03,2.01250e+02
9.41802e-03,1.90609e+02
9.54911e-03,1.80485e+02
9.68203e-03,1.70852e+02
9.81679e-03,1.61686e+02
9.95343e-03,1.52967e+02
1.00920e-02,1.44670e+02
1.02324e-02,1.36778e+02
1.03749e-02,1.29269e+02
1.05193e-02,1.22126e+02
1.06657e-02,1.15330e+02
1.08142e-02,1.08865e+02
1.09647e-02,1.02716e+02
1.11173e-02,9.68658e+01
1.12720e-02,9.13009e+01
1.14289e-02,8.60075e+01
1.15880e-02,8.09723e+01
1.17493e-02,7.61828e+01
1.19129e-02,7.16270e+01
1.20787e-02,6.72938e+01
1.22468e-02,6.31722e+01
1.24173e-02,5.92519e+01
1.25901e-02,5.55233e+01
1.27653e-02,5.19769e+01
1.29430e-02,4.86039e+01
1.31232e-02,4.53959e+01
1.33058e-02,4.23449e+01
1.34910e-02,3.94432e+01
1.36788e-02,3.66835e+01
1.38692e-02,3.40589e+01
1.40623e-02,3.15629e+01
1.42580e-02,2.91891e+01
1.44565e-02,2.69316e+01
1.46577e-02,2.47848e+01
1.48617e-02,2.27432e+01
1.50686e-02,2.08017e+01
1.52783e-02,1.89554e+01
1.54910e-02,1.71997e+01
1.57066e-02,1.55301e+01
1.59252e-02,1.39424e+01
1.61469e-02,1.24326e+01
1.63716e-02,1.09970e+01
1.65995e-02,9.63182e+00
1.68305e-02,8.33370e+00
1.70648e-02,7.09933e+00
1.73023e-02,5.92559e+00
1.75432e-02,4.80952e+00
1.77873e-02,3.74829e+00
1.80349e-02,2.73922e+00
1.82860e-02,1.77975e+00
1.85405e-02,8.67446e-01
1.87985e-02,0.00000e+00
