m1=39067.195, m2=56.977, gsp=2.301, rhosp=1129.082
fGW[Hz],dPh[rad]
1.98861e-03,9.33576e+03
2.02936e-03,8.91953e+03
2.07094e-03,8.52136e+03
2.11338e-03,8.14047e+03
2.15669e-03,7.77613e+03
2.20088e-03,7.42763e+03
2.24598e-03,7.09429e+03
2.29201e-03,6.77547e+03
2.33898e-03,6.47054e+03
2.38691e-03,6.17891e+03
2.43582e-03,5.90001e+03
2.48573e-03,5.63329e+03
2.53667e-03,5.37823e+03
2.58865e-03,5.13434e+03
2.64170e-03,4.90114e+03
2.69583e-03,4.67816e+03
2.75108e-03,4.46496e+03
2.80745e-03,4.26114e+03
2.86498e-03,4.06628e+03
2.92369e-03,3.88000e+03
2.98360e-03,3.70193e+03
3.04474e-03,3.53172e+03
3.10714e-03,3.36903e+03
3.17081e-03,3.21354e+03
3.23579e-03,3.06493e+03
3.30209e-03,2.92292e+03
3.36976e-03,2.78721e+03
3.43881e-03,2.65753e+03
3.50928e-03,2.53363e+03
3.58119e-03,2.41525e+03
3.65458e-03,2.30216e+03
3.72947e-03,2.19413e+03
3.80589e-03,2.09093e+03
3.88389e-03,1.99236e+03
3.96347e-03,1.89822e+03
4.04469e-03,1.80831e+03
4.12758e-03,1.72246e+03
4.21216e-03,1.64048e+03
4.29848e-03,1.56221e+03
4.38656e-03,1.48748e+03
4.47645e-03,1.41615e+03
4.56818e-03,1.34806e+03
4.66179e-03,1.28307e+03
4.75732e-03,1.22105e+03
4.85481e-03,1.16187e+03
4.95430e-03,1.10540e+03
5.05582e-03,1.05152e+03
5.15942e-03,1.00012e+03
5.26515e-03,9.51093e+02
5.37304e-03,9.04333e+02
5.48315e-03,8.59739e+02
5.59551e-03,8.17216e+02
5.71017e-03,7.76673e+02
5.82719e-03,7.38022e+02
5.94660e-03,7.01180e+02
6.06846e-03,6.66065e+02
6.19281e-03,6.32602e+02
6.31971e-03,6.00717e+02
6.44922e-03,5.70340e+02
6.58138e-03,5.41402e+02
6.71624e-03,5.13841e+02
6.85387e-03,4.87593e+02
6.99432e-03,4.62601e+02
7.13765e-03,4.38807e+02
7.28392e-03,4.16158e+02
7.43318e-03,3.94602e+02
7.58550e-03,3.74090e+02
7.74094e-03,3.54574e+02
7.89957e-03,3.36008e+02
8.06145e-03,3.18350e+02
8.22664e-03,3.01558e+02
8.39522e-03,2.85592e+02
8.56726e-03,2.70415e+02
8.74282e-03,2.55990e+02
8.92198e-03,2.42283e+02
9.10481e-03,2.29259e+02
9.29138e-03,2.16888e+02
9.48178e-03,2.05140e+02
9.67609e-03,1.93984e+02
9.87437e-03,1.83393e+02
1.00767e-02,1.73341e+02
1.02832e-02,1.63803e+02
1.04939e-02,1.54753e+02
1.07090e-02,1.46169e+02
1.09284e-02,1.38029e+02
1.11524e-02,1.30311e+02
1.13809e-02,1.22996e+02
1.16141e-02,1.16063e+02
1.18521e-02,1.09494e+02
1.20950e-02,1.03273e+02
1.23428e-02,9.73803e+01
1.25958e-02,9.18017e+01
1.28539e-02,8.65212e+01
1.31173e-02,8.15243e+01
1.33861e-02,7.67968e+01
1.36604e-02,7.23253e+01
1.39403e-02,6.80971e+01
1.42260e-02,6.41000e+01
1.45175e-02,6.03222e+01
1.48150e-02,5.67528e+01
1.51186e-02,5.33810e+01
1.54284e-02,5.01968e+01
1.57446e-02,4.71906e+01
1.60672e-02,4.43531e+01
1.63965e-02,4.16756e+01
1.67325e-02,3.91499e+01
1.70753e-02,3.67678e+01
1.74252e-02,3.45219e+01
1.77823e-02,3.24050e+01
1.81467e-02,3.04102e+01
1.85186e-02,2.85310e+01
1.88981e-02,2.67612e+01
1.92853e-02,2.50948e+01
1.96805e-02,2.35263e+01
2.00838e-02,2.20503e+01
2.04954e-02,2.06617e+01
2.09154e-02,1.93558e+01
2.13440e-02,1.81279e+01
2.17814e-02,1.69737e+01
2.22277e-02,1.58891e+01
2.26832e-02,1.48702e+01
2.31480e-02,1.39131e+01
2.36224e-02,1.30146e+01
2.41064e-02,1.21711e+01
2.46004e-02,1.13795e+01
2.51045e-02,1.06369e+01
2.56190e-02,9.94030e+00
2.61440e-02,9.28714e+00
2.66797e-02,8.67483e+00
2.72264e-02,8.10097e+00
2.77844e-02,7.56329e+00
2.83537e-02,7.05962e+00
2.89347e-02,6.58794e+00
2.95277e-02,6.14633e+00
3.01328e-02,5.73297e+00
3.07502e-02,5.34614e+00
3.13804e-02,4.98425e+00
3.20234e-02,4.64574e+00
3.26797e-02,4.32920e+00
3.33493e-02,4.03327e+00
3.40327e-02,3.75666e+00
3.47301e-02,3.49817e+00
3.54418e-02,3.25667e+00
3.61681e-02,3.03110e+00
3.69092e-02,2.82044e+00
3.76656e-02,2.62376e+00
3.84374e-02,2.44016e+00
3.92251e-02,2.26881e+00
4.00289e-02,2.10893e+00
4.08492e-02,1.95977e+00
4.16863e-02,1.82065e+00
4.25405e-02,1.69092e+00
4.34122e-02,1.56996e+00
4.43019e-02,1.45720e+00
4.52097e-02,1.35210e+00
4.61361e-02,1.25417e+00
4.70816e-02,1.16293e+00
4.80463e-02,1.07793e+00
4.90309e-02,9.98763e-01
5.00357e-02,9.25042e-01
5.10610e-02,8.56402e-01
5.21073e-02,7.92502e-01
5.31751e-02,7.33025e-01
5.42648e-02,6.77672e-01
5.53768e-02,6.26166e-01
5.65116e-02,5.78244e-01
5.76696e-02,5.33665e-01
5.88514e-02,4.92201e-01
6.00574e-02,4.53639e-01
6.12881e-02,4.17781e-01
6.25440e-02,3.84441e-01
6.38256e-02,3.53447e-01
6.51336e-02,3.24636e-01
6.64683e-02,2.97859e-01
6.78304e-02,2.72974e-01
6.92203e-02,2.49850e-01
7.06388e-02,2.28366e-01
7.20863e-02,2.08406e-01
7.35635e-02,1.89865e-01
7.50710e-02,1.72643e-01
7.66094e-02,1.56649e-01
7.81793e-02,1.41796e-01
7.97813e-02,1.28003e-01
8.14162e-02,1.15197e-01
8.30846e-02,1.03308e-01
8.47871e-02,9.22709e-02
8.65246e-02,8.20258e-02
8.82977e-02,7.25165e-02
9.01071e-02,6.36909e-02
9.19536e-02,5.55005e-02
9.38379e-02,4.79001e-02
9.57608e-02,4.08477e-02
9.77231e-02,3.43042e-02
9.97257e-02,2.82334e-02
1.01769e-01,2.26014e-02
1.03855e-01,1.73769e-02
1.05983e-01,1.25307e-02
1.08155e-01,8.03563e-03
1.10371e-01,3.86654e-03
1.12633e-01,0.00000e+00
