m1=20890.430, m2=19.188, gsp=2.404, rhosp=15.775
fGW[Hz],dPh[rad]
3.49735e-03,4.75307e+04
3.57012e-03,4.54179e+04
3.64440e-03,4.33959e+04
3.72022e-03,4.14607e+04
3.79762e-03,3.96088e+04
3.87663e-03,3.78366e+04
3.95729e-03,3.61408e+04
4.03962e-03,3.45182e+04
4.12367e-03,3.29656e+04
4.20947e-03,3.14801e+04
4.29705e-03,3.00589e+04
4.38645e-03,2.86993e+04
4.47771e-03,2.73987e+04
4.57088e-03,2.61546e+04
4.66598e-03,2.49646e+04
4.76305e-03,2.38264e+04
4.86215e-03,2.27378e+04
4.96331e-03,2.16967e+04
5.06658e-03,2.07012e+04
5.17199e-03,1.97492e+04
5.27960e-03,1.88390e+04
5.38945e-03,1.79688e+04
5.50158e-03,1.71368e+04
5.61604e-03,1.63414e+04
5.73289e-03,1.55812e+04
5.85216e-03,1.48545e+04
5.97392e-03,1.41600e+04
6.09821e-03,1.34963e+04
6.22509e-03,1.28621e+04
6.35461e-03,1.22560e+04
6.48682e-03,1.16771e+04
6.62178e-03,1.11239e+04
6.75955e-03,1.05955e+04
6.90019e-03,1.00909e+04
7.04375e-03,9.60886e+03
7.19030e-03,9.14856e+03
7.33990e-03,8.70903e+03
7.49261e-03,8.28938e+03
7.64850e-03,7.88875e+03
7.80764e-03,7.50633e+03
7.97008e-03,7.14132e+03
8.13590e-03,6.79297e+03
8.30517e-03,6.46056e+03
8.47797e-03,6.14341e+03
8.65436e-03,5.84084e+03
8.83442e-03,5.55222e+03
9.01823e-03,5.27695e+03
9.20586e-03,5.01445e+03
9.39739e-03,4.76415e+03
9.59291e-03,4.52552e+03
9.79250e-03,4.29805e+03
9.99624e-03,4.08125e+03
1.02042e-02,3.87465e+03
1.04165e-02,3.67780e+03
1.06332e-02,3.49027e+03
1.08545e-02,3.31165e+03
1.10803e-02,3.14154e+03
1.13108e-02,2.97956e+03
1.15462e-02,2.82535e+03
1.17864e-02,2.67856e+03
1.20316e-02,2.53887e+03
1.22820e-02,2.40594e+03
1.25375e-02,2.27948e+03
1.27983e-02,2.15920e+03
1.30646e-02,2.04481e+03
1.33364e-02,1.93605e+03
1.36139e-02,1.83267e+03
1.38972e-02,1.73440e+03
1.41863e-02,1.64103e+03
1.44814e-02,1.55232e+03
1.47827e-02,1.46807e+03
1.50903e-02,1.38806e+03
1.54043e-02,1.31210e+03
1.57248e-02,1.23999e+03
1.60519e-02,1.17157e+03
1.63859e-02,1.10665e+03
1.67268e-02,1.04507e+03
1.70748e-02,9.86674e+02
1.74301e-02,9.31309e+02
1.77927e-02,8.78831e+02
1.81629e-02,8.29102e+02
1.85408e-02,7.81989e+02
1.89266e-02,7.37366e+02
1.93204e-02,6.95112e+02
1.97223e-02,6.55112e+02
2.01327e-02,6.17255e+02
2.05515e-02,5.81436e+02
2.09791e-02,5.47554e+02
2.14156e-02,5.15514e+02
2.18612e-02,4.85223e+02
2.23160e-02,4.56593e+02
2.27803e-02,4.29541e+02
2.32543e-02,4.03987e+02
2.37381e-02,3.79855e+02
2.42320e-02,3.57071e+02
2.47361e-02,3.35567e+02
2.52508e-02,3.15277e+02
2.57762e-02,2.96137e+02
2.63125e-02,2.78088e+02
2.68599e-02,2.61071e+02
2.74187e-02,2.45033e+02
2.79892e-02,2.29921e+02
2.85715e-02,2.15687e+02
2.91660e-02,2.02282e+02
2.97728e-02,1.89663e+02
3.03923e-02,1.77787e+02
3.10246e-02,1.66612e+02
3.16701e-02,1.56101e+02
3.23290e-02,1.46218e+02
3.30016e-02,1.36926e+02
3.36882e-02,1.28194e+02
3.43891e-02,1.19989e+02
3.51046e-02,1.12283e+02
3.58350e-02,1.05047e+02
3.65806e-02,9.82537e+01
3.73417e-02,9.18782e+01
3.81186e-02,8.58965e+01
3.89117e-02,8.02857e+01
3.97213e-02,7.50242e+01
4.05477e-02,7.00916e+01
4.13913e-02,6.54686e+01
4.22525e-02,6.11369e+01
4.31316e-02,5.70791e+01
4.40290e-02,5.32790e+01
4.49450e-02,4.97210e+01
4.58801e-02,4.63906e+01
4.68347e-02,4.32740e+01
4.78091e-02,4.03582e+01
4.88038e-02,3.76308e+01
4.98192e-02,3.50804e+01
5.08557e-02,3.26960e+01
5.19138e-02,3.04674e+01
5.29939e-02,2.83847e+01
5.40965e-02,2.64390e+01
5.52220e-02,2.46215e+01
5.63710e-02,2.29242e+01
5.75438e-02,2.13396e+01
5.87410e-02,1.98603e+01
5.99632e-02,1.84798e+01
6.12107e-02,1.71916e+01
6.24843e-02,1.59899e+01
6.37843e-02,1.48691e+01
6.51114e-02,1.38238e+01
6.64661e-02,1.28493e+01
6.78489e-02,1.19408e+01
6.92606e-02,1.10941e+01
7.07016e-02,1.03050e+01
7.21726e-02,9.56989e+00
7.36742e-02,8.88508e+00
7.52070e-02,8.24725e+00
7.67718e-02,7.65327e+00
7.83691e-02,7.10023e+00
7.99996e-02,6.58537e+00
8.16640e-02,6.10613e+00
8.33631e-02,5.66012e+00
8.50975e-02,5.24509e+00
8.68680e-02,4.85894e+00
8.86754e-02,4.49971e+00
9.05204e-02,4.16557e+00
9.24037e-02,3.85481e+00
9.43262e-02,3.56582e+00
9.62887e-02,3.29712e+00
9.82921e-02,3.04731e+00
1.00337e-01,2.81509e+00
1.02425e-01,2.59925e+00
1.04556e-01,2.39865e+00
1.06731e-01,2.21224e+00
1.08952e-01,2.03903e+00
1.11219e-01,1.87811e+00
1.13532e-01,1.72861e+00
1.15895e-01,1.58974e+00
1.18306e-01,1.46076e+00
1.20767e-01,1.34097e+00
1.23280e-01,1.22972e+00
1.25845e-01,1.12643e+00
1.28463e-01,1.03052e+00
1.31136e-01,9.41475e-01
1.33864e-01,8.58814e-01
1.36649e-01,7.82082e-01
1.39493e-01,7.10860e-01
1.42395e-01,6.44756e-01
1.45357e-01,5.83408e-01
1.48382e-01,5.26478e-01
1.51469e-01,4.73649e-01
1.54620e-01,4.24631e-01
1.57837e-01,3.79151e-01
1.61121e-01,3.36956e-01
1.64473e-01,2.97812e-01
1.67895e-01,2.61499e-01
1.71389e-01,2.27815e-01
1.74954e-01,1.96572e-01
1.78594e-01,1.67593e-01
1.82310e-01,1.40717e-01
1.86103e-01,1.15792e-01
1.89975e-01,9.26763e-02
1.93928e-01,7.12409e-02
1.97963e-01,5.13641e-02
2.02081e-01,3.29335e-02
2.06286e-01,1.58445e-02
2.10578e-01,0.00000e+00
