m1=34806.530, m2=11.013, gsp=2.121, rhosp=6571.792
fGW[Hz],dPh[rad]
3.79049e-03,2.82433e+03
3.85787e-03,2.69394e+03
3.92645e-03,2.56922e+03
3.99625e-03,2.44994e+03
4.06729e-03,2.33588e+03
4.13960e-03,2.22681e+03
4.21319e-03,2.12254e+03
4.28809e-03,2.02286e+03
4.36431e-03,1.92759e+03
4.44190e-03,1.83653e+03
4.52086e-03,1.74952e+03
4.60123e-03,1.66638e+03
4.68303e-03,1.58695e+03
4.76628e-03,1.51107e+03
4.85101e-03,1.43860e+03
4.93724e-03,1.36940e+03
5.02501e-03,1.30331e+03
5.11434e-03,1.24022e+03
5.20526e-03,1.17999e+03
5.29779e-03,1.12251e+03
5.39197e-03,1.06765e+03
5.48782e-03,1.01531e+03
5.58538e-03,9.65366e+02
5.68467e-03,9.17729e+02
5.78573e-03,8.72295e+02
5.88858e-03,8.28969e+02
5.99326e-03,7.87659e+02
6.09981e-03,7.48279e+02
6.20824e-03,7.10744e+02
6.31861e-03,6.74973e+02
6.43093e-03,6.40889e+02
6.54525e-03,6.08418e+02
6.66161e-03,5.77489e+02
6.78003e-03,5.48033e+02
6.90056e-03,5.19987e+02
7.02323e-03,4.93285e+02
7.14809e-03,4.67870e+02
7.27516e-03,4.43683e+02
7.40449e-03,4.20668e+02
7.53612e-03,3.98774e+02
7.67009e-03,3.77949e+02
7.80644e-03,3.58145e+02
7.94521e-03,3.39315e+02
8.08645e-03,3.21416e+02
8.23021e-03,3.04403e+02
8.37652e-03,2.88237e+02
8.52542e-03,2.72877e+02
8.67698e-03,2.58288e+02
8.83123e-03,2.44433e+02
8.98822e-03,2.31277e+02
9.14801e-03,2.18788e+02
9.31063e-03,2.06934e+02
9.47615e-03,1.95685e+02
9.64460e-03,1.85013e+02
9.81606e-03,1.74890e+02
9.99056e-03,1.65290e+02
1.01682e-02,1.56188e+02
1.03489e-02,1.47559e+02
1.05329e-02,1.39380e+02
1.07201e-02,1.31631e+02
1.09107e-02,1.24289e+02
1.11047e-02,1.17335e+02
1.13021e-02,1.10749e+02
1.15030e-02,1.04514e+02
1.17075e-02,9.86122e+01
1.19156e-02,9.30264e+01
1.21274e-02,8.77412e+01
1.23430e-02,8.27412e+01
1.25624e-02,7.80123e+01
1.27858e-02,7.35404e+01
1.30131e-02,6.93127e+01
1.32444e-02,6.53165e+01
1.34798e-02,6.15400e+01
1.37195e-02,5.79717e+01
1.39634e-02,5.46010e+01
1.42116e-02,5.14175e+01
1.44642e-02,4.84114e+01
1.47213e-02,4.55734e+01
1.49830e-02,4.28946e+01
1.52494e-02,4.03667e+01
1.55205e-02,3.79815e+01
1.57964e-02,3.57315e+01
1.60772e-02,3.36095e+01
1.63630e-02,3.16084e+01
1.66539e-02,2.97218e+01
1.69500e-02,2.79435e+01
1.72513e-02,2.62676e+01
1.75580e-02,2.46885e+01
1.78701e-02,2.32008e+01
1.81878e-02,2.17995e+01
1.85111e-02,2.04799e+01
1.88402e-02,1.92374e+01
1.91751e-02,1.80677e+01
1.95159e-02,1.69667e+01
1.98629e-02,1.59307e+01
2.02160e-02,1.49558e+01
2.05754e-02,1.40387e+01
2.09411e-02,1.31760e+01
2.13134e-02,1.23648e+01
2.16923e-02,1.16019e+01
2.20779e-02,1.08848e+01
2.24704e-02,1.02107e+01
2.28699e-02,9.57709e+00
2.32764e-02,8.98172e+00
2.36902e-02,8.42234e+00
2.41113e-02,7.89685e+00
2.45400e-02,7.40326e+00
2.49762e-02,6.93972e+00
2.54202e-02,6.50444e+00
2.58721e-02,6.09577e+00
2.63320e-02,5.71213e+00
2.68001e-02,5.35203e+00
2.72766e-02,5.01408e+00
2.77615e-02,4.69696e+00
2.82550e-02,4.39941e+00
2.87573e-02,4.12027e+00
2.92685e-02,3.85843e+00
2.97888e-02,3.61285e+00
3.03183e-02,3.38254e+00
3.08573e-02,3.16659e+00
3.14059e-02,2.96411e+00
3.19642e-02,2.77429e+00
3.25324e-02,2.59636e+00
3.31107e-02,2.42959e+00
3.36993e-02,2.27330e+00
3.42984e-02,2.12684e+00
3.49081e-02,1.98961e+00
3.55287e-02,1.86105e+00
3.61603e-02,1.74060e+00
3.68031e-02,1.62778e+00
3.74573e-02,1.52211e+00
3.81232e-02,1.42315e+00
3.88009e-02,1.33047e+00
3.94907e-02,1.24369e+00
4.01927e-02,1.16244e+00
4.09072e-02,1.08637e+00
4.16344e-02,1.01516e+00
4.23746e-02,9.48506e-01
4.31279e-02,8.86114e-01
4.38946e-02,8.27721e-01
4.46749e-02,7.73073e-01
4.54691e-02,7.21934e-01
4.62774e-02,6.74083e-01
4.71000e-02,6.29311e-01
4.79373e-02,5.87422e-01
4.87895e-02,5.48234e-01
4.96568e-02,5.11574e-01
5.05396e-02,4.77283e-01
5.14380e-02,4.45208e-01
5.23525e-02,4.15208e-01
5.32831e-02,3.87151e-01
5.42303e-02,3.60912e-01
5.51944e-02,3.36376e-01
5.61756e-02,3.13432e-01
5.71742e-02,2.91978e-01
5.81906e-02,2.71919e-01
5.92250e-02,2.53165e-01
6.02779e-02,2.35631e-01
6.13495e-02,2.19240e-01
6.24401e-02,2.03918e-01
6.35501e-02,1.89595e-01
6.46798e-02,1.76207e-01
6.58296e-02,1.63693e-01
6.69999e-02,1.51997e-01
6.81909e-02,1.41065e-01
6.94031e-02,1.30849e-01
7.06369e-02,1.21302e-01
7.18926e-02,1.12380e-01
7.31707e-02,1.04042e-01
7.44714e-02,9.62517e-02
7.57953e-02,8.89720e-02
7.71427e-02,8.21700e-02
7.85141e-02,7.58146e-02
7.99098e-02,6.98767e-02
8.13304e-02,6.43290e-02
8.27762e-02,5.91460e-02
8.42477e-02,5.43039e-02
8.57454e-02,4.97805e-02
8.72697e-02,4.55547e-02
8.88211e-02,4.16073e-02
9.04000e-02,3.79199e-02
9.20071e-02,3.44754e-02
9.36427e-02,3.12581e-02
9.53074e-02,2.82529e-02
9.70016e-02,2.54459e-02
9.87260e-02,2.28242e-02
1.00481e-01,2.03755e-02
1.02267e-01,1.80886e-02
1.04085e-01,1.59526e-02
1.05936e-01,1.39578e-02
1.07819e-01,1.20948e-02
1.09736e-01,1.03550e-02
1.11686e-01,8.73024e-03
1.13672e-01,7.21292e-03
1.15693e-01,5.79598e-03
1.17749e-01,4.47281e-03
1.19842e-01,3.23721e-03
1.21973e-01,2.08342e-03
1.24141e-01,1.00603e-03
1.26348e-01,0.00000e+00
