m1=651043.507, m2=15.104, gsp=2.240, rhosp=708.818
fGW[Hz],dPh[rad]
1.61902e-03,1.42567e+03
1.63068e-03,1.38706e+03
1.64243e-03,1.34948e+03
1.65426e-03,1.31291e+03
1.66617e-03,1.27733e+03
1.67818e-03,1.24270e+03
1.69026e-03,1.20901e+03
1.70244e-03,1.17622e+03
1.71470e-03,1.14431e+03
1.72705e-03,1.11327e+03
1.73949e-03,1.08305e+03
1.75202e-03,1.05365e+03
1.76464e-03,1.02505e+03
1.77736e-03,9.97208e+02
1.79016e-03,9.70119e+02
1.80305e-03,9.43759e+02
1.81604e-03,9.18110e+02
1.82912e-03,8.93151e+02
1.84230e-03,8.68864e+02
1.85557e-03,8.45232e+02
1.86893e-03,8.22236e+02
1.88240e-03,7.99859e+02
1.89596e-03,7.78086e+02
1.90961e-03,7.56899e+02
1.92337e-03,7.36284e+02
1.93722e-03,7.16224e+02
1.95118e-03,6.96704e+02
1.96523e-03,6.77711e+02
1.97939e-03,6.59230e+02
1.99365e-03,6.41247e+02
2.00801e-03,6.23749e+02
2.02247e-03,6.06724e+02
2.03704e-03,5.90157e+02
2.05171e-03,5.74037e+02
2.06649e-03,5.58352e+02
2.08138e-03,5.43090e+02
2.09637e-03,5.28240e+02
2.11147e-03,5.13790e+02
2.12668e-03,4.99731e+02
2.14200e-03,4.86051e+02
2.15743e-03,4.72740e+02
2.17297e-03,4.59789e+02
2.18862e-03,4.47187e+02
2.20439e-03,4.34925e+02
2.22026e-03,4.22994e+02
2.23626e-03,4.11386e+02
2.25237e-03,4.00091e+02
2.26859e-03,3.89101e+02
2.28493e-03,3.78408e+02
2.30139e-03,3.68003e+02
2.31797e-03,3.57880e+02
2.33466e-03,3.48030e+02
2.35148e-03,3.38446e+02
2.36842e-03,3.29121e+02
2.38548e-03,3.20048e+02
2.40266e-03,3.11221e+02
2.41997e-03,3.02632e+02
2.43740e-03,2.94275e+02
2.45496e-03,2.86143e+02
2.47264e-03,2.78232e+02
2.49045e-03,2.70534e+02
2.50839e-03,2.63045e+02
2.52646e-03,2.55758e+02
2.54466e-03,2.48668e+02
2.56299e-03,2.41770e+02
2.58145e-03,2.35058e+02
2.60004e-03,2.28528e+02
2.61877e-03,2.22174e+02
2.63764e-03,2.15992e+02
2.65664e-03,2.09978e+02
2.67577e-03,2.04126e+02
2.69505e-03,1.98432e+02
2.71446e-03,1.92892e+02
2.73401e-03,1.87503e+02
2.75371e-03,1.82259e+02
2.77354e-03,1.77157e+02
2.79352e-03,1.72193e+02
2.81364e-03,1.67363e+02
2.83391e-03,1.62664e+02
2.85432e-03,1.58092e+02
2.87488e-03,1.53644e+02
2.89559e-03,1.49316e+02
2.91645e-03,1.45106e+02
2.93746e-03,1.41009e+02
2.95862e-03,1.37023e+02
2.97993e-03,1.33145e+02
3.00139e-03,1.29372e+02
3.02301e-03,1.25702e+02
3.04479e-03,1.22130e+02
3.06672e-03,1.18656e+02
3.08881e-03,1.15275e+02
3.11106e-03,1.11986e+02
3.13347e-03,1.08786e+02
3.15604e-03,1.05673e+02
3.17877e-03,1.02644e+02
3.20167e-03,9.96970e+01
3.22473e-03,9.68299e+01
3.24796e-03,9.40404e+01
3.27136e-03,9.13265e+01
3.29492e-03,8.86861e+01
3.31866e-03,8.61172e+01
3.34256e-03,8.36179e+01
3.36664e-03,8.11863e+01
3.39089e-03,7.88206e+01
3.41532e-03,7.65190e+01
3.43992e-03,7.42798e+01
3.46469e-03,7.21012e+01
3.48965e-03,6.99816e+01
3.51479e-03,6.79195e+01
3.54011e-03,6.59133e+01
3.56561e-03,6.39614e+01
3.59129e-03,6.20625e+01
3.61716e-03,6.02150e+01
3.64321e-03,5.84175e+01
3.66946e-03,5.66688e+01
3.69589e-03,5.49675e+01
3.72251e-03,5.33123e+01
3.74933e-03,5.17020e+01
3.77633e-03,5.01353e+01
3.80353e-03,4.86111e+01
3.83093e-03,4.71282e+01
3.85853e-03,4.56855e+01
3.88632e-03,4.42819e+01
3.91431e-03,4.29164e+01
3.94251e-03,4.15879e+01
3.97091e-03,4.02954e+01
3.99951e-03,3.90380e+01
4.02832e-03,3.78146e+01
4.05734e-03,3.66245e+01
4.08656e-03,3.54666e+01
4.11600e-03,3.43401e+01
4.14565e-03,3.32441e+01
4.17551e-03,3.21779e+01
4.20559e-03,3.11406e+01
4.23588e-03,3.01314e+01
4.26639e-03,2.91496e+01
4.29713e-03,2.81944e+01
4.32808e-03,2.72651e+01
4.35926e-03,2.63611e+01
4.39066e-03,2.54815e+01
4.42228e-03,2.46258e+01
4.45414e-03,2.37934e+01
4.48622e-03,2.29835e+01
4.51854e-03,2.21955e+01
4.55108e-03,2.14290e+01
4.58387e-03,2.06832e+01
4.61689e-03,1.99577e+01
4.65014e-03,1.92519e+01
4.68364e-03,1.85652e+01
4.71738e-03,1.78971e+01
4.75136e-03,1.72472e+01
4.78558e-03,1.66149e+01
4.82005e-03,1.59998e+01
4.85477e-03,1.54013e+01
4.88974e-03,1.48191e+01
4.92496e-03,1.42527e+01
4.96044e-03,1.37016e+01
4.99617e-03,1.31655e+01
5.03216e-03,1.26440e+01
5.06841e-03,1.21366e+01
5.10492e-03,1.16430e+01
5.14169e-03,1.11628e+01
5.17872e-03,1.06956e+01
5.21603e-03,1.02411e+01
5.25360e-03,9.79887e+00
5.29144e-03,9.36870e+00
5.32956e-03,8.95019e+00
5.36795e-03,8.54305e+00
5.40661e-03,8.14696e+00
5.44556e-03,7.76162e+00
5.48479e-03,7.38674e+00
5.52429e-03,7.02203e+00
5.56409e-03,6.66722e+00
5.60417e-03,6.32205e+00
5.64453e-03,5.98624e+00
5.68519e-03,5.65955e+00
5.72614e-03,5.34173e+00
5.76739e-03,5.03253e+00
5.80893e-03,4.73173e+00
5.85078e-03,4.43909e+00
5.89292e-03,4.15440e+00
5.93537e-03,3.87744e+00
5.97812e-03,3.60800e+00
6.02118e-03,3.34587e+00
6.06456e-03,3.09086e+00
6.10824e-03,2.84277e+00
6.15224e-03,2.60142e+00
6.19656e-03,2.36662e+00
6.24119e-03,2.13820e+00
6.28615e-03,1.91597e+00
6.33143e-03,1.69979e+00
6.37703e-03,1.48947e+00
6.42297e-03,1.28486e+00
6.46924e-03,1.08581e+00
6.51584e-03,8.92160e-01
6.56277e-03,7.03771e-01
6.61004e-03,5.20497e-01
6.65766e-03,3.42200e-01
6.70561e-03,1.68745e-01
6.75392e-03,0.00000e+00
