m1=2874.743, m2=3.531, gsp=2.399, rhosp=2425.456
fGW[Hz],dPh[rad]
1.08335e-02,2.03028e+05
1.11064e-02,1.92645e+05
1.13862e-02,1.82787e+05
1.16730e-02,1.73427e+05
1.19670e-02,1.64540e+05
1.22685e-02,1.56103e+05
1.25775e-02,1.48092e+05
1.28943e-02,1.40487e+05
1.32192e-02,1.33267e+05
1.35521e-02,1.26412e+05
1.38935e-02,1.19904e+05
1.42435e-02,1.13726e+05
1.46023e-02,1.07861e+05
1.49701e-02,1.02294e+05
1.53472e-02,9.70089e+04
1.57338e-02,9.19922e+04
1.61301e-02,8.72302e+04
1.65365e-02,8.27101e+04
1.69530e-02,7.84198e+04
1.73801e-02,7.43476e+04
1.78179e-02,7.04827e+04
1.82667e-02,6.68145e+04
1.87268e-02,6.33331e+04
1.91985e-02,6.00292e+04
1.96822e-02,5.68937e+04
2.01779e-02,5.39183e+04
2.06862e-02,5.10948e+04
2.12073e-02,4.84155e+04
2.17415e-02,4.58733e+04
2.22892e-02,4.34611e+04
2.28506e-02,4.11724e+04
2.34263e-02,3.90011e+04
2.40164e-02,3.69411e+04
2.46213e-02,3.49868e+04
2.52415e-02,3.31330e+04
2.58774e-02,3.13744e+04
2.65292e-02,2.97064e+04
2.71975e-02,2.81243e+04
2.78826e-02,2.66238e+04
2.85849e-02,2.52007e+04
2.93050e-02,2.38512e+04
3.00432e-02,2.25714e+04
3.08000e-02,2.13580e+04
3.15758e-02,2.02074e+04
3.23712e-02,1.91166e+04
3.31866e-02,1.80825e+04
3.40226e-02,1.71022e+04
3.48796e-02,1.61730e+04
3.57582e-02,1.52922e+04
3.66590e-02,1.44575e+04
3.75824e-02,1.36665e+04
3.85291e-02,1.29169e+04
3.94997e-02,1.22066e+04
4.04947e-02,1.15337e+04
4.15147e-02,1.08963e+04
4.25605e-02,1.02924e+04
4.36326e-02,9.72050e+03
4.47317e-02,9.17884e+03
4.58585e-02,8.66592e+03
4.70136e-02,8.18025e+03
4.81979e-02,7.72044e+03
4.94120e-02,7.28517e+03
5.06567e-02,6.87317e+03
5.19327e-02,6.48325e+03
5.32409e-02,6.11427e+03
5.45820e-02,5.76515e+03
5.59569e-02,5.43487e+03
5.73665e-02,5.12245e+03
5.88115e-02,4.82698e+03
6.02930e-02,4.54757e+03
6.18118e-02,4.28339e+03
6.33688e-02,4.03365e+03
6.49651e-02,3.79761e+03
6.66015e-02,3.57454e+03
6.82792e-02,3.36377e+03
6.99992e-02,3.16465e+03
7.17624e-02,2.97659e+03
7.35701e-02,2.79899e+03
7.54233e-02,2.63131e+03
7.73232e-02,2.47303e+03
7.92710e-02,2.32364e+03
8.12678e-02,2.18269e+03
8.33150e-02,2.04972e+03
8.54137e-02,1.92430e+03
8.75652e-02,1.80604e+03
8.97710e-02,1.69456e+03
9.20323e-02,1.58948e+03
9.43506e-02,1.49048e+03
9.67273e-02,1.39721e+03
9.91638e-02,1.30938e+03
1.01662e-01,1.22668e+03
1.04223e-01,1.14884e+03
1.06848e-01,1.07559e+03
1.09539e-01,1.00668e+03
1.12299e-01,9.41872e+02
1.15128e-01,8.80943e+02
1.18028e-01,8.23675e+02
1.21001e-01,7.69867e+02
1.24049e-01,7.19325e+02
1.27173e-01,6.71866e+02
1.30377e-01,6.27316e+02
1.33661e-01,5.85512e+02
1.37028e-01,5.46297e+02
1.40480e-01,5.09524e+02
1.44018e-01,4.75054e+02
1.47646e-01,4.42752e+02
1.51365e-01,4.12495e+02
1.55178e-01,3.84162e+02
1.59087e-01,3.57642e+02
1.63095e-01,3.32828e+02
1.67203e-01,3.09620e+02
1.71415e-01,2.87920e+02
1.75733e-01,2.67641e+02
1.80159e-01,2.48695e+02
1.84698e-01,2.31003e+02
1.89350e-01,2.14487e+02
1.94120e-01,1.99077e+02
1.99010e-01,1.84704e+02
2.04023e-01,1.71304e+02
2.09162e-01,1.58815e+02
2.14431e-01,1.47181e+02
2.19832e-01,1.36348e+02
2.25370e-01,1.26265e+02
2.31047e-01,1.16884e+02
2.36867e-01,1.08159e+02
2.42834e-01,1.00049e+02
2.48950e-01,9.25124e+01
2.55222e-01,8.55122e+01
2.61651e-01,7.90128e+01
2.68241e-01,7.29810e+01
2.74998e-01,6.73853e+01
2.81926e-01,6.21965e+01
2.89027e-01,5.73868e+01
2.96308e-01,5.29304e+01
3.03772e-01,4.88029e+01
3.11424e-01,4.49817e+01
3.19269e-01,4.14454e+01
3.27311e-01,3.81741e+01
3.35556e-01,3.51490e+01
3.44008e-01,3.23528e+01
3.52674e-01,2.97690e+01
3.61558e-01,2.73824e+01
3.70665e-01,2.51789e+01
3.80002e-01,2.31450e+01
3.89575e-01,2.12684e+01
3.99388e-01,1.95376e+01
4.09448e-01,1.79417e+01
4.19762e-01,1.64708e+01
4.30336e-01,1.51155e+01
4.41176e-01,1.38672e+01
4.52290e-01,1.27177e+01
4.63683e-01,1.16597e+01
4.75363e-01,1.06860e+01
4.87337e-01,9.79027e+00
4.99613e-01,8.96651e+00
5.12198e-01,8.20914e+00
5.25101e-01,7.51301e+00
5.38328e-01,6.87334e+00
5.51888e-01,6.28572e+00
5.65790e-01,5.74604e+00
5.80042e-01,5.25053e+00
5.94654e-01,4.79569e+00
6.09633e-01,4.37827e+00
6.24989e-01,3.99529e+00
6.40733e-01,3.64400e+00
6.56873e-01,3.32183e+00
6.73419e-01,3.02644e+00
6.90383e-01,2.75566e+00
7.07773e-01,2.50750e+00
7.25602e-01,2.28010e+00
7.43880e-01,2.07177e+00
7.62618e-01,1.88095e+00
7.81829e-01,1.70620e+00
8.01523e-01,1.54619e+00
8.21713e-01,1.39970e+00
8.42412e-01,1.26562e+00
8.63632e-01,1.14291e+00
8.85387e-01,1.03063e+00
9.07690e-01,9.27900e-01
9.30554e-01,8.33927e-01
9.53995e-01,7.47976e-01
9.78026e-01,6.69372e-01
1.00266e+00,5.97497e-01
1.02792e+00,5.31783e-01
1.05381e+00,4.71709e-01
1.08036e+00,4.16798e-01
1.10757e+00,3.66612e-01
1.13547e+00,3.20749e-01
1.16407e+00,2.78842e-01
1.19340e+00,2.40552e-01
1.22346e+00,2.05572e-01
1.25428e+00,1.73618e-01
1.28587e+00,1.44431e-01
1.31826e+00,1.17773e-01
1.35147e+00,9.34290e-02
1.38551e+00,7.11984e-02
1.42041e+00,5.08997e-02
1.45619e+00,3.23664e-02
1.49288e+00,1.54463e-02
1.53048e+00,0.00000e+00
