m1=754232.235, m2=35.723, gsp=2.102, rhosp=143.693
fGW[Hz],dPh[rad]
1.13000e-03,9.99665e+01
1.13936e-03,9.68338e+01
1.14879e-03,9.37984e+01
1.15830e-03,9.08572e+01
1.16789e-03,8.80074e+01
1.17756e-03,8.52461e+01
1.18731e-03,8.25706e+01
1.19714e-03,7.99784e+01
1.20705e-03,7.74668e+01
1.21705e-03,7.50333e+01
1.22712e-03,7.26756e+01
1.23728e-03,7.03912e+01
1.24753e-03,6.81781e+01
1.25785e-03,6.60338e+01
1.26827e-03,6.39564e+01
1.27877e-03,6.19438e+01
1.28936e-03,5.99939e+01
1.30003e-03,5.81048e+01
1.31079e-03,5.62747e+01
1.32165e-03,5.45017e+01
1.33259e-03,5.27840e+01
1.34362e-03,5.11200e+01
1.35475e-03,4.95079e+01
1.36596e-03,4.79462e+01
1.37727e-03,4.64334e+01
1.38867e-03,4.49678e+01
1.40017e-03,4.35480e+01
1.41176e-03,4.21727e+01
1.42345e-03,4.08404e+01
1.43524e-03,3.95498e+01
1.44712e-03,3.82996e+01
1.45910e-03,3.70885e+01
1.47118e-03,3.59153e+01
1.48336e-03,3.47789e+01
1.49564e-03,3.36781e+01
1.50802e-03,3.26119e+01
1.52051e-03,3.15790e+01
1.53310e-03,3.05785e+01
1.54579e-03,2.96094e+01
1.55859e-03,2.86707e+01
1.57149e-03,2.77614e+01
1.58450e-03,2.68807e+01
1.59762e-03,2.60277e+01
1.61085e-03,2.52014e+01
1.62419e-03,2.44010e+01
1.63763e-03,2.36258e+01
1.65119e-03,2.28750e+01
1.66486e-03,2.21477e+01
1.67865e-03,2.14433e+01
1.69255e-03,2.07611e+01
1.70656e-03,2.01003e+01
1.72069e-03,1.94602e+01
1.73493e-03,1.88403e+01
1.74930e-03,1.82399e+01
1.76378e-03,1.76584e+01
1.77838e-03,1.70952e+01
1.79311e-03,1.65498e+01
1.80795e-03,1.60215e+01
1.82292e-03,1.55098e+01
1.83801e-03,1.50142e+01
1.85323e-03,1.45343e+01
1.86857e-03,1.40695e+01
1.88404e-03,1.36193e+01
1.89964e-03,1.31833e+01
1.91537e-03,1.27610e+01
1.93123e-03,1.23521e+01
1.94722e-03,1.19560e+01
1.96334e-03,1.15725e+01
1.97959e-03,1.12010e+01
1.99598e-03,1.08413e+01
2.01251e-03,1.04929e+01
2.02917e-03,1.01555e+01
2.04597e-03,9.82872e+00
2.06291e-03,9.51228e+00
2.07999e-03,9.20583e+00
2.09721e-03,8.90905e+00
2.11457e-03,8.62164e+00
2.13208e-03,8.34331e+00
2.14973e-03,8.07377e+00
2.16753e-03,7.81275e+00
2.18548e-03,7.55997e+00
2.20357e-03,7.31518e+00
2.22181e-03,7.07812e+00
2.24021e-03,6.84856e+00
2.25876e-03,6.62625e+00
2.27746e-03,6.41097e+00
2.29631e-03,6.20249e+00
2.31533e-03,6.00061e+00
2.33449e-03,5.80511e+00
2.35382e-03,5.61580e+00
2.37331e-03,5.43247e+00
2.39296e-03,5.25494e+00
2.41277e-03,5.08303e+00
2.43275e-03,4.91656e+00
2.45289e-03,4.75536e+00
2.47320e-03,4.59926e+00
2.49367e-03,4.44809e+00
2.51432e-03,4.30172e+00
2.53514e-03,4.15998e+00
2.55613e-03,4.02272e+00
2.57729e-03,3.88982e+00
2.59863e-03,3.76112e+00
2.62014e-03,3.63650e+00
2.64183e-03,3.51582e+00
2.66371e-03,3.39897e+00
2.68576e-03,3.28582e+00
2.70800e-03,3.17625e+00
2.73042e-03,3.07016e+00
2.75302e-03,2.96743e+00
2.77581e-03,2.86795e+00
2.79880e-03,2.77163e+00
2.82197e-03,2.67836e+00
2.84533e-03,2.58804e+00
2.86889e-03,2.50059e+00
2.89264e-03,2.41592e+00
2.91659e-03,2.33392e+00
2.94074e-03,2.25453e+00
2.96509e-03,2.17766e+00
2.98963e-03,2.10322e+00
3.01439e-03,2.03114e+00
3.03934e-03,1.96135e+00
3.06451e-03,1.89378e+00
3.08988e-03,1.82835e+00
3.11546e-03,1.76499e+00
3.14125e-03,1.70365e+00
3.16726e-03,1.64425e+00
3.19348e-03,1.58674e+00
3.21992e-03,1.53105e+00
3.24658e-03,1.47713e+00
3.27346e-03,1.42492e+00
3.30056e-03,1.37437e+00
3.32789e-03,1.32542e+00
3.35544e-03,1.27803e+00
3.38322e-03,1.23214e+00
3.41123e-03,1.18771e+00
3.43948e-03,1.14469e+00
3.46795e-03,1.10303e+00
3.49666e-03,1.06270e+00
3.52561e-03,1.02365e+00
3.55480e-03,9.85839e-01
3.58423e-03,9.49230e-01
3.61391e-03,9.13783e-01
3.64383e-03,8.79463e-01
3.67400e-03,8.46233e-01
3.70442e-03,8.14059e-01
3.73509e-03,7.82907e-01
3.76601e-03,7.52745e-01
3.79719e-03,7.23541e-01
3.82863e-03,6.95265e-01
3.86033e-03,6.67888e-01
3.89229e-03,6.41381e-01
3.92451e-03,6.15716e-01
3.95700e-03,5.90868e-01
3.98976e-03,5.66809e-01
4.02280e-03,5.43514e-01
4.05610e-03,5.20961e-01
4.08968e-03,4.99124e-01
4.12354e-03,4.77981e-01
4.15768e-03,4.57511e-01
4.19211e-03,4.37691e-01
4.22681e-03,4.18502e-01
4.26181e-03,3.99923e-01
4.29709e-03,3.81935e-01
4.33267e-03,3.64518e-01
4.36854e-03,3.47656e-01
4.40471e-03,3.31330e-01
4.44118e-03,3.15523e-01
4.47795e-03,3.00219e-01
4.51502e-03,2.85401e-01
4.55240e-03,2.71055e-01
4.59009e-03,2.57165e-01
4.62810e-03,2.43717e-01
4.66641e-03,2.30697e-01
4.70505e-03,2.18091e-01
4.74400e-03,2.05887e-01
4.78328e-03,1.94070e-01
4.82288e-03,1.82630e-01
4.86281e-03,1.71553e-01
4.90307e-03,1.60829e-01
4.94367e-03,1.50446e-01
4.98460e-03,1.40393e-01
5.02586e-03,1.30661e-01
5.06747e-03,1.21238e-01
5.10943e-03,1.12115e-01
5.15173e-03,1.03282e-01
5.19438e-03,9.47308e-02
5.23739e-03,8.64515e-02
5.28075e-03,7.84356e-02
5.32447e-03,7.06749e-02
5.36856e-03,6.31612e-02
5.41300e-03,5.58867e-02
5.45782e-03,4.88438e-02
5.50301e-03,4.20250e-02
5.54857e-03,3.54233e-02
5.59450e-03,2.90318e-02
5.64082e-03,2.28438e-02
5.68752e-03,1.68527e-02
5.73461e-03,1.10524e-02
5.78209e-03,5.43683e-03
5.82996e-03,0.00000e+00
