m1=42992.735, m2=4.329, gsp=2.201, rhosp=168.747
fGW[Hz],dPh[rad]
5.10313e-03,6.17439e+03
5.18059e-03,5.88324e+03
5.25923e-03,5.60506e+03
5.33905e-03,5.33931e+03
5.42009e-03,5.08548e+03
5.50236e-03,4.84308e+03
5.58588e-03,4.61161e+03
5.67067e-03,4.39062e+03
5.75674e-03,4.17967e+03
5.84412e-03,3.97834e+03
5.93282e-03,3.78620e+03
6.02288e-03,3.60288e+03
6.11430e-03,3.42799e+03
6.20710e-03,3.26118e+03
6.30132e-03,3.10208e+03
6.39696e-03,2.95037e+03
6.49406e-03,2.80573e+03
6.59263e-03,2.66785e+03
6.69270e-03,2.53642e+03
6.79428e-03,2.41117e+03
6.89741e-03,2.29183e+03
7.00211e-03,2.17813e+03
7.10839e-03,2.06982e+03
7.21628e-03,1.96667e+03
7.32582e-03,1.86843e+03
7.43701e-03,1.77489e+03
7.54990e-03,1.68584e+03
7.66449e-03,1.60107e+03
7.78083e-03,1.52039e+03
7.89893e-03,1.44362e+03
8.01883e-03,1.37056e+03
8.14054e-03,1.30106e+03
8.26410e-03,1.23495e+03
8.38954e-03,1.17207e+03
8.51688e-03,1.11228e+03
8.64616e-03,1.05542e+03
8.77739e-03,1.00137e+03
8.91062e-03,9.49980e+02
9.04587e-03,9.01140e+02
9.18318e-03,8.54724e+02
9.32257e-03,8.10618e+02
9.46407e-03,7.68712e+02
9.60772e-03,7.28901e+02
9.75355e-03,6.91086e+02
9.90160e-03,6.55171e+02
1.00519e-02,6.21064e+02
1.02045e-02,5.88678e+02
1.03594e-02,5.57930e+02
1.05166e-02,5.28741e+02
1.06762e-02,5.01035e+02
1.08383e-02,4.74738e+02
1.10028e-02,4.49784e+02
1.11698e-02,4.26104e+02
1.13393e-02,4.03638e+02
1.15114e-02,3.82325e+02
1.16862e-02,3.62108e+02
1.18636e-02,3.42932e+02
1.20436e-02,3.24746e+02
1.22264e-02,3.07501e+02
1.24120e-02,2.91149e+02
1.26004e-02,2.75646e+02
1.27917e-02,2.60950e+02
1.29858e-02,2.47018e+02
1.31829e-02,2.33814e+02
1.33830e-02,2.21300e+02
1.35862e-02,2.09441e+02
1.37924e-02,1.98204e+02
1.40017e-02,1.87558e+02
1.42143e-02,1.77471e+02
1.44300e-02,1.67916e+02
1.46490e-02,1.58865e+02
1.48714e-02,1.50293e+02
1.50971e-02,1.42174e+02
1.53263e-02,1.34486e+02
1.55589e-02,1.27205e+02
1.57951e-02,1.20312e+02
1.60348e-02,1.13786e+02
1.62782e-02,1.07607e+02
1.65253e-02,1.01758e+02
1.67761e-02,9.62220e+01
1.70308e-02,9.09820e+01
1.72893e-02,8.60226e+01
1.75517e-02,8.13292e+01
1.78181e-02,7.68879e+01
1.80886e-02,7.26853e+01
1.83631e-02,6.87089e+01
1.86418e-02,6.49468e+01
1.89248e-02,6.13876e+01
1.92121e-02,5.80206e+01
1.95037e-02,5.48356e+01
1.97997e-02,5.18229e+01
2.01002e-02,4.89735e+01
2.04053e-02,4.62785e+01
2.07151e-02,4.37298e+01
2.10295e-02,4.13196e+01
2.13487e-02,3.90404e+01
2.16727e-02,3.68853e+01
2.20017e-02,3.48475e+01
2.23356e-02,3.29209e+01
2.26747e-02,3.10994e+01
2.30188e-02,2.93773e+01
2.33682e-02,2.77494e+01
2.37229e-02,2.62105e+01
2.40830e-02,2.47559e+01
2.44486e-02,2.33809e+01
2.48197e-02,2.20814e+01
2.51964e-02,2.08531e+01
2.55788e-02,1.96923e+01
2.59671e-02,1.85953e+01
2.63612e-02,1.75585e+01
2.67613e-02,1.65789e+01
2.71675e-02,1.56531e+01
2.75799e-02,1.47784e+01
2.79985e-02,1.39518e+01
2.84235e-02,1.31709e+01
2.88549e-02,1.24330e+01
2.92929e-02,1.17360e+01
2.97376e-02,1.10774e+01
3.01889e-02,1.04552e+01
3.06472e-02,9.86745e+00
3.11123e-02,9.31222e+00
3.15846e-02,8.78774e+00
3.20640e-02,8.29232e+00
3.25507e-02,7.82436e+00
3.30448e-02,7.38235e+00
3.35463e-02,6.96486e+00
3.40555e-02,6.57055e+00
3.45724e-02,6.19814e+00
3.50972e-02,5.84641e+00
3.56299e-02,5.51424e+00
3.61707e-02,5.20053e+00
3.67198e-02,4.90428e+00
3.72771e-02,4.62452e+00
3.78429e-02,4.36033e+00
3.84173e-02,4.11085e+00
3.90005e-02,3.87527e+00
3.95924e-02,3.65283e+00
4.01934e-02,3.44279e+00
4.08035e-02,3.24446e+00
4.14228e-02,3.05720e+00
4.20515e-02,2.88039e+00
4.26898e-02,2.71345e+00
4.33378e-02,2.55583e+00
4.39956e-02,2.40702e+00
4.46634e-02,2.26653e+00
4.53413e-02,2.13389e+00
4.60296e-02,2.00867e+00
4.67282e-02,1.89045e+00
4.74375e-02,1.77884e+00
4.81575e-02,1.67348e+00
4.88885e-02,1.57402e+00
4.96305e-02,1.48013e+00
5.03839e-02,1.39149e+00
5.11486e-02,1.30783e+00
5.19250e-02,1.22885e+00
5.27131e-02,1.15429e+00
5.35133e-02,1.08392e+00
5.43255e-02,1.01749e+00
5.51501e-02,9.54787e-01
5.59872e-02,8.95602e-01
5.68370e-02,8.39737e-01
5.76997e-02,7.87008e-01
5.85755e-02,7.37238e-01
5.94646e-02,6.90262e-01
6.03672e-02,6.45924e-01
6.12835e-02,6.04076e-01
6.22137e-02,5.64579e-01
6.31580e-02,5.27301e-01
6.41167e-02,4.92118e-01
6.50899e-02,4.58911e-01
6.60778e-02,4.27572e-01
6.70808e-02,3.97994e-01
6.80990e-02,3.70079e-01
6.91327e-02,3.43734e-01
7.01820e-02,3.18871e-01
7.12473e-02,2.95406e-01
7.23287e-02,2.73262e-01
7.34266e-02,2.52363e-01
7.45411e-02,2.32641e-01
7.56725e-02,2.14028e-01
7.68211e-02,1.96463e-01
7.79871e-02,1.79887e-01
7.91709e-02,1.64245e-01
8.03726e-02,1.49483e-01
8.15925e-02,1.35552e-01
8.28310e-02,1.22406e-01
8.40883e-02,1.10001e-01
8.53646e-02,9.82944e-02
8.66603e-02,8.72474e-02
8.79757e-02,7.68228e-02
8.93110e-02,6.69857e-02
9.06667e-02,5.77030e-02
9.20429e-02,4.89434e-02
9.34399e-02,4.06776e-02
9.48582e-02,3.28778e-02
9.62981e-02,2.55177e-02
9.77597e-02,1.85726e-02
9.92436e-02,1.20191e-02
1.00750e-01,5.83518e-03
1.02279e-01,0.00000e+00
