m1=157225.713, m2=3.899, gsp=2.291, rhosp=61.738
fGW[Hz],dPh[rad]
3.83785e-03,7.15440e+03
3.87635e-03,6.89273e+03
3.91523e-03,6.64056e+03
3.95450e-03,6.39753e+03
3.99417e-03,6.16332e+03
4.03423e-03,5.93761e+03
4.07469e-03,5.72010e+03
4.11557e-03,5.51050e+03
4.15685e-03,5.30851e+03
4.19854e-03,5.11387e+03
4.24065e-03,4.92630e+03
4.28319e-03,4.74557e+03
4.32615e-03,4.57141e+03
4.36954e-03,4.40359e+03
4.41337e-03,4.24189e+03
4.45764e-03,4.08609e+03
4.50235e-03,3.93596e+03
4.54751e-03,3.79131e+03
4.59313e-03,3.65193e+03
4.63920e-03,3.51764e+03
4.68573e-03,3.38826e+03
4.73273e-03,3.26360e+03
4.78020e-03,3.14349e+03
4.82815e-03,3.02777e+03
4.87658e-03,2.91629e+03
4.92549e-03,2.80888e+03
4.97489e-03,2.70539e+03
5.02480e-03,2.60570e+03
5.07520e-03,2.50965e+03
5.12610e-03,2.41712e+03
5.17752e-03,2.32798e+03
5.22945e-03,2.24210e+03
5.28190e-03,2.15937e+03
5.33488e-03,2.07967e+03
5.38840e-03,2.00290e+03
5.44244e-03,1.92894e+03
5.49703e-03,1.85769e+03
5.55217e-03,1.78906e+03
5.60786e-03,1.72294e+03
5.66411e-03,1.65925e+03
5.72092e-03,1.59790e+03
5.77831e-03,1.53881e+03
5.83626e-03,1.48188e+03
5.89480e-03,1.42705e+03
5.95393e-03,1.37423e+03
6.01365e-03,1.32335e+03
6.07397e-03,1.27434e+03
6.13490e-03,1.22714e+03
6.19643e-03,1.18167e+03
6.25858e-03,1.13788e+03
6.32136e-03,1.09569e+03
6.38477e-03,1.05506e+03
6.44881e-03,1.01593e+03
6.51349e-03,9.78233e+02
6.57882e-03,9.41928e+02
6.64481e-03,9.06959e+02
6.71146e-03,8.73279e+02
6.77878e-03,8.40841e+02
6.84678e-03,8.09597e+02
6.91545e-03,7.79506e+02
6.98482e-03,7.50524e+02
7.05488e-03,7.22611e+02
7.12564e-03,6.95727e+02
7.19711e-03,6.69835e+02
7.26930e-03,6.44899e+02
7.34222e-03,6.20882e+02
7.41586e-03,5.97752e+02
7.49025e-03,5.75476e+02
7.56538e-03,5.54022e+02
7.64126e-03,5.33361e+02
7.71790e-03,5.13462e+02
7.79532e-03,4.94299e+02
7.87351e-03,4.75843e+02
7.95248e-03,4.58069e+02
8.03225e-03,4.40953e+02
8.11282e-03,4.24468e+02
8.19419e-03,4.08593e+02
8.27638e-03,3.93305e+02
8.35940e-03,3.78582e+02
8.44324e-03,3.64404e+02
8.52793e-03,3.50750e+02
8.61347e-03,3.37601e+02
8.69987e-03,3.24938e+02
8.78713e-03,3.12744e+02
8.87527e-03,3.01001e+02
8.96429e-03,2.89693e+02
9.05421e-03,2.78803e+02
9.14502e-03,2.68316e+02
9.23675e-03,2.58217e+02
9.32940e-03,2.48493e+02
9.42298e-03,2.39128e+02
9.51749e-03,2.30110e+02
9.61296e-03,2.21426e+02
9.70938e-03,2.13064e+02
9.80677e-03,2.05011e+02
9.90514e-03,1.97257e+02
1.00045e-02,1.89790e+02
1.01048e-02,1.82600e+02
1.02062e-02,1.75676e+02
1.03086e-02,1.69009e+02
1.04120e-02,1.62589e+02
1.05164e-02,1.56407e+02
1.06219e-02,1.50454e+02
1.07284e-02,1.44722e+02
1.08360e-02,1.39202e+02
1.09447e-02,1.33887e+02
1.10545e-02,1.28769e+02
1.11654e-02,1.23841e+02
1.12774e-02,1.19096e+02
1.13905e-02,1.14527e+02
1.15047e-02,1.10127e+02
1.16201e-02,1.05890e+02
1.17367e-02,1.01811e+02
1.18544e-02,9.78831e+01
1.19733e-02,9.41008e+01
1.20934e-02,9.04589e+01
1.22147e-02,8.69522e+01
1.23372e-02,8.35757e+01
1.24610e-02,8.03244e+01
1.25860e-02,7.71939e+01
1.27122e-02,7.41795e+01
1.28397e-02,7.12771e+01
1.29685e-02,6.84824e+01
1.30986e-02,6.57915e+01
1.32300e-02,6.32006e+01
1.33627e-02,6.07058e+01
1.34967e-02,5.83037e+01
1.36321e-02,5.59908e+01
1.37688e-02,5.37638e+01
1.39069e-02,5.16195e+01
1.40464e-02,4.95549e+01
1.41873e-02,4.75670e+01
1.43296e-02,4.56529e+01
1.44734e-02,4.38099e+01
1.46185e-02,4.20355e+01
1.47652e-02,4.03269e+01
1.49133e-02,3.86818e+01
1.50628e-02,3.70979e+01
1.52139e-02,3.55728e+01
1.53665e-02,3.41044e+01
1.55207e-02,3.26906e+01
1.56763e-02,3.13293e+01
1.58336e-02,3.00187e+01
1.59924e-02,2.87567e+01
1.61528e-02,2.75417e+01
1.63148e-02,2.63718e+01
1.64785e-02,2.52454e+01
1.66438e-02,2.41609e+01
1.68107e-02,2.31167e+01
1.69793e-02,2.21113e+01
1.71496e-02,2.11433e+01
1.73216e-02,2.02114e+01
1.74954e-02,1.93140e+01
1.76709e-02,1.84501e+01
1.78481e-02,1.76182e+01
1.80271e-02,1.68173e+01
1.82080e-02,1.60462e+01
1.83906e-02,1.53038e+01
1.85751e-02,1.45889e+01
1.87614e-02,1.39007e+01
1.89496e-02,1.32381e+01
1.91396e-02,1.26001e+01
1.93316e-02,1.19858e+01
1.95255e-02,1.13944e+01
1.97214e-02,1.08250e+01
1.99192e-02,1.02768e+01
2.01190e-02,9.74900e+00
2.03208e-02,9.24081e+00
2.05246e-02,8.75154e+00
2.07305e-02,8.28046e+00
2.09384e-02,7.82692e+00
2.11484e-02,7.39025e+00
2.13606e-02,6.96983e+00
2.15748e-02,6.56505e+00
2.17912e-02,6.17534e+00
2.20098e-02,5.80013e+00
2.22306e-02,5.43888e+00
2.24535e-02,5.09108e+00
2.26788e-02,4.75622e+00
2.29062e-02,4.43382e+00
2.31360e-02,4.12343e+00
2.33680e-02,3.82458e+00
2.36024e-02,3.53686e+00
2.38392e-02,3.25985e+00
2.40783e-02,2.99315e+00
2.43198e-02,2.73637e+00
2.45637e-02,2.48916e+00
2.48101e-02,2.25114e+00
2.50590e-02,2.02199e+00
2.53103e-02,1.80137e+00
2.55642e-02,1.58896e+00
2.58206e-02,1.38445e+00
2.60796e-02,1.18757e+00
2.63412e-02,9.98007e-01
2.66054e-02,8.15506e-01
2.68723e-02,6.39799e-01
2.71418e-02,4.70634e-01
2.74141e-02,3.07767e-01
2.76890e-02,1.50964e-01
2.79668e-02,0.00000e+00
