m1=358894.999, m2=10.765, gsp=2.179, rhosp=28.390
fGW[Hz],dPh[rad]
2.13336e-03,3.99116e+02
2.15218e-03,3.85938e+02
2.17117e-03,3.73193e+02
2.19033e-03,3.60864e+02
2.20965e-03,3.48940e+02
2.22914e-03,3.37407e+02
2.24881e-03,3.26252e+02
2.26865e-03,3.15464e+02
2.28867e-03,3.05029e+02
2.30886e-03,2.94937e+02
2.32923e-03,2.85176e+02
2.34978e-03,2.75736e+02
2.37051e-03,2.66607e+02
2.39142e-03,2.57777e+02
2.41252e-03,2.49237e+02
2.43380e-03,2.40979e+02
2.45528e-03,2.32992e+02
2.47694e-03,2.25268e+02
2.49879e-03,2.17798e+02
2.52084e-03,2.10574e+02
2.54308e-03,2.03587e+02
2.56551e-03,1.96831e+02
2.58815e-03,1.90298e+02
2.61098e-03,1.83980e+02
2.63402e-03,1.77870e+02
2.65726e-03,1.71961e+02
2.68070e-03,1.66247e+02
2.70435e-03,1.60722e+02
2.72821e-03,1.55379e+02
2.75228e-03,1.50212e+02
2.77656e-03,1.45216e+02
2.80106e-03,1.40385e+02
2.82577e-03,1.35713e+02
2.85070e-03,1.31196e+02
2.87585e-03,1.26828e+02
2.90122e-03,1.22604e+02
2.92682e-03,1.18519e+02
2.95264e-03,1.14570e+02
2.97869e-03,1.10751e+02
3.00497e-03,1.07059e+02
3.03148e-03,1.03488e+02
3.05822e-03,1.00036e+02
3.08520e-03,9.66981e+01
3.11242e-03,9.34705e+01
3.13988e-03,9.03497e+01
3.16758e-03,8.73322e+01
3.19553e-03,8.44146e+01
3.22372e-03,8.15936e+01
3.25216e-03,7.88661e+01
3.28086e-03,7.62289e+01
3.30980e-03,7.36790e+01
3.33900e-03,7.12137e+01
3.36846e-03,6.88300e+01
3.39818e-03,6.65254e+01
3.42816e-03,6.42971e+01
3.45840e-03,6.21428e+01
3.48892e-03,6.00599e+01
3.51970e-03,5.80460e+01
3.55075e-03,5.60990e+01
3.58208e-03,5.42165e+01
3.61368e-03,5.23966e+01
3.64556e-03,5.06370e+01
3.67772e-03,4.89358e+01
3.71017e-03,4.72911e+01
3.74290e-03,4.57009e+01
3.77592e-03,4.41636e+01
3.80924e-03,4.26774e+01
3.84284e-03,4.12404e+01
3.87675e-03,3.98513e+01
3.91095e-03,3.85082e+01
3.94545e-03,3.72098e+01
3.98026e-03,3.59546e+01
4.01538e-03,3.47410e+01
4.05080e-03,3.35678e+01
4.08654e-03,3.24336e+01
4.12260e-03,3.13371e+01
4.15897e-03,3.02770e+01
4.19566e-03,2.92522e+01
4.23268e-03,2.82615e+01
4.27002e-03,2.73037e+01
4.30769e-03,2.63778e+01
4.34569e-03,2.54827e+01
4.38403e-03,2.46174e+01
4.42271e-03,2.37808e+01
4.46173e-03,2.29721e+01
4.50110e-03,2.21903e+01
4.54081e-03,2.14346e+01
4.58087e-03,2.07039e+01
4.62128e-03,1.99977e+01
4.66205e-03,1.93149e+01
4.70318e-03,1.86548e+01
4.74468e-03,1.80168e+01
4.78654e-03,1.74000e+01
4.82877e-03,1.68037e+01
4.87137e-03,1.62273e+01
4.91435e-03,1.56701e+01
4.95770e-03,1.51314e+01
5.00144e-03,1.46107e+01
5.04557e-03,1.41074e+01
5.09008e-03,1.36208e+01
5.13499e-03,1.31504e+01
5.18029e-03,1.26958e+01
5.22599e-03,1.22562e+01
5.27210e-03,1.18313e+01
5.31861e-03,1.14206e+01
5.36554e-03,1.10236e+01
5.41287e-03,1.06398e+01
5.46063e-03,1.02688e+01
5.50881e-03,9.91020e+00
5.55741e-03,9.56354e+00
5.60644e-03,9.22845e+00
5.65590e-03,8.90452e+00
5.70580e-03,8.59140e+00
5.75614e-03,8.28873e+00
5.80692e-03,7.99615e+00
5.85815e-03,7.71334e+00
5.90984e-03,7.43996e+00
5.96198e-03,7.17570e+00
6.01458e-03,6.92026e+00
6.06764e-03,6.67334e+00
6.12117e-03,6.43467e+00
6.17517e-03,6.20396e+00
6.22965e-03,5.98095e+00
6.28462e-03,5.76538e+00
6.34006e-03,5.55701e+00
6.39600e-03,5.35559e+00
6.45243e-03,5.16090e+00
6.50935e-03,4.97271e+00
6.56678e-03,4.79080e+00
6.62472e-03,4.61496e+00
6.68316e-03,4.44500e+00
6.74212e-03,4.28071e+00
6.80161e-03,4.12191e+00
6.86161e-03,3.96841e+00
6.92215e-03,3.82004e+00
6.98322e-03,3.67662e+00
7.04483e-03,3.53800e+00
7.10698e-03,3.40400e+00
7.16968e-03,3.27448e+00
7.23294e-03,3.14929e+00
7.29675e-03,3.02828e+00
7.36113e-03,2.91131e+00
7.42607e-03,2.79825e+00
7.49159e-03,2.68897e+00
7.55768e-03,2.58334e+00
7.62436e-03,2.48124e+00
7.69162e-03,2.38255e+00
7.75948e-03,2.28716e+00
7.82794e-03,2.19495e+00
7.89700e-03,2.10583e+00
7.96667e-03,2.01969e+00
8.03696e-03,1.93642e+00
8.10786e-03,1.85594e+00
8.17940e-03,1.77815e+00
8.25156e-03,1.70296e+00
8.32436e-03,1.63028e+00
8.39780e-03,1.56003e+00
8.47189e-03,1.49213e+00
8.54663e-03,1.42650e+00
8.62203e-03,1.36307e+00
8.69810e-03,1.30175e+00
8.77484e-03,1.24249e+00
8.85226e-03,1.18521e+00
8.93035e-03,1.12984e+00
9.00914e-03,1.07632e+00
9.08863e-03,1.02460e+00
9.16881e-03,9.74599e-01
9.24970e-03,9.26274e-01
9.33131e-03,8.79565e-01
9.41363e-03,8.34418e-01
9.49668e-03,7.90781e-01
9.58047e-03,7.48603e-01
9.66499e-03,7.07837e-01
9.75026e-03,6.68433e-01
9.83628e-03,6.30348e-01
9.92306e-03,5.93537e-01
1.00106e-02,5.57956e-01
1.00989e-02,5.23567e-01
1.01880e-02,4.90327e-01
1.02779e-02,4.58200e-01
1.03686e-02,4.27147e-01
1.04601e-02,3.97133e-01
1.05523e-02,3.68123e-01
1.06454e-02,3.40084e-01
1.07394e-02,3.12982e-01
1.08341e-02,2.86788e-01
1.09297e-02,2.61470e-01
1.10261e-02,2.36999e-01
1.11234e-02,2.13347e-01
1.12215e-02,1.90486e-01
1.13205e-02,1.68391e-01
1.14204e-02,1.47034e-01
1.15212e-02,1.26392e-01
1.16228e-02,1.06441e-01
1.17254e-02,8.71581e-02
1.18288e-02,6.85200e-02
1.19332e-02,5.05057e-02
1.20384e-02,3.30943e-02
1.21446e-02,1.62655e-02
1.22518e-02,0.00000e+00
