m1=5331.711, m2=55.849, gsp=2.438, rhosp=25.044
fGW[Hz],dPh[rad]
3.30011e-03,1.11263e+04
3.39304e-03,1.05115e+04
3.48858e-03,9.93066e+03
3.58682e-03,9.38184e+03
3.68782e-03,8.86329e+03
3.79167e-03,8.37334e+03
3.89844e-03,7.91042e+03
4.00822e-03,7.47305e+03
4.12109e-03,7.05980e+03
4.23713e-03,6.66936e+03
4.35645e-03,6.30045e+03
4.47912e-03,5.95191e+03
4.60525e-03,5.62259e+03
4.73493e-03,5.31145e+03
4.86827e-03,5.01749e+03
5.00535e-03,4.73974e+03
5.14630e-03,4.47733e+03
5.29122e-03,4.22940e+03
5.44022e-03,3.99515e+03
5.59341e-03,3.77384e+03
5.75092e-03,3.56475e+03
5.91286e-03,3.36720e+03
6.07936e-03,3.18055e+03
6.25055e-03,3.00422e+03
6.42656e-03,2.83762e+03
6.60753e-03,2.68022e+03
6.79360e-03,2.53152e+03
6.98490e-03,2.39103e+03
7.18159e-03,2.25831e+03
7.38382e-03,2.13291e+03
7.59174e-03,2.01445e+03
7.80552e-03,1.90253e+03
8.02532e-03,1.79679e+03
8.25131e-03,1.69690e+03
8.48366e-03,1.60254e+03
8.72255e-03,1.51339e+03
8.96818e-03,1.42917e+03
9.22071e-03,1.34961e+03
9.48036e-03,1.27444e+03
9.74733e-03,1.20344e+03
1.00218e-02,1.13636e+03
1.03040e-02,1.07300e+03
1.05942e-02,1.01314e+03
1.08925e-02,9.56598e+02
1.11992e-02,9.03185e+02
1.15146e-02,8.52729e+02
1.18388e-02,8.05068e+02
1.21722e-02,7.60048e+02
1.25150e-02,7.17522e+02
1.28674e-02,6.77352e+02
1.32297e-02,6.39410e+02
1.36023e-02,6.03571e+02
1.39853e-02,5.69720e+02
1.43791e-02,5.37747e+02
1.47840e-02,5.07549e+02
1.52003e-02,4.79026e+02
1.56283e-02,4.52087e+02
1.60684e-02,4.26645e+02
1.65209e-02,4.02616e+02
1.69861e-02,3.79922e+02
1.74644e-02,3.58490e+02
1.79562e-02,3.38250e+02
1.84619e-02,3.19136e+02
1.89817e-02,3.01086e+02
1.95163e-02,2.84041e+02
2.00658e-02,2.67946e+02
2.06309e-02,2.52747e+02
2.12118e-02,2.38396e+02
2.18091e-02,2.24846e+02
2.24233e-02,2.12051e+02
2.30547e-02,1.99971e+02
2.37039e-02,1.88566e+02
2.43714e-02,1.77799e+02
2.50577e-02,1.67634e+02
2.57633e-02,1.58037e+02
2.64888e-02,1.48978e+02
2.72347e-02,1.40427e+02
2.80016e-02,1.32355e+02
2.87901e-02,1.24737e+02
2.96008e-02,1.17546e+02
3.04343e-02,1.10759e+02
3.12913e-02,1.04354e+02
3.21725e-02,9.83089e+01
3.30784e-02,9.26049e+01
3.40099e-02,8.72225e+01
3.49676e-02,8.21438e+01
3.59523e-02,7.73521e+01
3.69647e-02,7.28314e+01
3.80056e-02,6.85666e+01
3.90758e-02,6.45434e+01
4.01761e-02,6.07486e+01
4.13075e-02,5.71692e+01
4.24707e-02,5.37935e+01
4.36666e-02,5.06099e+01
4.48962e-02,4.76078e+01
4.61605e-02,4.47772e+01
4.74603e-02,4.21084e+01
4.87968e-02,3.95923e+01
5.01709e-02,3.72206e+01
5.15837e-02,3.49850e+01
5.30362e-02,3.28781e+01
5.45297e-02,3.08925e+01
5.60652e-02,2.90216e+01
5.76440e-02,2.72588e+01
5.92672e-02,2.55982e+01
6.09361e-02,2.40339e+01
6.26521e-02,2.25607e+01
6.44163e-02,2.11733e+01
6.62302e-02,1.98669e+01
6.80952e-02,1.86370e+01
7.00127e-02,1.74793e+01
7.19843e-02,1.63896e+01
7.40113e-02,1.53642e+01
7.60954e-02,1.43994e+01
7.82382e-02,1.34918e+01
8.04413e-02,1.26381e+01
8.27065e-02,1.18353e+01
8.50355e-02,1.10805e+01
8.74300e-02,1.03709e+01
8.98920e-02,9.70395e+00
9.24233e-02,9.07725e+00
9.50259e-02,8.48848e+00
9.77018e-02,7.93545e+00
1.00453e-01,7.41613e+00
1.03282e-01,6.92856e+00
1.06190e-01,6.47091e+00
1.09180e-01,6.04146e+00
1.12255e-01,5.63857e+00
1.15416e-01,5.26069e+00
1.18666e-01,4.90638e+00
1.22007e-01,4.57424e+00
1.25443e-01,4.26300e+00
1.28975e-01,3.97141e+00
1.32607e-01,3.69832e+00
1.36341e-01,3.44264e+00
1.40181e-01,3.20333e+00
1.44128e-01,2.97942e+00
1.48187e-01,2.76999e+00
1.52360e-01,2.57417e+00
1.56650e-01,2.39115e+00
1.61061e-01,2.22015e+00
1.65596e-01,2.06044e+00
1.70260e-01,1.91133e+00
1.75054e-01,1.77217e+00
1.79983e-01,1.64236e+00
1.85052e-01,1.52131e+00
1.90262e-01,1.40848e+00
1.95620e-01,1.30335e+00
2.01129e-01,1.20545e+00
2.06792e-01,1.11432e+00
2.12616e-01,1.02952e+00
2.18603e-01,9.50660e-01
2.24758e-01,8.77348e-01
2.31087e-01,8.09230e-01
2.37595e-01,7.45967e-01
2.44285e-01,6.87243e-01
2.51164e-01,6.32757e-01
2.58237e-01,5.82230e-01
2.65509e-01,5.35397e-01
2.72985e-01,4.92010e-01
2.80672e-01,4.51835e-01
2.88576e-01,4.14655e-01
2.96702e-01,3.80263e-01
3.05057e-01,3.48467e-01
3.13647e-01,3.19086e-01
3.22479e-01,2.91950e-01
3.31560e-01,2.66902e-01
3.40896e-01,2.43793e-01
3.50496e-01,2.22484e-01
3.60366e-01,2.02844e-01
3.70513e-01,1.84753e-01
3.80947e-01,1.68096e-01
3.91674e-01,1.52769e-01
4.02703e-01,1.38672e-01
4.14043e-01,1.25713e-01
4.25702e-01,1.13806e-01
4.37690e-01,1.02871e-01
4.50015e-01,9.28341e-02
4.62687e-01,8.36258e-02
4.75716e-01,7.51818e-02
4.89112e-01,6.74423e-02
5.02885e-01,6.03520e-02
5.17046e-01,5.38593e-02
5.31606e-01,4.79167e-02
5.46575e-01,4.24799e-02
5.61967e-01,3.75082e-02
5.77791e-01,3.29636e-02
5.94062e-01,2.88114e-02
6.10790e-01,2.50191e-02
6.27989e-01,2.15570e-02
6.45673e-01,1.83977e-02
6.63855e-01,1.55157e-02
6.82549e-01,1.28877e-02
7.01769e-01,1.04923e-02
7.21530e-01,8.30962e-03
7.41848e-01,6.32149e-03
7.62738e-01,4.51119e-03
7.84216e-01,2.86338e-03
8.06299e-01,1.36396e-03
8.29004e-01,0.00000e+00
