m1=23783.827, m2=57.768, gsp=2.027, rhosp=8018.206
fGW[Hz],dPh[rad]
2.23996e-03,1.15586e+02
2.29020e-03,1.09680e+02
2.34157e-03,1.04073e+02
2.39410e-03,9.87499e+01
2.44780e-03,9.36956e+01
2.50271e-03,8.88969e+01
2.55884e-03,8.43410e+01
2.61624e-03,8.00157e+01
2.67493e-03,7.59093e+01
2.73493e-03,7.20110e+01
2.79627e-03,6.83101e+01
2.85900e-03,6.47969e+01
2.92313e-03,6.14617e+01
2.98870e-03,5.82958e+01
3.05574e-03,5.52905e+01
3.12428e-03,5.24378e+01
3.19436e-03,4.97300e+01
3.26601e-03,4.71598e+01
3.33927e-03,4.47202e+01
3.41417e-03,4.24048e+01
3.49076e-03,4.02072e+01
3.56906e-03,3.81214e+01
3.64912e-03,3.61419e+01
3.73097e-03,3.42633e+01
3.81466e-03,3.24806e+01
3.90023e-03,3.07888e+01
3.98771e-03,2.91833e+01
4.07716e-03,2.76599e+01
4.16861e-03,2.62144e+01
4.26212e-03,2.48428e+01
4.35772e-03,2.35415e+01
4.45547e-03,2.23068e+01
4.55541e-03,2.11354e+01
4.65760e-03,2.00240e+01
4.76207e-03,1.89698e+01
4.86889e-03,1.79697e+01
4.97810e-03,1.70210e+01
5.08976e-03,1.61212e+01
5.20393e-03,1.52677e+01
5.32066e-03,1.44582e+01
5.44001e-03,1.36905e+01
5.56204e-03,1.29624e+01
5.68680e-03,1.22719e+01
5.81436e-03,1.16172e+01
5.94478e-03,1.09964e+01
6.07813e-03,1.04078e+01
6.21446e-03,9.84974e+00
6.35386e-03,9.32067e+00
6.49638e-03,8.81913e+00
6.64210e-03,8.34371e+00
6.79109e-03,7.89308e+00
6.94342e-03,7.46598e+00
7.09917e-03,7.06120e+00
7.25841e-03,6.67761e+00
7.42123e-03,6.31412e+00
7.58769e-03,5.96971e+00
7.75789e-03,5.64339e+00
7.93191e-03,5.33426e+00
8.10983e-03,5.04141e+00
8.29174e-03,4.76403e+00
8.47773e-03,4.50131e+00
8.66790e-03,4.25250e+00
8.86233e-03,4.01689e+00
9.06112e-03,3.79380e+00
9.26437e-03,3.58258e+00
9.47217e-03,3.38262e+00
9.68465e-03,3.19335e+00
9.90188e-03,3.01420e+00
1.01240e-02,2.84466e+00
1.03511e-02,2.68422e+00
1.05833e-02,2.53242e+00
1.08207e-02,2.38881e+00
1.10634e-02,2.25297e+00
1.13115e-02,2.12448e+00
1.15653e-02,2.00296e+00
1.18247e-02,1.88806e+00
1.20899e-02,1.77943e+00
1.23611e-02,1.67674e+00
1.26384e-02,1.57967e+00
1.29219e-02,1.48793e+00
1.32117e-02,1.40125e+00
1.35081e-02,1.31936e+00
1.38111e-02,1.24200e+00
1.41209e-02,1.16893e+00
1.44376e-02,1.09993e+00
1.47615e-02,1.03479e+00
1.50926e-02,9.73289e-01
1.54311e-02,9.15244e-01
1.57773e-02,8.60469e-01
1.61312e-02,8.08788e-01
1.64930e-02,7.60037e-01
1.68630e-02,7.14057e-01
1.72412e-02,6.70699e-01
1.76279e-02,6.29823e-01
1.80234e-02,5.91295e-01
1.84276e-02,5.54986e-01
1.88410e-02,5.20776e-01
1.92636e-02,4.88551e-01
1.96957e-02,4.58203e-01
2.01375e-02,4.29628e-01
2.05892e-02,4.02730e-01
2.10510e-02,3.77415e-01
2.15232e-02,3.53597e-01
2.20060e-02,3.31192e-01
2.24996e-02,3.10121e-01
2.30043e-02,2.90311e-01
2.35203e-02,2.71690e-01
2.40479e-02,2.54192e-01
2.45873e-02,2.37753e-01
2.51389e-02,2.22313e-01
2.57028e-02,2.07816e-01
2.62793e-02,1.94208e-01
2.68688e-02,1.81438e-01
2.74715e-02,1.69457e-01
2.80877e-02,1.58220e-01
2.87177e-02,1.47684e-01
2.93619e-02,1.37809e-01
3.00205e-02,1.28554e-01
3.06939e-02,1.19885e-01
3.13824e-02,1.11766e-01
3.20863e-02,1.04165e-01
3.28060e-02,9.70515e-02
3.35419e-02,9.03955e-02
3.42943e-02,8.41699e-02
3.50635e-02,7.83487e-02
3.58500e-02,7.29074e-02
3.66542e-02,6.78227e-02
3.74764e-02,6.30729e-02
3.83170e-02,5.86373e-02
3.91765e-02,5.44965e-02
4.00553e-02,5.06322e-02
4.09538e-02,4.70270e-02
4.18724e-02,4.36648e-02
4.28116e-02,4.05301e-02
4.37719e-02,3.76085e-02
4.47538e-02,3.48864e-02
4.57576e-02,3.23510e-02
4.67840e-02,2.99904e-02
4.78334e-02,2.77931e-02
4.89064e-02,2.57485e-02
5.00034e-02,2.38467e-02
5.11250e-02,2.20782e-02
5.22718e-02,2.04342e-02
5.34443e-02,1.89065e-02
5.46431e-02,1.74872e-02
5.58688e-02,1.61691e-02
5.71220e-02,1.49454e-02
5.84033e-02,1.38097e-02
5.97134e-02,1.27559e-02
6.10528e-02,1.17785e-02
6.24223e-02,1.08721e-02
6.38225e-02,1.00319e-02
6.52541e-02,9.25335e-03
6.67178e-02,8.53202e-03
6.82143e-02,7.86394e-03
6.97445e-02,7.24537e-03
7.13089e-02,6.67278e-03
7.29084e-02,6.14292e-03
7.45438e-02,5.65273e-03
7.62159e-02,5.19936e-03
7.79255e-02,4.78015e-03
7.96735e-02,4.39264e-03
8.14606e-02,4.03452e-03
8.32879e-02,3.70365e-03
8.51561e-02,3.39802e-03
8.70662e-02,3.11578e-03
8.90192e-02,2.85521e-03
9.10160e-02,2.61470e-03
9.30576e-02,2.39274e-03
9.51449e-02,2.18797e-03
9.72791e-02,1.99909e-03
9.94612e-02,1.82490e-03
1.01692e-01,1.66430e-03
1.03973e-01,1.51625e-03
1.06305e-01,1.37981e-03
1.08690e-01,1.25409e-03
1.11128e-01,1.13826e-03
1.13621e-01,1.03158e-03
1.16169e-01,9.33330e-04
1.18775e-01,8.42868e-04
1.21439e-01,7.59589e-04
1.24163e-01,6.82936e-04
1.26949e-01,6.12394e-04
1.29796e-01,5.47487e-04
1.32708e-01,4.87773e-04
1.35684e-01,4.32845e-04
1.38728e-01,3.82328e-04
1.41840e-01,3.35875e-04
1.45021e-01,2.93163e-04
1.48274e-01,2.53899e-04
1.51600e-01,2.17807e-04
1.55001e-01,1.84636e-04
1.58478e-01,1.54154e-04
1.62032e-01,1.26146e-04
1.65667e-01,1.00414e-04
1.69383e-01,7.67766e-05
1.73182e-01,5.50652e-05
1.77067e-01,3.51251e-05
1.81039e-01,1.68138e-05
1.85100e-01,0.00000e+00
