m1=9196.609, m2=20.461, gsp=2.335, rhosp=792.949
fGW[Hz],dPh[rad]
4.19202e-03,1.72295e+04
4.29302e-03,1.63704e+04
4.39646e-03,1.55536e+04
4.50238e-03,1.47772e+04
4.61086e-03,1.40390e+04
4.72195e-03,1.33374e+04
4.83572e-03,1.26703e+04
4.95223e-03,1.20363e+04
5.07155e-03,1.14335e+04
5.19374e-03,1.08606e+04
5.31888e-03,1.03160e+04
5.44703e-03,9.79831e+03
5.57827e-03,9.30626e+03
5.71267e-03,8.83855e+03
5.85031e-03,8.39401e+03
5.99126e-03,7.97149e+03
6.13561e-03,7.56990e+03
6.28344e-03,7.18822e+03
6.43483e-03,6.82547e+03
6.58987e-03,6.48071e+03
6.74865e-03,6.15307e+03
6.91125e-03,5.84170e+03
7.07776e-03,5.54579e+03
7.24829e-03,5.26460e+03
7.42293e-03,4.99739e+03
7.60177e-03,4.74347e+03
7.78493e-03,4.50219e+03
7.97250e-03,4.27293e+03
8.16458e-03,4.05510e+03
8.36130e-03,3.84813e+03
8.56275e-03,3.65148e+03
8.76906e-03,3.46466e+03
8.98034e-03,3.28716e+03
9.19670e-03,3.11855e+03
9.41829e-03,2.95836e+03
9.64521e-03,2.80620e+03
9.87760e-03,2.66166e+03
1.01156e-02,2.52437e+03
1.03593e-02,2.39396e+03
1.06089e-02,2.27011e+03
1.08645e-02,2.15248e+03
1.11263e-02,2.04077e+03
1.13943e-02,1.93468e+03
1.16689e-02,1.83394e+03
1.19500e-02,1.73829e+03
1.22379e-02,1.64746e+03
1.25328e-02,1.56122e+03
1.28348e-02,1.47935e+03
1.31440e-02,1.40163e+03
1.34607e-02,1.32784e+03
1.37850e-02,1.25781e+03
1.41171e-02,1.19133e+03
1.44573e-02,1.12824e+03
1.48056e-02,1.06836e+03
1.51623e-02,1.01154e+03
1.55276e-02,9.57616e+02
1.59017e-02,9.06456e+02
1.62849e-02,8.57917e+02
1.66772e-02,8.11869e+02
1.70790e-02,7.68188e+02
1.74905e-02,7.26756e+02
1.79119e-02,6.87459e+02
1.83435e-02,6.50193e+02
1.87855e-02,6.14854e+02
1.92381e-02,5.81347e+02
1.97016e-02,5.49579e+02
2.01763e-02,5.19464e+02
2.06624e-02,4.90919e+02
2.11602e-02,4.63864e+02
2.16701e-02,4.38225e+02
2.21922e-02,4.13931e+02
2.27269e-02,3.90913e+02
2.32744e-02,3.69108e+02
2.38352e-02,3.48454e+02
2.44095e-02,3.28893e+02
2.49976e-02,3.10369e+02
2.55999e-02,2.92831e+02
2.62166e-02,2.76227e+02
2.68483e-02,2.60511e+02
2.74952e-02,2.45637e+02
2.81576e-02,2.31562e+02
2.88361e-02,2.18246e+02
2.95308e-02,2.05650e+02
3.02423e-02,1.93736e+02
3.09710e-02,1.82471e+02
3.17172e-02,1.71819e+02
3.24814e-02,1.61751e+02
3.32639e-02,1.52235e+02
3.40654e-02,1.43243e+02
3.48862e-02,1.34749e+02
3.57267e-02,1.26725e+02
3.65875e-02,1.19148e+02
3.74690e-02,1.11994e+02
3.83718e-02,1.05241e+02
3.92963e-02,9.88682e+01
4.02431e-02,9.28554e+01
4.12127e-02,8.71837e+01
4.22056e-02,8.18350e+01
4.32225e-02,7.67921e+01
4.42639e-02,7.20387e+01
4.53304e-02,6.75595e+01
4.64225e-02,6.33396e+01
4.75410e-02,5.93651e+01
4.86865e-02,5.56229e+01
4.98595e-02,5.21002e+01
5.10608e-02,4.87853e+01
5.22910e-02,4.56667e+01
5.35509e-02,4.27336e+01
5.48412e-02,3.99759e+01
5.61625e-02,3.73839e+01
5.75156e-02,3.49484e+01
5.89014e-02,3.26607e+01
6.03205e-02,3.05124e+01
6.17739e-02,2.84958e+01
6.32622e-02,2.66034e+01
6.47865e-02,2.48282e+01
6.63474e-02,2.31634e+01
6.79459e-02,2.16027e+01
6.95830e-02,2.01402e+01
7.12595e-02,1.87702e+01
7.29764e-02,1.74871e+01
7.47347e-02,1.62861e+01
7.65353e-02,1.51621e+01
7.83793e-02,1.41108e+01
8.02678e-02,1.31277e+01
8.22017e-02,1.22087e+01
8.41822e-02,1.13500e+01
8.62105e-02,1.05479e+01
8.82876e-02,9.79906e+00
9.04148e-02,9.10011e+00
9.25932e-02,8.44799e+00
9.48241e-02,7.83981e+00
9.71088e-02,7.27281e+00
9.94485e-02,6.74442e+00
1.01845e-01,6.25219e+00
1.04298e-01,5.79382e+00
1.06811e-01,5.36714e+00
1.09385e-01,4.97012e+00
1.12020e-01,4.60083e+00
1.14719e-01,4.25747e+00
1.17483e-01,3.93833e+00
1.20314e-01,3.64182e+00
1.23213e-01,3.36643e+00
1.26181e-01,3.11076e+00
1.29221e-01,2.87348e+00
1.32335e-01,2.65335e+00
1.35523e-01,2.44919e+00
1.38788e-01,2.25993e+00
1.42132e-01,2.08453e+00
1.45557e-01,1.92204e+00
1.49064e-01,1.77156e+00
1.52655e-01,1.63224e+00
1.56333e-01,1.50331e+00
1.60100e-01,1.38403e+00
1.63957e-01,1.27371e+00
1.67908e-01,1.17171e+00
1.71953e-01,1.07743e+00
1.76096e-01,9.90322e-01
1.80339e-01,9.09859e-01
1.84684e-01,8.35557e-01
1.89134e-01,7.66966e-01
1.93691e-01,7.03664e-01
1.98357e-01,6.45260e-01
2.03136e-01,5.91390e-01
2.08031e-01,5.41715e-01
2.13043e-01,4.95922e-01
2.18176e-01,4.53718e-01
2.23433e-01,4.14831e-01
2.28816e-01,3.79010e-01
2.34329e-01,3.46021e-01
2.39975e-01,3.15647e-01
2.45757e-01,2.87688e-01
2.51678e-01,2.61957e-01
2.57741e-01,2.38282e-01
2.63951e-01,2.16503e-01
2.70311e-01,1.96473e-01
2.76824e-01,1.78055e-01
2.83493e-01,1.61123e-01
2.90324e-01,1.45560e-01
2.97319e-01,1.31257e-01
3.04482e-01,1.18116e-01
3.11818e-01,1.06043e-01
3.19331e-01,9.49549e-02
3.27025e-01,8.47718e-02
3.34904e-01,7.54218e-02
3.42973e-01,6.68379e-02
3.51237e-01,5.89587e-02
3.59699e-01,5.17274e-02
3.68366e-01,4.50916e-02
3.77241e-01,3.90031e-02
3.86330e-01,3.34176e-02
3.95638e-01,2.82942e-02
4.05171e-01,2.35952e-02
4.14933e-01,1.92860e-02
4.24930e-01,1.53347e-02
4.35168e-01,1.17121e-02
4.45653e-01,8.39110e-03
4.56390e-01,5.34698e-03
4.67386e-01,2.55693e-03
4.78647e-01,0.00000e+00
