m1=5573.386, m2=11.483, gsp=2.396, rhosp=5085.246
fGW[Hz],dPh[rad]
5.90027e-03,9.61206e+04
6.04726e-03,9.12732e+04
6.19791e-03,8.66678e+04
6.35231e-03,8.22925e+04
6.51056e-03,7.81358e+04
6.67275e-03,7.41868e+04
6.83898e-03,7.04352e+04
7.00935e-03,6.68712e+04
7.18397e-03,6.34855e+04
7.36293e-03,6.02691e+04
7.54636e-03,5.72137e+04
7.73435e-03,5.43112e+04
7.92703e-03,5.15540e+04
8.12450e-03,4.89350e+04
8.32690e-03,4.64471e+04
8.53434e-03,4.40840e+04
8.74695e-03,4.18393e+04
8.96485e-03,3.97072e+04
9.18818e-03,3.76821e+04
9.41707e-03,3.57586e+04
9.65167e-03,3.39317e+04
9.89211e-03,3.21966e+04
1.01385e-02,3.05487e+04
1.03911e-02,2.89836e+04
1.06500e-02,2.74972e+04
1.09153e-02,2.60857e+04
1.11872e-02,2.47452e+04
1.14659e-02,2.34722e+04
1.17515e-02,2.22634e+04
1.20443e-02,2.11156e+04
1.23443e-02,2.00256e+04
1.26519e-02,1.89907e+04
1.29670e-02,1.80081e+04
1.32901e-02,1.70751e+04
1.36211e-02,1.61894e+04
1.39605e-02,1.53484e+04
1.43083e-02,1.45501e+04
1.46647e-02,1.37922e+04
1.50300e-02,1.30728e+04
1.54045e-02,1.23899e+04
1.57882e-02,1.17416e+04
1.61815e-02,1.11264e+04
1.65846e-02,1.05424e+04
1.69978e-02,9.98818e+03
1.74212e-02,9.46222e+03
1.78552e-02,8.96309e+03
1.83000e-02,8.48946e+03
1.87559e-02,8.04004e+03
1.92232e-02,7.61362e+03
1.97020e-02,7.20905e+03
2.01929e-02,6.82523e+03
2.06959e-02,6.46112e+03
2.12115e-02,6.11573e+03
2.17399e-02,5.78812e+03
2.22815e-02,5.47739e+03
2.28365e-02,5.18270e+03
2.34054e-02,4.90323e+03
2.39885e-02,4.63823e+03
2.45861e-02,4.38696e+03
2.51986e-02,4.14872e+03
2.58263e-02,3.92288e+03
2.64697e-02,3.70879e+03
2.71291e-02,3.50586e+03
2.78050e-02,3.31353e+03
2.84977e-02,3.13127e+03
2.92076e-02,2.95855e+03
2.99352e-02,2.79491e+03
3.06809e-02,2.63988e+03
3.14453e-02,2.49302e+03
3.22286e-02,2.35392e+03
3.30315e-02,2.22218e+03
3.38544e-02,2.09743e+03
3.46977e-02,1.97931e+03
3.55621e-02,1.86748e+03
3.64480e-02,1.76163e+03
3.73560e-02,1.66144e+03
3.82866e-02,1.56663e+03
3.92404e-02,1.47692e+03
4.02180e-02,1.39205e+03
4.12199e-02,1.31177e+03
4.22468e-02,1.23585e+03
4.32992e-02,1.16405e+03
4.43779e-02,1.09618e+03
4.54834e-02,1.03201e+03
4.66165e-02,9.71368e+02
4.77778e-02,9.14063e+02
4.89680e-02,8.59924e+02
5.01879e-02,8.08785e+02
5.14382e-02,7.60489e+02
5.27196e-02,7.14888e+02
5.40329e-02,6.71841e+02
5.53790e-02,6.31213e+02
5.67586e-02,5.92876e+02
5.81725e-02,5.56710e+02
5.96217e-02,5.22600e+02
6.11070e-02,4.90436e+02
6.26293e-02,4.60115e+02
6.41895e-02,4.31539e+02
6.57886e-02,4.04614e+02
6.74275e-02,3.79251e+02
6.91072e-02,3.55366e+02
7.08288e-02,3.32880e+02
7.25933e-02,3.11715e+02
7.44017e-02,2.91802e+02
7.62552e-02,2.73069e+02
7.81549e-02,2.55455e+02
8.01019e-02,2.38895e+02
8.20974e-02,2.23333e+02
8.41426e-02,2.08712e+02
8.62387e-02,1.94981e+02
8.83871e-02,1.82089e+02
9.05890e-02,1.69990e+02
9.28457e-02,1.58637e+02
9.51586e-02,1.47990e+02
9.75292e-02,1.38007e+02
9.99589e-02,1.28650e+02
1.02449e-01,1.19884e+02
1.05001e-01,1.11674e+02
1.07617e-01,1.03988e+02
1.10298e-01,9.67950e+01
1.13046e-01,9.00656e+01
1.15862e-01,8.37727e+01
1.18748e-01,7.78902e+01
1.21706e-01,7.23934e+01
1.24738e-01,6.72592e+01
1.27846e-01,6.24654e+01
1.31031e-01,5.79914e+01
1.34295e-01,5.38175e+01
1.37640e-01,4.99250e+01
1.41069e-01,4.62966e+01
1.44584e-01,4.29156e+01
1.48185e-01,3.97664e+01
1.51877e-01,3.68345e+01
1.55661e-01,3.41059e+01
1.59538e-01,3.15675e+01
1.63513e-01,2.92070e+01
1.67586e-01,2.70130e+01
1.71761e-01,2.49744e+01
1.76040e-01,2.30810e+01
1.80425e-01,2.13232e+01
1.84920e-01,1.96919e+01
1.89527e-01,1.81787e+01
1.94248e-01,1.67755e+01
1.99087e-01,1.54749e+01
2.04047e-01,1.42698e+01
2.09130e-01,1.31537e+01
2.14340e-01,1.21203e+01
2.19680e-01,1.11639e+01
2.25152e-01,1.02792e+01
2.30761e-01,9.46096e+00
2.36510e-01,8.70455e+00
2.42402e-01,8.00554e+00
2.48440e-01,7.35980e+00
2.54630e-01,6.76348e+00
2.60973e-01,6.21300e+00
2.67474e-01,5.70499e+00
2.74137e-01,5.23634e+00
2.80967e-01,4.80414e+00
2.87966e-01,4.40569e+00
2.95140e-01,4.03846e+00
3.02492e-01,3.70012e+00
3.10028e-01,3.38848e+00
3.17751e-01,3.10153e+00
3.25667e-01,2.83738e+00
3.33780e-01,2.59429e+00
3.42095e-01,2.37065e+00
3.50617e-01,2.16496e+00
3.59352e-01,1.97582e+00
3.68304e-01,1.80195e+00
3.77479e-01,1.64216e+00
3.86883e-01,1.49534e+00
3.96521e-01,1.36047e+00
4.06399e-01,1.23661e+00
4.16523e-01,1.12289e+00
4.26899e-01,1.01849e+00
4.37534e-01,9.22684e-01
4.48434e-01,8.34771e-01
4.59605e-01,7.54120e-01
4.71055e-01,6.80146e-01
4.82790e-01,6.12309e-01
4.94817e-01,5.50113e-01
5.07144e-01,4.93097e-01
5.19778e-01,4.40841e-01
5.32726e-01,3.92953e-01
5.45998e-01,3.49078e-01
5.59599e-01,3.08884e-01
5.73540e-01,2.72069e-01
5.87828e-01,2.38353e-01
6.02472e-01,2.07481e-01
6.17481e-01,1.79216e-01
6.32863e-01,1.53341e-01
6.48629e-01,1.29658e-01
6.64787e-01,1.07984e-01
6.81349e-01,8.81499e-02
6.98322e-01,7.00026e-02
7.15719e-01,5.34004e-02
7.33549e-01,3.82134e-02
7.51823e-01,2.43223e-02
7.70552e-01,1.16179e-02
7.89748e-01,0.00000e+00
