m1=130911.520, m2=3.718, gsp=2.130, rhosp=6263.577
fGW[Hz],dPh[rad]
4.08971e-03,1.85293e+03
4.13322e-03,1.77975e+03
4.17719e-03,1.70943e+03
4.22162e-03,1.64186e+03
4.26653e-03,1.57693e+03
4.31192e-03,1.51454e+03
4.35778e-03,1.45459e+03
4.40414e-03,1.39700e+03
4.45099e-03,1.34166e+03
4.49834e-03,1.28849e+03
4.54619e-03,1.23740e+03
4.59455e-03,1.18832e+03
4.64343e-03,1.14117e+03
4.69282e-03,1.09588e+03
4.74274e-03,1.05236e+03
4.79319e-03,1.01056e+03
4.84418e-03,9.70401e+02
4.89571e-03,9.31824e+02
4.94779e-03,8.94768e+02
5.00042e-03,8.59172e+02
5.05361e-03,8.24980e+02
5.10737e-03,7.92137e+02
5.16170e-03,7.60591e+02
5.21661e-03,7.30291e+02
5.27210e-03,7.01188e+02
5.32819e-03,6.73235e+02
5.38487e-03,6.46387e+02
5.44215e-03,6.20602e+02
5.50004e-03,5.95837e+02
5.55855e-03,5.72053e+02
5.61768e-03,5.49211e+02
5.67743e-03,5.27274e+02
5.73783e-03,5.06207e+02
5.79887e-03,4.85975e+02
5.86055e-03,4.66546e+02
5.92289e-03,4.47887e+02
5.98590e-03,4.29970e+02
6.04958e-03,4.12764e+02
6.11393e-03,3.96242e+02
6.17897e-03,3.80376e+02
6.24470e-03,3.65141e+02
6.31112e-03,3.50512e+02
6.37826e-03,3.36465e+02
6.44611e-03,3.22977e+02
6.51468e-03,3.10026e+02
6.58398e-03,2.97591e+02
6.65402e-03,2.85651e+02
6.72480e-03,2.74186e+02
6.79634e-03,2.63179e+02
6.86863e-03,2.52611e+02
6.94170e-03,2.42464e+02
7.01554e-03,2.32722e+02
7.09017e-03,2.23368e+02
7.16559e-03,2.14388e+02
7.24182e-03,2.05767e+02
7.31885e-03,1.97489e+02
7.39671e-03,1.89543e+02
7.47539e-03,1.81914e+02
7.55491e-03,1.74590e+02
7.63528e-03,1.67558e+02
7.71650e-03,1.60808e+02
7.79859e-03,1.54328e+02
7.88154e-03,1.48107e+02
7.96538e-03,1.42135e+02
8.05012e-03,1.36402e+02
8.13575e-03,1.30899e+02
8.22230e-03,1.25616e+02
8.30976e-03,1.20544e+02
8.39816e-03,1.15676e+02
8.48749e-03,1.11003e+02
8.57778e-03,1.06517e+02
8.66903e-03,1.02211e+02
8.76125e-03,9.80772e+01
8.85444e-03,9.41095e+01
8.94863e-03,9.03009e+01
9.04383e-03,8.66452e+01
9.14003e-03,8.31361e+01
9.23726e-03,7.97678e+01
9.33552e-03,7.65348e+01
9.43483e-03,7.34315e+01
9.53519e-03,7.04529e+01
9.63663e-03,6.75939e+01
9.73914e-03,6.48497e+01
9.84274e-03,6.22158e+01
9.94744e-03,5.96877e+01
1.00533e-02,5.72612e+01
1.01602e-02,5.49322e+01
1.02683e-02,5.26969e+01
1.03775e-02,5.05514e+01
1.04879e-02,4.84922e+01
1.05995e-02,4.65158e+01
1.07122e-02,4.46189e+01
1.08262e-02,4.27984e+01
1.09413e-02,4.10511e+01
1.10577e-02,3.93741e+01
1.11754e-02,3.77646e+01
1.12942e-02,3.62199e+01
1.14144e-02,3.47373e+01
1.15358e-02,3.33145e+01
1.16585e-02,3.19490e+01
1.17825e-02,3.06384e+01
1.19079e-02,2.93806e+01
1.20345e-02,2.81736e+01
1.21626e-02,2.70151e+01
1.22919e-02,2.59033e+01
1.24227e-02,2.48363e+01
1.25548e-02,2.38123e+01
1.26884e-02,2.28296e+01
1.28234e-02,2.18865e+01
1.29598e-02,2.09815e+01
1.30976e-02,2.01129e+01
1.32370e-02,1.92793e+01
1.33778e-02,1.84794e+01
1.35201e-02,1.77117e+01
1.36639e-02,1.69750e+01
1.38093e-02,1.62680e+01
1.39562e-02,1.55895e+01
1.41046e-02,1.49384e+01
1.42547e-02,1.43136e+01
1.44063e-02,1.37140e+01
1.45595e-02,1.31386e+01
1.47144e-02,1.25864e+01
1.48710e-02,1.20565e+01
1.50291e-02,1.15480e+01
1.51890e-02,1.10600e+01
1.53506e-02,1.05917e+01
1.55139e-02,1.01424e+01
1.56789e-02,9.71113e+00
1.58457e-02,9.29733e+00
1.60143e-02,8.90023e+00
1.61846e-02,8.51918e+00
1.63568e-02,8.15352e+00
1.65308e-02,7.80262e+00
1.67066e-02,7.46591e+00
1.68843e-02,7.14280e+00
1.70640e-02,6.83274e+00
1.72455e-02,6.53521e+00
1.74289e-02,6.24971e+00
1.76143e-02,5.97574e+00
1.78017e-02,5.71285e+00
1.79911e-02,5.46058e+00
1.81824e-02,5.21851e+00
1.83759e-02,4.98623e+00
1.85713e-02,4.76333e+00
1.87689e-02,4.54945e+00
1.89686e-02,4.34421e+00
1.91703e-02,4.14727e+00
1.93743e-02,3.95830e+00
1.95804e-02,3.77697e+00
1.97886e-02,3.60296e+00
1.99991e-02,3.43600e+00
2.02119e-02,3.27579e+00
2.04269e-02,3.12206e+00
2.06442e-02,2.97455e+00
2.08638e-02,2.83300e+00
2.10857e-02,2.69718e+00
2.13100e-02,2.56685e+00
2.15367e-02,2.44180e+00
2.17658e-02,2.32180e+00
2.19974e-02,2.20666e+00
2.22314e-02,2.09618e+00
2.24679e-02,1.99017e+00
2.27069e-02,1.88845e+00
2.29484e-02,1.79085e+00
2.31925e-02,1.69719e+00
2.34392e-02,1.60733e+00
2.36886e-02,1.52110e+00
2.39406e-02,1.43836e+00
2.41952e-02,1.35897e+00
2.44526e-02,1.28280e+00
2.47127e-02,1.20970e+00
2.49756e-02,1.13957e+00
2.52413e-02,1.07228e+00
2.55098e-02,1.00771e+00
2.57812e-02,9.45749e-01
2.60554e-02,8.86301e-01
2.63326e-02,8.29260e-01
2.66127e-02,7.74528e-01
2.68958e-02,7.22011e-01
2.71819e-02,6.71622e-01
2.74710e-02,6.23272e-01
2.77633e-02,5.76881e-01
2.80586e-02,5.32368e-01
2.83571e-02,4.89657e-01
2.86587e-02,4.48676e-01
2.89636e-02,4.09355e-01
2.92717e-02,3.71626e-01
2.95831e-02,3.35425e-01
2.98978e-02,3.00691e-01
3.02158e-02,2.67363e-01
3.05372e-02,2.35385e-01
3.08621e-02,2.04702e-01
3.11904e-02,1.75262e-01
3.15222e-02,1.47014e-01
3.18575e-02,1.19911e-01
3.21964e-02,9.39054e-02
3.25389e-02,6.89534e-02
3.28850e-02,4.50121e-02
3.32348e-02,2.20408e-02
3.35884e-02,0.00000e+00
