m1=5270.420, m2=7.344, gsp=2.347, rhosp=1526.384
fGW[Hz],dPh[rad]
7.07474e-03,5.05188e+04
7.24640e-03,4.79797e+04
7.42222e-03,4.55666e+04
7.60231e-03,4.32731e+04
7.78676e-03,4.10935e+04
7.97569e-03,3.90220e+04
8.16921e-03,3.70534e+04
8.36742e-03,3.51827e+04
8.57044e-03,3.34049e+04
8.77839e-03,3.17155e+04
8.99138e-03,3.01101e+04
9.20954e-03,2.85846e+04
9.43300e-03,2.71350e+04
9.66187e-03,2.57577e+04
9.89630e-03,2.44489e+04
1.01364e-02,2.32054e+04
1.03824e-02,2.20240e+04
1.06343e-02,2.09015e+04
1.08923e-02,1.98350e+04
1.11566e-02,1.88218e+04
1.14273e-02,1.78593e+04
1.17045e-02,1.69449e+04
1.19885e-02,1.60762e+04
1.22794e-02,1.52511e+04
1.25773e-02,1.44673e+04
1.28825e-02,1.37228e+04
1.31951e-02,1.30157e+04
1.35152e-02,1.23441e+04
1.38432e-02,1.17062e+04
1.41790e-02,1.11004e+04
1.45231e-02,1.05251e+04
1.48754e-02,9.97879e+03
1.52364e-02,9.46002e+03
1.56061e-02,8.96742e+03
1.59847e-02,8.49970e+03
1.63725e-02,8.05563e+03
1.67698e-02,7.63403e+03
1.71767e-02,7.23378e+03
1.75935e-02,6.85383e+03
1.80203e-02,6.49316e+03
1.84576e-02,6.15082e+03
1.89054e-02,5.82590e+03
1.93641e-02,5.51753e+03
1.98339e-02,5.22488e+03
2.03152e-02,4.94718e+03
2.08081e-02,4.68367e+03
2.13130e-02,4.43365e+03
2.18301e-02,4.19645e+03
2.23598e-02,3.97143e+03
2.29023e-02,3.75797e+03
2.34580e-02,3.55551e+03
2.40271e-02,3.36348e+03
2.46101e-02,3.18138e+03
2.52072e-02,3.00869e+03
2.58188e-02,2.84495e+03
2.64453e-02,2.68972e+03
2.70869e-02,2.54255e+03
2.77441e-02,2.40306e+03
2.84173e-02,2.27084e+03
2.91068e-02,2.14554e+03
2.98130e-02,2.02681e+03
3.05364e-02,1.91432e+03
3.12773e-02,1.80774e+03
3.20362e-02,1.70679e+03
3.28135e-02,1.61117e+03
3.36097e-02,1.52062e+03
3.44251e-02,1.43488e+03
3.52604e-02,1.35370e+03
3.61159e-02,1.27686e+03
3.69922e-02,1.20413e+03
3.78898e-02,1.13531e+03
3.88091e-02,1.07018e+03
3.97507e-02,1.00858e+03
4.07152e-02,9.50301e+02
4.17031e-02,8.95188e+02
4.27150e-02,8.43076e+02
4.37514e-02,7.93810e+02
4.48129e-02,7.47242e+02
4.59002e-02,7.03234e+02
4.70139e-02,6.61652e+02
4.81546e-02,6.22371e+02
4.93230e-02,5.85270e+02
5.05198e-02,5.50237e+02
5.17455e-02,5.17163e+02
5.30010e-02,4.85945e+02
5.42870e-02,4.56485e+02
5.56042e-02,4.28692e+02
5.69533e-02,4.02477e+02
5.83352e-02,3.77757e+02
5.97506e-02,3.54451e+02
6.12004e-02,3.32485e+02
6.26853e-02,3.11787e+02
6.42062e-02,2.92288e+02
6.57641e-02,2.73925e+02
6.73597e-02,2.56636e+02
6.89941e-02,2.40363e+02
7.06681e-02,2.25050e+02
7.23828e-02,2.10646e+02
7.41390e-02,1.97099e+02
7.59379e-02,1.84363e+02
7.77804e-02,1.72393e+02
7.96676e-02,1.61147e+02
8.16006e-02,1.50584e+02
8.35804e-02,1.40666e+02
8.56084e-02,1.31357e+02
8.76855e-02,1.22621e+02
8.98131e-02,1.14428e+02
9.19922e-02,1.06744e+02
9.42242e-02,9.95423e+01
9.65104e-02,9.27939e+01
9.88521e-02,8.64726e+01
1.01251e-01,8.05537e+01
1.03707e-01,7.50135e+01
1.06224e-01,6.98296e+01
1.08801e-01,6.49810e+01
1.11441e-01,6.04477e+01
1.14145e-01,5.62107e+01
1.16914e-01,5.22522e+01
1.19751e-01,4.85553e+01
1.22656e-01,4.51040e+01
1.25632e-01,4.18832e+01
1.28681e-01,3.88788e+01
1.31803e-01,3.60771e+01
1.35001e-01,3.34657e+01
1.38276e-01,3.10324e+01
1.41631e-01,2.87660e+01
1.45068e-01,2.66560e+01
1.48588e-01,2.46922e+01
1.52193e-01,2.28652e+01
1.55886e-01,2.11662e+01
1.59668e-01,1.95867e+01
1.63542e-01,1.81191e+01
1.67510e-01,1.67557e+01
1.71574e-01,1.54898e+01
1.75737e-01,1.43148e+01
1.80001e-01,1.32245e+01
1.84369e-01,1.22133e+01
1.88842e-01,1.12757e+01
1.93424e-01,1.04067e+01
1.98117e-01,9.60159e+00
2.02924e-01,8.85591e+00
2.07848e-01,8.16551e+00
2.12891e-01,7.52653e+00
2.18056e-01,6.93534e+00
2.23347e-01,6.38854e+00
2.28766e-01,5.88297e+00
2.34317e-01,5.41568e+00
2.40002e-01,4.98391e+00
2.45825e-01,4.58508e+00
2.51790e-01,4.21679e+00
2.57899e-01,3.87681e+00
2.64156e-01,3.56306e+00
2.70566e-01,3.27360e+00
2.77131e-01,3.00662e+00
2.83855e-01,2.76045e+00
2.90742e-01,2.53354e+00
2.97796e-01,2.32442e+00
3.05022e-01,2.13176e+00
3.12423e-01,1.95431e+00
3.20003e-01,1.79090e+00
3.27767e-01,1.64047e+00
3.35720e-01,1.50202e+00
3.43866e-01,1.37461e+00
3.52209e-01,1.25741e+00
3.60755e-01,1.14961e+00
3.69508e-01,1.05048e+00
3.78473e-01,9.59351e-01
3.87656e-01,8.75585e-01
3.97062e-01,7.98606e-01
4.06696e-01,7.27877e-01
4.16564e-01,6.62904e-01
4.26671e-01,6.03229e-01
4.37023e-01,5.48430e-01
4.47627e-01,4.98118e-01
4.58488e-01,4.51932e-01
4.69612e-01,4.09542e-01
4.81007e-01,3.70642e-01
4.92677e-01,3.34949e-01
5.04631e-01,3.02204e-01
5.16875e-01,2.72169e-01
5.29416e-01,2.44622e-01
5.42262e-01,2.19362e-01
5.55419e-01,1.96201e-01
5.68895e-01,1.74967e-01
5.82698e-01,1.55504e-01
5.96837e-01,1.37664e-01
6.11318e-01,1.21315e-01
6.26150e-01,1.06334e-01
6.41343e-01,9.26070e-02
6.56904e-01,8.00315e-02
6.72842e-01,6.85116e-02
6.89168e-01,5.79598e-02
7.05889e-01,4.82956e-02
7.23016e-01,3.94452e-02
7.40559e-01,3.13407e-02
7.58528e-01,2.39200e-02
7.76932e-01,1.71258e-02
7.95783e-01,1.09058e-02
8.15091e-01,5.21193e-03
8.34868e-01,0.00000e+00
