m1=1090.368, m2=4.844, gsp=2.079, rhosp=8151.855
fGW[Hz],dPh[rad]
1.22659e-02,3.25917e+02
1.26286e-02,3.04915e+02
1.30019e-02,2.85264e+02
1.33862e-02,2.66877e+02
1.37820e-02,2.49674e+02
1.41894e-02,2.33578e+02
1.46089e-02,2.18518e+02
1.50407e-02,2.04427e+02
1.54854e-02,1.91243e+02
1.59431e-02,1.78908e+02
1.64144e-02,1.67367e+02
1.68997e-02,1.56569e+02
1.73993e-02,1.46466e+02
1.79136e-02,1.37013e+02
1.84432e-02,1.28170e+02
1.89884e-02,1.19895e+02
1.95498e-02,1.12154e+02
2.01277e-02,1.04911e+02
2.07227e-02,9.81347e+01
2.13353e-02,9.17948e+01
2.19660e-02,8.58634e+01
2.26154e-02,8.03140e+01
2.32839e-02,7.51222e+01
2.39723e-02,7.02649e+01
2.46809e-02,6.57207e+01
2.54105e-02,6.14693e+01
2.61617e-02,5.74919e+01
2.69351e-02,5.37710e+01
2.77314e-02,5.02899e+01
2.85512e-02,4.70332e+01
2.93952e-02,4.39866e+01
3.02642e-02,4.11364e+01
3.11589e-02,3.84701e+01
3.20800e-02,3.59758e+01
3.30283e-02,3.36425e+01
3.40047e-02,3.14597e+01
3.50099e-02,2.94178e+01
3.60449e-02,2.75076e+01
3.71105e-02,2.57209e+01
3.82075e-02,2.40495e+01
3.93370e-02,2.24860e+01
4.04999e-02,2.10235e+01
4.16972e-02,1.96556e+01
4.29298e-02,1.83760e+01
4.41989e-02,1.71792e+01
4.55055e-02,1.60597e+01
4.68507e-02,1.50126e+01
4.82358e-02,1.40333e+01
4.96617e-02,1.31173e+01
5.11298e-02,1.22607e+01
5.26413e-02,1.14594e+01
5.41975e-02,1.07101e+01
5.57997e-02,1.00093e+01
5.74492e-02,9.35391e+00
5.91475e-02,8.74101e+00
6.08960e-02,8.16785e+00
6.26963e-02,7.63187e+00
6.45497e-02,7.13067e+00
6.64579e-02,6.66201e+00
6.84225e-02,6.22378e+00
7.04452e-02,5.81403e+00
7.25277e-02,5.43091e+00
7.46718e-02,5.07271e+00
7.68793e-02,4.73781e+00
7.91520e-02,4.42471e+00
8.14919e-02,4.13200e+00
8.39009e-02,3.85837e+00
8.63812e-02,3.60257e+00
8.89348e-02,3.36347e+00
9.15639e-02,3.13997e+00
9.42707e-02,2.93107e+00
9.70575e-02,2.73583e+00
9.99267e-02,2.55335e+00
1.02881e-01,2.38282e+00
1.05922e-01,2.22346e+00
1.09053e-01,2.07455e+00
1.12277e-01,1.93540e+00
1.15596e-01,1.80539e+00
1.19014e-01,1.68393e+00
1.22532e-01,1.57045e+00
1.26154e-01,1.46445e+00
1.29884e-01,1.36543e+00
1.33723e-01,1.27294e+00
1.37676e-01,1.18656e+00
1.41746e-01,1.10589e+00
1.45937e-01,1.03056e+00
1.50251e-01,9.60224e-01
1.54693e-01,8.94552e-01
1.59266e-01,8.33243e-01
1.63974e-01,7.76011e-01
1.68821e-01,7.22591e-01
1.73812e-01,6.72734e-01
1.78950e-01,6.26207e-01
1.84240e-01,5.82793e-01
1.89687e-01,5.42288e-01
1.95294e-01,5.04501e-01
2.01068e-01,4.69255e-01
2.07011e-01,4.36382e-01
2.13131e-01,4.05728e-01
2.19432e-01,3.77145e-01
2.25919e-01,3.50498e-01
2.32597e-01,3.25660e-01
2.39473e-01,3.02511e-01
2.46553e-01,2.80940e-01
2.53841e-01,2.60842e-01
2.61345e-01,2.42120e-01
2.69071e-01,2.24684e-01
2.77025e-01,2.08447e-01
2.85215e-01,1.93330e-01
2.93646e-01,1.79258e-01
3.02327e-01,1.66163e-01
3.11264e-01,1.53978e-01
3.20466e-01,1.42643e-01
3.29940e-01,1.32102e-01
3.39693e-01,1.22300e-01
3.49735e-01,1.13188e-01
3.60074e-01,1.04720e-01
3.70719e-01,9.68519e-02
3.81678e-01,8.95436e-02
3.92961e-01,8.27569e-02
4.04578e-01,7.64565e-02
4.16538e-01,7.06093e-02
4.28852e-01,6.51841e-02
4.41529e-01,6.01523e-02
4.54582e-01,5.54867e-02
4.68020e-01,5.11621e-02
4.81856e-01,4.71550e-02
4.96100e-01,4.34433e-02
5.10766e-01,4.00066e-02
5.25866e-01,3.68255e-02
5.41411e-01,3.38823e-02
5.57416e-01,3.11602e-02
5.73895e-01,2.86436e-02
5.90860e-01,2.63179e-02
6.08327e-01,2.41695e-02
6.26311e-01,2.21859e-02
6.44826e-01,2.03550e-02
6.63888e-01,1.86661e-02
6.83514e-01,1.71086e-02
7.03720e-01,1.56732e-02
7.24523e-01,1.43508e-02
7.45942e-01,1.31332e-02
7.67993e-01,1.20125e-02
7.90696e-01,1.09817e-02
8.14071e-01,1.00339e-02
8.38137e-01,9.16297e-03
8.62914e-01,8.36304e-03
8.88423e-01,7.62874e-03
9.14687e-01,6.95503e-03
9.41727e-01,6.33725e-03
9.69566e-01,5.77107e-03
9.98228e-01,5.25246e-03
1.02774e+00,4.77769e-03
1.05812e+00,4.34330e-03
1.08940e+00,3.94607e-03
1.12160e+00,3.58304e-03
1.15476e+00,3.25143e-03
1.18890e+00,2.94872e-03
1.22405e+00,2.67253e-03
1.26023e+00,2.42068e-03
1.29749e+00,2.19116e-03
1.33584e+00,1.98210e-03
1.37533e+00,1.79180e-03
1.41599e+00,1.61865e-03
1.45785e+00,1.46121e-03
1.50095e+00,1.31813e-03
1.54532e+00,1.18817e-03
1.59100e+00,1.07019e-03
1.63803e+00,9.63137e-04
1.68646e+00,8.66060e-04
1.73631e+00,7.78071e-04
1.78764e+00,6.98362e-04
1.84049e+00,6.26190e-04
1.89489e+00,5.60875e-04
1.95091e+00,5.01793e-04
2.00858e+00,4.48378e-04
2.06796e+00,4.00106e-04
2.12910e+00,3.56505e-04
2.19204e+00,3.17139e-04
2.25684e+00,2.81613e-04
2.32355e+00,2.49567e-04
2.39224e+00,2.20672e-04
2.46296e+00,1.94629e-04
2.53577e+00,1.71165e-04
2.61073e+00,1.50035e-04
2.68791e+00,1.31012e-04
2.76737e+00,1.13894e-04
2.84918e+00,9.84944e-05
2.93341e+00,8.46465e-05
3.02013e+00,7.21979e-05
3.10941e+00,6.10110e-05
3.20133e+00,5.09610e-05
3.29597e+00,4.19352e-05
3.39340e+00,3.38318e-05
3.49372e+00,2.65585e-05
3.59700e+00,2.00322e-05
3.70333e+00,1.41777e-05
3.81281e+00,8.92725e-06
3.92552e+00,4.21972e-06
4.04157e+00,0.00000e+00
