m1=27753.326, m2=7.008, gsp=2.285, rhosp=129.652
fGW[Hz],dPh[rad]
4.75220e-03,2.26664e+04
4.83668e-03,2.16355e+04
4.92267e-03,2.06484e+04
5.01019e-03,1.97034e+04
5.09926e-03,1.87988e+04
5.18992e-03,1.79329e+04
5.28219e-03,1.71043e+04
5.37610e-03,1.63114e+04
5.47168e-03,1.55528e+04
5.56896e-03,1.48271e+04
5.66797e-03,1.41330e+04
5.76873e-03,1.34691e+04
5.87129e-03,1.28344e+04
5.97568e-03,1.22275e+04
6.08192e-03,1.16474e+04
6.19004e-03,1.10929e+04
6.30009e-03,1.05631e+04
6.41210e-03,1.00568e+04
6.52610e-03,9.57314e+03
6.64212e-03,9.11115e+03
6.76021e-03,8.66994e+03
6.88040e-03,8.24865e+03
7.00272e-03,7.84643e+03
7.12722e-03,7.46250e+03
7.25393e-03,7.09608e+03
7.38290e-03,6.74643e+03
7.51415e-03,6.41285e+03
7.64774e-03,6.09466e+03
7.78371e-03,5.79119e+03
7.92209e-03,5.50182e+03
8.06294e-03,5.22595e+03
8.20628e-03,4.96299e+03
8.35218e-03,4.71238e+03
8.50067e-03,4.47360e+03
8.65180e-03,4.24612e+03
8.80561e-03,4.02946e+03
8.96217e-03,3.82313e+03
9.12150e-03,3.62668e+03
9.28367e-03,3.43968e+03
9.44872e-03,3.26171e+03
9.61670e-03,3.09236e+03
9.78767e-03,2.93126e+03
9.96168e-03,2.77802e+03
1.01388e-02,2.63229e+03
1.03190e-02,2.49374e+03
1.05025e-02,2.36203e+03
1.06892e-02,2.23686e+03
1.08793e-02,2.11793e+03
1.10727e-02,2.00494e+03
1.12695e-02,1.89763e+03
1.14699e-02,1.79572e+03
1.16738e-02,1.69897e+03
1.18813e-02,1.60713e+03
1.20926e-02,1.51998e+03
1.23076e-02,1.43729e+03
1.25264e-02,1.35885e+03
1.27491e-02,1.28445e+03
1.29757e-02,1.21391e+03
1.32064e-02,1.14703e+03
1.34412e-02,1.08365e+03
1.36802e-02,1.02358e+03
1.39234e-02,9.66673e+02
1.41709e-02,9.12767e+02
1.44229e-02,8.61718e+02
1.46793e-02,8.13381e+02
1.49403e-02,7.67624e+02
1.52059e-02,7.24318e+02
1.54762e-02,6.83338e+02
1.57514e-02,6.44569e+02
1.60314e-02,6.07898e+02
1.63164e-02,5.73219e+02
1.66065e-02,5.40429e+02
1.69017e-02,5.09433e+02
1.72022e-02,4.80138e+02
1.75081e-02,4.52456e+02
1.78193e-02,4.26303e+02
1.81361e-02,4.01599e+02
1.84586e-02,3.78269e+02
1.87867e-02,3.56240e+02
1.91207e-02,3.35444e+02
1.94607e-02,3.15816e+02
1.98067e-02,2.97292e+02
2.01588e-02,2.79815e+02
2.05172e-02,2.63327e+02
2.08820e-02,2.47777e+02
2.12532e-02,2.33112e+02
2.16311e-02,2.19285e+02
2.20156e-02,2.06251e+02
2.24070e-02,1.93965e+02
2.28054e-02,1.82388e+02
2.32108e-02,1.71479e+02
2.36235e-02,1.61202e+02
2.40435e-02,1.51522e+02
2.44710e-02,1.42406e+02
2.49060e-02,1.33822e+02
2.53488e-02,1.25740e+02
2.57995e-02,1.18132e+02
2.62581e-02,1.10972e+02
2.67250e-02,1.04233e+02
2.72001e-02,9.78930e+01
2.76837e-02,9.19281e+01
2.81759e-02,8.63172e+01
2.86768e-02,8.10399e+01
2.91866e-02,7.60771e+01
2.97055e-02,7.14107e+01
3.02336e-02,6.70235e+01
3.07712e-02,6.28994e+01
3.13182e-02,5.90230e+01
3.18750e-02,5.53800e+01
3.24417e-02,5.19567e+01
3.30185e-02,4.87403e+01
3.36055e-02,4.57185e+01
3.42029e-02,4.28799e+01
3.48110e-02,4.02138e+01
3.54299e-02,3.77099e+01
3.60598e-02,3.53586e+01
3.67009e-02,3.31508e+01
3.73534e-02,3.10780e+01
3.80175e-02,2.91321e+01
3.86934e-02,2.73056e+01
3.93813e-02,2.55913e+01
4.00814e-02,2.39823e+01
4.07940e-02,2.24725e+01
4.15193e-02,2.10559e+01
4.22574e-02,1.97267e+01
4.30087e-02,1.84797e+01
4.37733e-02,1.73099e+01
4.45516e-02,1.62127e+01
4.53436e-02,1.51835e+01
4.61498e-02,1.42184e+01
4.69703e-02,1.33132e+01
4.78053e-02,1.24645e+01
4.86552e-02,1.16687e+01
4.95202e-02,1.09226e+01
5.04006e-02,1.02231e+01
5.12967e-02,9.56735e+00
5.22087e-02,8.95268e+00
5.31369e-02,8.37654e+00
5.40816e-02,7.83655e+00
5.50431e-02,7.33047e+00
5.60216e-02,6.85621e+00
5.70176e-02,6.41178e+00
5.80313e-02,5.99534e+00
5.90630e-02,5.60515e+00
6.01131e-02,5.23956e+00
6.11818e-02,4.89705e+00
6.22695e-02,4.57618e+00
6.33766e-02,4.27560e+00
6.45033e-02,3.99403e+00
6.56501e-02,3.73029e+00
6.68173e-02,3.48325e+00
6.80052e-02,3.25188e+00
6.92142e-02,3.03519e+00
7.04448e-02,2.83226e+00
7.16972e-02,2.64221e+00
7.29718e-02,2.46425e+00
7.42692e-02,2.29760e+00
7.55896e-02,2.14156e+00
7.69335e-02,1.99545e+00
7.83012e-02,1.85865e+00
7.96933e-02,1.73058e+00
8.11101e-02,1.61066e+00
8.25522e-02,1.49840e+00
8.40198e-02,1.39331e+00
8.55136e-02,1.29493e+00
8.70339e-02,1.20283e+00
8.85812e-02,1.11663e+00
9.01561e-02,1.03593e+00
9.17589e-02,9.60400e-01
9.33902e-02,8.89704e-01
9.50506e-02,8.23534e-01
9.67404e-02,7.61603e-01
9.84603e-02,7.03640e-01
1.00211e-01,6.49394e-01
1.01992e-01,5.98626e-01
1.03806e-01,5.51116e-01
1.05651e-01,5.06654e-01
1.07530e-01,4.65047e-01
1.09441e-01,4.26112e-01
1.11387e-01,3.89678e-01
1.13367e-01,3.55585e-01
1.15383e-01,3.23683e-01
1.17434e-01,2.93832e-01
1.19522e-01,2.65902e-01
1.21647e-01,2.39768e-01
1.23810e-01,2.15316e-01
1.26011e-01,1.92437e-01
1.28251e-01,1.71032e-01
1.30531e-01,1.51005e-01
1.32852e-01,1.32268e-01
1.35214e-01,1.14738e-01
1.37618e-01,9.83380e-02
1.40064e-01,8.29949e-02
1.42554e-01,6.86410e-02
1.45089e-01,5.52126e-02
1.47668e-01,4.26503e-02
1.50294e-01,3.08984e-02
1.52966e-01,1.99047e-02
1.55685e-01,9.62047e-03
1.58453e-01,0.00000e+00
