m1=3692.750, m2=14.389, gsp=2.144, rhosp=32.540
fGW[Hz],dPh[rad]
6.01063e-03,1.75046e+02
6.17258e-03,1.64885e+02
6.33889e-03,1.55312e+02
6.50968e-03,1.46293e+02
6.68507e-03,1.37795e+02
6.86519e-03,1.29790e+02
7.05015e-03,1.22248e+02
7.24011e-03,1.15142e+02
7.43518e-03,1.08448e+02
7.63551e-03,1.02142e+02
7.84123e-03,9.62002e+01
8.05250e-03,9.06030e+01
8.26946e-03,8.53299e+01
8.49226e-03,8.03623e+01
8.72107e-03,7.56825e+01
8.95605e-03,7.12738e+01
9.19735e-03,6.71207e+01
9.44516e-03,6.32082e+01
9.69964e-03,5.95225e+01
9.96098e-03,5.60506e+01
1.02294e-02,5.27799e+01
1.05050e-02,4.96989e+01
1.07880e-02,4.67966e+01
1.10787e-02,4.40627e+01
1.13772e-02,4.14875e+01
1.16837e-02,3.90617e+01
1.19985e-02,3.67767e+01
1.23218e-02,3.46243e+01
1.26538e-02,3.25970e+01
1.29947e-02,3.06874e+01
1.33448e-02,2.88888e+01
1.37044e-02,2.71947e+01
1.40736e-02,2.55990e+01
1.44528e-02,2.40962e+01
1.48422e-02,2.26807e+01
1.52421e-02,2.13476e+01
1.56528e-02,2.00921e+01
1.60745e-02,1.89096e+01
1.65076e-02,1.77960e+01
1.69524e-02,1.67472e+01
1.74091e-02,1.57596e+01
1.78782e-02,1.48295e+01
1.83599e-02,1.39537e+01
1.88545e-02,1.31289e+01
1.93625e-02,1.23523e+01
1.98842e-02,1.16210e+01
2.04200e-02,1.09324e+01
2.09701e-02,1.02840e+01
2.15351e-02,9.67352e+00
2.21154e-02,9.09875e+00
2.27112e-02,8.55761e+00
2.33231e-02,8.04814e+00
2.39515e-02,7.56851e+00
2.45969e-02,7.11699e+00
2.52596e-02,6.69193e+00
2.59402e-02,6.29182e+00
2.66391e-02,5.91519e+00
2.73568e-02,5.56068e+00
2.80939e-02,5.22701e+00
2.88508e-02,4.91296e+00
2.96282e-02,4.61739e+00
3.04264e-02,4.33924e+00
3.12462e-02,4.07747e+00
3.20881e-02,3.83115e+00
3.29526e-02,3.59937e+00
3.38405e-02,3.38129e+00
3.47523e-02,3.17610e+00
3.56886e-02,2.98305e+00
3.66502e-02,2.80144e+00
3.76376e-02,2.63060e+00
3.86517e-02,2.46990e+00
3.96931e-02,2.31875e+00
4.07626e-02,2.17659e+00
4.18608e-02,2.04290e+00
4.29887e-02,1.91717e+00
4.41470e-02,1.79895e+00
4.53364e-02,1.68780e+00
4.65579e-02,1.58329e+00
4.78123e-02,1.48505e+00
4.91005e-02,1.39270e+00
5.04235e-02,1.30589e+00
5.17820e-02,1.22431e+00
5.31772e-02,1.14765e+00
5.46100e-02,1.07561e+00
5.60813e-02,1.00793e+00
5.75923e-02,9.44341e-01
5.91441e-02,8.84611e-01
6.07376e-02,8.28510e-01
6.23741e-02,7.75823e-01
6.40546e-02,7.26349e-01
6.57804e-02,6.79898e-01
6.75528e-02,6.36290e-01
6.93729e-02,5.95358e-01
7.12420e-02,5.56941e-01
7.31615e-02,5.20892e-01
7.51327e-02,4.87068e-01
7.71570e-02,4.55339e-01
7.92358e-02,4.25577e-01
8.13707e-02,3.97667e-01
8.35631e-02,3.71497e-01
8.58145e-02,3.46964e-01
8.81267e-02,3.23968e-01
9.05011e-02,3.02418e-01
9.29394e-02,2.82227e-01
9.54435e-02,2.63312e-01
9.80151e-02,2.45597e-01
1.00656e-01,2.29009e-01
1.03368e-01,2.13480e-01
1.06153e-01,1.98945e-01
1.09013e-01,1.85344e-01
1.11950e-01,1.72619e-01
1.14967e-01,1.60718e-01
1.18064e-01,1.49590e-01
1.21245e-01,1.39187e-01
1.24512e-01,1.29465e-01
1.27867e-01,1.20381e-01
1.31312e-01,1.11897e-01
1.34850e-01,1.03974e-01
1.38483e-01,9.65776e-02
1.42214e-01,8.96752e-02
1.46046e-01,8.32357e-02
1.49981e-01,7.72298e-02
1.54022e-01,7.16304e-02
1.58171e-01,6.64115e-02
1.62433e-01,6.15489e-02
1.66810e-01,5.70200e-02
1.71304e-01,5.28033e-02
1.75919e-01,4.88787e-02
1.80659e-01,4.52273e-02
1.85527e-01,4.18315e-02
1.90525e-01,3.86745e-02
1.95659e-01,3.57406e-02
2.00931e-01,3.30152e-02
2.06344e-01,3.04846e-02
2.11904e-01,2.81357e-02
2.17613e-01,2.59564e-02
2.23476e-01,2.39353e-02
2.29497e-01,2.20617e-02
2.35681e-01,2.03257e-02
2.42031e-01,1.87178e-02
2.48552e-01,1.72293e-02
2.55249e-01,1.58518e-02
2.62126e-01,1.45778e-02
2.69188e-01,1.33999e-02
2.76441e-01,1.23114e-02
2.83889e-01,1.13060e-02
2.91538e-01,1.03778e-02
2.99393e-01,9.52119e-03
3.07460e-01,8.73111e-03
3.15744e-01,8.00271e-03
3.24251e-01,7.33148e-03
3.32987e-01,6.71324e-03
3.41959e-01,6.14407e-03
3.51172e-01,5.62031e-03
3.60634e-01,5.13859e-03
3.70351e-01,4.69572e-03
3.80329e-01,4.28877e-03
3.90576e-01,3.91500e-03
4.01100e-01,3.57187e-03
4.11907e-01,3.25700e-03
4.23005e-01,2.96819e-03
4.34402e-01,2.70343e-03
4.46106e-01,2.46080e-03
4.58126e-01,2.23856e-03
4.70469e-01,2.03509e-03
4.83145e-01,1.84888e-03
4.96162e-01,1.67854e-03
5.09530e-01,1.52278e-03
5.23259e-01,1.38042e-03
5.37357e-01,1.25035e-03
5.51835e-01,1.13156e-03
5.66703e-01,1.02312e-03
5.81972e-01,9.24169e-04
5.97652e-01,8.33903e-04
6.13755e-01,7.51594e-04
6.30291e-01,6.76568e-04
6.47273e-01,6.08205e-04
6.64713e-01,5.45936e-04
6.82622e-01,4.89237e-04
7.01014e-01,4.37626e-04
7.19902e-01,3.90664e-04
7.39298e-01,3.47944e-04
7.59218e-01,3.09096e-04
7.79673e-01,2.73779e-04
8.00680e-01,2.41683e-04
8.22253e-01,2.12521e-04
8.44407e-01,1.86033e-04
8.67158e-01,1.61981e-04
8.90522e-01,1.40146e-04
9.14515e-01,1.20328e-04
9.39155e-01,1.02347e-04
9.64459e-01,8.60356e-05
9.90445e-01,7.12422e-05
1.01713e+00,5.78288e-05
1.04454e+00,4.56693e-05
1.07268e+00,3.46488e-05
1.10158e+00,2.46627e-05
1.13126e+00,1.56157e-05
1.16174e+00,7.42113e-06
1.19304e+00,0.00000e+00
