m1=257274.486, m2=75.969, gsp=2.382, rhosp=3649.885
fGW[Hz],dPh[rad]
1.11427e-03,5.69534e+04
1.12966e-03,5.46758e+04
1.14527e-03,5.24833e+04
1.16109e-03,5.03729e+04
1.17713e-03,4.83418e+04
1.19339e-03,4.63874e+04
1.20988e-03,4.45068e+04
1.22660e-03,4.26977e+04
1.24354e-03,4.09574e+04
1.26072e-03,3.92835e+04
1.27814e-03,3.76738e+04
1.29580e-03,3.61259e+04
1.31370e-03,3.46378e+04
1.33185e-03,3.32071e+04
1.35025e-03,3.18320e+04
1.36891e-03,3.05103e+04
1.38782e-03,2.92403e+04
1.40699e-03,2.80200e+04
1.42643e-03,2.68476e+04
1.44614e-03,2.57215e+04
1.46612e-03,2.46398e+04
1.48637e-03,2.36010e+04
1.50691e-03,2.26035e+04
1.52773e-03,2.16459e+04
1.54883e-03,2.07265e+04
1.57023e-03,1.98441e+04
1.59193e-03,1.89971e+04
1.61392e-03,1.81844e+04
1.63622e-03,1.74045e+04
1.65882e-03,1.66564e+04
1.68174e-03,1.59387e+04
1.70497e-03,1.52504e+04
1.72853e-03,1.45902e+04
1.75241e-03,1.39572e+04
1.77662e-03,1.33503e+04
1.80117e-03,1.27685e+04
1.82605e-03,1.22107e+04
1.85128e-03,1.16762e+04
1.87685e-03,1.11639e+04
1.90278e-03,1.06731e+04
1.92907e-03,1.02028e+04
1.95572e-03,9.75233e+03
1.98274e-03,9.32082e+03
2.01014e-03,8.90754e+03
2.03791e-03,8.51177e+03
2.06606e-03,8.13282e+03
2.09461e-03,7.77001e+03
2.12355e-03,7.42269e+03
2.15288e-03,7.09025e+03
2.18263e-03,6.77207e+03
2.21278e-03,6.46759e+03
2.24335e-03,6.17624e+03
2.27435e-03,5.89749e+03
2.30577e-03,5.63083e+03
2.33762e-03,5.37576e+03
2.36992e-03,5.13179e+03
2.40266e-03,4.89848e+03
2.43586e-03,4.67539e+03
2.46951e-03,4.46208e+03
2.50363e-03,4.25814e+03
2.53822e-03,4.06320e+03
2.57328e-03,3.87686e+03
2.60883e-03,3.69878e+03
2.64488e-03,3.52859e+03
2.68142e-03,3.36597e+03
2.71846e-03,3.21059e+03
2.75602e-03,3.06215e+03
2.79410e-03,2.92036e+03
2.83270e-03,2.78491e+03
2.87183e-03,2.65555e+03
2.91151e-03,2.53202e+03
2.95173e-03,2.41405e+03
2.99251e-03,2.30141e+03
3.03386e-03,2.19387e+03
3.07577e-03,2.09121e+03
3.11827e-03,1.99321e+03
3.16135e-03,1.89968e+03
3.20502e-03,1.81041e+03
3.24930e-03,1.72521e+03
3.29419e-03,1.64392e+03
3.33971e-03,1.56635e+03
3.38585e-03,1.49234e+03
3.43262e-03,1.42174e+03
3.48005e-03,1.35439e+03
3.52813e-03,1.29015e+03
3.57687e-03,1.22887e+03
3.62629e-03,1.17043e+03
3.67639e-03,1.11470e+03
3.72718e-03,1.06156e+03
3.77867e-03,1.01089e+03
3.83088e-03,9.62578e+02
3.88380e-03,9.16519e+02
3.93746e-03,8.72611e+02
3.99186e-03,8.30756e+02
4.04701e-03,7.90861e+02
4.10292e-03,7.52836e+02
4.15960e-03,7.16596e+02
4.21707e-03,6.82061e+02
4.27533e-03,6.49150e+02
4.33440e-03,6.17791e+02
4.39428e-03,5.87911e+02
4.45499e-03,5.59444e+02
4.51654e-03,5.32322e+02
4.57894e-03,5.06485e+02
4.64220e-03,4.81873e+02
4.70634e-03,4.58429e+02
4.77136e-03,4.36099e+02
4.83728e-03,4.14831e+02
4.90411e-03,3.94575e+02
4.97186e-03,3.75286e+02
5.04055e-03,3.56916e+02
5.11019e-03,3.39424e+02
5.18079e-03,3.22768e+02
5.25236e-03,3.06910e+02
5.32493e-03,2.91810e+02
5.39850e-03,2.77435e+02
5.47308e-03,2.63750e+02
5.54869e-03,2.50722e+02
5.62535e-03,2.38321e+02
5.70307e-03,2.26516e+02
5.78186e-03,2.15279e+02
5.86174e-03,2.04584e+02
5.94273e-03,1.94405e+02
6.02483e-03,1.84718e+02
6.10807e-03,1.75498e+02
6.19245e-03,1.66724e+02
6.27801e-03,1.58375e+02
6.36474e-03,1.50430e+02
6.45267e-03,1.42870e+02
6.54182e-03,1.35677e+02
6.63220e-03,1.28832e+02
6.72383e-03,1.22320e+02
6.81672e-03,1.16125e+02
6.91090e-03,1.10230e+02
7.00638e-03,1.04622e+02
7.10318e-03,9.92879e+01
7.20131e-03,9.42131e+01
7.30080e-03,8.93857e+01
7.40167e-03,8.47937e+01
7.50393e-03,8.04258e+01
7.60760e-03,7.62711e+01
7.71270e-03,7.23195e+01
7.81926e-03,6.85610e+01
7.92729e-03,6.49862e+01
8.03681e-03,6.15865e+01
8.14784e-03,5.83531e+01
8.26041e-03,5.52781e+01
8.37453e-03,5.23538e+01
8.49023e-03,4.95729e+01
8.60753e-03,4.69284e+01
8.72645e-03,4.44136e+01
8.84701e-03,4.20224e+01
8.96924e-03,3.97485e+01
9.09315e-03,3.75864e+01
9.21878e-03,3.55306e+01
9.34614e-03,3.35759e+01
9.47527e-03,3.17174e+01
9.60617e-03,2.99503e+01
9.73889e-03,2.82702e+01
9.87344e-03,2.66729e+01
1.00098e-02,2.51543e+01
1.01481e-02,2.37106e+01
1.02883e-02,2.23380e+01
1.04305e-02,2.10332e+01
1.05746e-02,1.97927e+01
1.07207e-02,1.86135e+01
1.08688e-02,1.74924e+01
1.10190e-02,1.64268e+01
1.11712e-02,1.54138e+01
1.13255e-02,1.44509e+01
1.14820e-02,1.35356e+01
1.16406e-02,1.26655e+01
1.18014e-02,1.18385e+01
1.19645e-02,1.10524e+01
1.21298e-02,1.03052e+01
1.22974e-02,9.59497e+00
1.24673e-02,8.91993e+00
1.26395e-02,8.27833e+00
1.28141e-02,7.66851e+00
1.29912e-02,7.08892e+00
1.31706e-02,6.53806e+00
1.33526e-02,6.01451e+00
1.35371e-02,5.51692e+00
1.37241e-02,5.04401e+00
1.39137e-02,4.59457e+00
1.41059e-02,4.16742e+00
1.43008e-02,3.76148e+00
1.44984e-02,3.37570e+00
1.46987e-02,3.00907e+00
1.49018e-02,2.66064e+00
1.51077e-02,2.32953e+00
1.53164e-02,2.01486e+00
1.55280e-02,1.71584e+00
1.57425e-02,1.43167e+00
1.59600e-02,1.16163e+00
1.61805e-02,9.05018e-01
1.64040e-02,6.61165e-01
1.66307e-02,4.29441e-01
1.68604e-02,2.09243e-01
1.70934e-02,0.00000e+00
