m1=20619.026, m2=18.720, gsp=2.351, rhosp=88.556
fGW[Hz],dPh[rad]
3.54145e-03,2.63044e+04
3.61515e-03,2.51175e+04
3.69037e-03,2.39825e+04
3.76716e-03,2.28970e+04
3.84555e-03,2.18590e+04
3.92557e-03,2.08665e+04
4.00726e-03,1.99174e+04
4.09064e-03,1.90099e+04
4.17576e-03,1.81422e+04
4.26265e-03,1.73127e+04
4.35135e-03,1.65197e+04
4.44190e-03,1.57615e+04
4.53433e-03,1.50369e+04
4.62868e-03,1.43442e+04
4.72499e-03,1.36821e+04
4.82331e-03,1.30493e+04
4.92368e-03,1.24445e+04
5.02613e-03,1.18666e+04
5.13072e-03,1.13143e+04
5.23748e-03,1.07867e+04
5.34647e-03,1.02825e+04
5.45772e-03,9.80080e+03
5.57128e-03,9.34063e+03
5.68721e-03,8.90106e+03
5.80556e-03,8.48119e+03
5.92636e-03,8.08016e+03
6.04968e-03,7.69717e+03
6.17556e-03,7.33143e+03
6.30407e-03,6.98219e+03
6.43525e-03,6.64874e+03
6.56915e-03,6.33038e+03
6.70585e-03,6.02647e+03
6.84538e-03,5.73637e+03
6.98783e-03,5.45949e+03
7.13323e-03,5.19524e+03
7.28166e-03,4.94307e+03
7.43318e-03,4.70246e+03
7.58786e-03,4.47289e+03
7.74575e-03,4.25390e+03
7.90693e-03,4.04500e+03
8.07146e-03,3.84576e+03
8.23941e-03,3.65576e+03
8.41086e-03,3.47458e+03
8.58588e-03,3.30184e+03
8.76454e-03,3.13716e+03
8.94691e-03,2.98019e+03
9.13309e-03,2.83059e+03
9.32313e-03,2.68803e+03
9.51713e-03,2.55219e+03
9.71517e-03,2.42278e+03
9.91733e-03,2.29952e+03
1.01237e-02,2.18211e+03
1.03343e-02,2.07032e+03
1.05494e-02,1.96387e+03
1.07689e-02,1.86253e+03
1.09930e-02,1.76608e+03
1.12217e-02,1.67429e+03
1.14552e-02,1.58695e+03
1.16936e-02,1.50385e+03
1.19369e-02,1.42481e+03
1.21853e-02,1.34965e+03
1.24389e-02,1.27817e+03
1.26977e-02,1.21023e+03
1.29619e-02,1.14564e+03
1.32317e-02,1.08426e+03
1.35070e-02,1.02595e+03
1.37880e-02,9.70549e+02
1.40750e-02,9.17934e+02
1.43678e-02,8.67972e+02
1.46668e-02,8.20540e+02
1.49720e-02,7.75519e+02
1.52835e-02,7.32795e+02
1.56016e-02,6.92261e+02
1.59262e-02,6.53812e+02
1.62576e-02,6.17349e+02
1.65959e-02,5.82779e+02
1.69412e-02,5.50009e+02
1.72938e-02,5.18954e+02
1.76536e-02,4.89531e+02
1.80210e-02,4.61662e+02
1.83960e-02,4.35269e+02
1.87787e-02,4.10282e+02
1.91695e-02,3.86632e+02
1.95684e-02,3.64252e+02
1.99756e-02,3.43079e+02
2.03912e-02,3.23055e+02
2.08156e-02,3.04121e+02
2.12487e-02,2.86223e+02
2.16908e-02,2.69309e+02
2.21422e-02,2.53329e+02
2.26029e-02,2.38235e+02
2.30733e-02,2.23983e+02
2.35534e-02,2.10529e+02
2.40435e-02,1.97831e+02
2.45438e-02,1.85851e+02
2.50545e-02,1.74551e+02
2.55759e-02,1.63896e+02
2.61081e-02,1.53851e+02
2.66513e-02,1.44385e+02
2.72059e-02,1.35467e+02
2.77720e-02,1.27066e+02
2.83499e-02,1.19156e+02
2.89398e-02,1.11710e+02
2.95420e-02,1.04703e+02
3.01568e-02,9.81107e+01
3.07843e-02,9.19102e+01
3.14248e-02,8.60800e+01
3.20788e-02,8.05996e+01
3.27463e-02,7.54495e+01
3.34277e-02,7.06111e+01
3.41232e-02,6.60668e+01
3.48333e-02,6.18000e+01
3.55581e-02,5.77949e+01
3.62980e-02,5.40364e+01
3.70533e-02,5.05103e+01
3.78244e-02,4.72033e+01
3.86114e-02,4.41024e+01
3.94149e-02,4.11957e+01
4.02350e-02,3.84718e+01
4.10723e-02,3.59197e+01
4.19269e-02,3.35294e+01
4.27993e-02,3.12912e+01
4.36899e-02,2.91958e+01
4.45991e-02,2.72348e+01
4.55271e-02,2.53999e+01
4.64744e-02,2.36835e+01
4.74415e-02,2.20784e+01
4.84287e-02,2.05776e+01
4.94364e-02,1.91748e+01
5.04651e-02,1.78638e+01
5.15152e-02,1.66390e+01
5.25872e-02,1.54949e+01
5.36814e-02,1.44265e+01
5.47984e-02,1.34289e+01
5.59387e-02,1.24978e+01
5.71027e-02,1.16288e+01
5.82909e-02,1.08180e+01
5.95039e-02,1.00616e+01
6.07421e-02,9.35622e+00
6.20060e-02,8.69845e+00
6.32963e-02,8.08522e+00
6.46134e-02,7.51363e+00
6.59579e-02,6.98096e+00
6.73303e-02,6.48465e+00
6.87314e-02,6.02230e+00
7.01616e-02,5.59168e+00
7.16215e-02,5.19066e+00
7.31119e-02,4.81729e+00
7.46332e-02,4.46971e+00
7.61862e-02,4.14620e+00
7.77715e-02,3.84513e+00
7.93898e-02,3.56501e+00
8.10418e-02,3.30440e+00
8.27282e-02,3.06199e+00
8.44496e-02,2.83655e+00
8.62069e-02,2.62690e+00
8.80007e-02,2.43198e+00
8.98319e-02,2.25077e+00
9.17012e-02,2.08234e+00
9.36093e-02,1.92579e+00
9.55572e-02,1.78032e+00
9.75456e-02,1.64516e+00
9.95753e-02,1.51958e+00
1.01647e-01,1.40293e+00
1.03762e-01,1.29458e+00
1.05922e-01,1.19395e+00
1.08126e-01,1.10051e+00
1.10376e-01,1.01374e+00
1.12672e-01,9.33182e-01
1.15017e-01,8.58398e-01
1.17410e-01,7.88980e-01
1.19853e-01,7.24550e-01
1.22347e-01,6.64754e-01
1.24893e-01,6.09263e-01
1.27492e-01,5.57774e-01
1.30145e-01,5.10000e-01
1.32853e-01,4.65678e-01
1.35618e-01,4.24561e-01
1.38439e-01,3.86421e-01
1.41320e-01,3.51045e-01
1.44261e-01,3.18235e-01
1.47263e-01,2.87807e-01
1.50327e-01,2.59590e-01
1.53455e-01,2.33425e-01
1.56648e-01,2.09164e-01
1.59908e-01,1.86671e-01
1.63235e-01,1.65817e-01
1.66632e-01,1.46485e-01
1.70099e-01,1.28565e-01
1.73639e-01,1.11953e-01
1.77252e-01,9.65567e-02
1.80940e-01,8.22863e-02
1.84705e-01,6.90607e-02
1.88549e-01,5.68039e-02
1.92472e-01,4.54455e-02
1.96477e-01,3.49202e-02
2.00566e-01,2.51673e-02
2.04739e-01,1.61305e-02
2.08999e-01,7.75752e-03
2.13348e-01,0.00000e+00
