m1=314510.122, m2=8.974, gsp=2.330, rhosp=3188.152
fGW[Hz],dPh[rad]
2.36068e-03,1.85592e+04
2.38188e-03,1.79513e+04
2.40326e-03,1.73632e+04
2.42484e-03,1.67942e+04
2.44661e-03,1.62437e+04
2.46858e-03,1.57111e+04
2.49074e-03,1.51959e+04
2.51311e-03,1.46974e+04
2.53567e-03,1.42151e+04
2.55844e-03,1.37486e+04
2.58141e-03,1.32972e+04
2.60458e-03,1.28606e+04
2.62797e-03,1.24382e+04
2.65156e-03,1.20295e+04
2.67537e-03,1.16342e+04
2.69939e-03,1.12518e+04
2.72363e-03,1.08818e+04
2.74808e-03,1.05240e+04
2.77276e-03,1.01778e+04
2.79765e-03,9.84290e+03
2.82277e-03,9.51896e+03
2.84811e-03,9.20559e+03
2.87368e-03,8.90247e+03
2.89949e-03,8.60926e+03
2.92552e-03,8.32563e+03
2.95178e-03,8.05128e+03
2.97829e-03,7.78590e+03
3.00503e-03,7.52920e+03
3.03201e-03,7.28090e+03
3.05923e-03,7.04073e+03
3.08670e-03,6.80843e+03
3.11441e-03,6.58372e+03
3.14237e-03,6.36638e+03
3.17059e-03,6.15616e+03
3.19905e-03,5.95283e+03
3.22778e-03,5.75615e+03
3.25676e-03,5.56593e+03
3.28600e-03,5.38194e+03
3.31550e-03,5.20398e+03
3.34527e-03,5.03187e+03
3.37530e-03,4.86539e+03
3.40561e-03,4.70438e+03
3.43619e-03,4.54865e+03
3.46704e-03,4.39804e+03
3.49817e-03,4.25236e+03
3.52957e-03,4.11147e+03
3.56126e-03,3.97521e+03
3.59324e-03,3.84342e+03
3.62550e-03,3.71596e+03
3.65805e-03,3.59269e+03
3.69090e-03,3.47347e+03
3.72403e-03,3.35817e+03
3.75747e-03,3.24665e+03
3.79121e-03,3.13881e+03
3.82525e-03,3.03451e+03
3.85959e-03,2.93364e+03
3.89424e-03,2.83608e+03
3.92921e-03,2.74174e+03
3.96449e-03,2.65050e+03
4.00008e-03,2.56226e+03
4.03599e-03,2.47693e+03
4.07223e-03,2.39440e+03
4.10879e-03,2.31459e+03
4.14568e-03,2.23741e+03
4.18291e-03,2.16277e+03
4.22046e-03,2.09059e+03
4.25835e-03,2.02078e+03
4.29659e-03,1.95328e+03
4.33516e-03,1.88800e+03
4.37409e-03,1.82486e+03
4.41336e-03,1.76381e+03
4.45299e-03,1.70478e+03
4.49297e-03,1.64768e+03
4.53331e-03,1.59247e+03
4.57401e-03,1.53908e+03
4.61508e-03,1.48745e+03
4.65651e-03,1.43752e+03
4.69832e-03,1.38924e+03
4.74050e-03,1.34255e+03
4.78307e-03,1.29741e+03
4.82601e-03,1.25375e+03
4.86934e-03,1.21153e+03
4.91306e-03,1.17070e+03
4.95717e-03,1.13122e+03
5.00168e-03,1.09305e+03
5.04659e-03,1.05613e+03
5.09190e-03,1.02044e+03
5.13761e-03,9.85917e+02
5.18374e-03,9.52538e+02
5.23028e-03,9.20261e+02
5.27724e-03,8.89050e+02
5.32462e-03,8.58870e+02
5.37243e-03,8.29686e+02
5.42067e-03,8.01466e+02
5.46934e-03,7.74179e+02
5.51844e-03,7.47793e+02
5.56799e-03,7.22279e+02
5.61798e-03,6.97608e+02
5.66842e-03,6.73752e+02
5.71931e-03,6.50684e+02
5.77066e-03,6.28379e+02
5.82248e-03,6.06811e+02
5.87475e-03,5.85955e+02
5.92750e-03,5.65790e+02
5.98072e-03,5.46291e+02
6.03442e-03,5.27436e+02
6.08860e-03,5.09205e+02
6.14326e-03,4.91577e+02
6.19842e-03,4.74532e+02
6.25407e-03,4.58050e+02
6.31022e-03,4.42114e+02
6.36688e-03,4.26705e+02
6.42404e-03,4.11805e+02
6.48172e-03,3.97398e+02
6.53992e-03,3.83468e+02
6.59863e-03,3.69999e+02
6.65788e-03,3.56975e+02
6.71766e-03,3.44383e+02
6.77797e-03,3.32207e+02
6.83883e-03,3.20434e+02
6.90023e-03,3.09050e+02
6.96218e-03,2.98043e+02
7.02469e-03,2.87401e+02
7.08776e-03,2.77111e+02
7.15140e-03,2.67161e+02
7.21561e-03,2.57541e+02
7.28039e-03,2.48240e+02
7.34576e-03,2.39246e+02
7.41171e-03,2.30550e+02
7.47826e-03,2.22142e+02
7.54540e-03,2.14012e+02
7.61315e-03,2.06152e+02
7.68150e-03,1.98552e+02
7.75047e-03,1.91203e+02
7.82006e-03,1.84098e+02
7.89027e-03,1.77228e+02
7.96111e-03,1.70586e+02
8.03259e-03,1.64164e+02
8.10471e-03,1.57954e+02
8.17748e-03,1.51951e+02
8.25090e-03,1.46146e+02
8.32498e-03,1.40533e+02
8.39972e-03,1.35107e+02
8.47514e-03,1.29860e+02
8.55123e-03,1.24787e+02
8.62801e-03,1.19882e+02
8.70547e-03,1.15140e+02
8.78364e-03,1.10554e+02
8.86250e-03,1.06121e+02
8.94207e-03,1.01835e+02
9.02236e-03,9.76904e+01
9.10336e-03,9.36834e+01
9.18510e-03,8.98093e+01
9.26756e-03,8.60636e+01
9.35077e-03,8.24420e+01
9.43473e-03,7.89405e+01
9.51944e-03,7.55550e+01
9.60491e-03,7.22817e+01
9.69114e-03,6.91170e+01
9.77815e-03,6.60572e+01
9.86595e-03,6.30988e+01
9.95453e-03,6.02385e+01
1.00439e-02,5.74731e+01
1.01341e-02,5.47993e+01
1.02251e-02,5.22142e+01
1.03169e-02,4.97148e+01
1.04095e-02,4.72983e+01
1.05030e-02,4.49619e+01
1.05973e-02,4.27029e+01
1.06924e-02,4.05189e+01
1.07884e-02,3.84074e+01
1.08853e-02,3.63658e+01
1.09830e-02,3.43920e+01
1.10816e-02,3.24836e+01
1.11811e-02,3.06385e+01
1.12815e-02,2.88546e+01
1.13828e-02,2.71299e+01
1.14850e-02,2.54624e+01
1.15881e-02,2.38502e+01
1.16922e-02,2.22914e+01
1.17971e-02,2.07844e+01
1.19031e-02,1.93274e+01
1.20099e-02,1.79187e+01
1.21178e-02,1.65567e+01
1.22266e-02,1.52399e+01
1.23363e-02,1.39668e+01
1.24471e-02,1.27359e+01
1.25588e-02,1.15459e+01
1.26716e-02,1.03954e+01
1.27854e-02,9.28300e+00
1.29002e-02,8.20753e+00
1.30160e-02,7.16775e+00
1.31329e-02,6.16246e+00
1.32508e-02,5.19054e+00
1.33697e-02,4.25086e+00
1.34898e-02,3.34236e+00
1.36109e-02,2.46401e+00
1.37331e-02,1.61480e+00
1.38564e-02,7.93780e-01
1.39808e-02,0.00000e+00
