m1=55407.115, m2=77.100, gsp=2.025, rhosp=117.683
fGW[Hz],dPh[rad]
1.62685e-03,3.86569e+01
1.65895e-03,3.68536e+01
1.69168e-03,3.51323e+01
1.72506e-03,3.34894e+01
1.75910e-03,3.19213e+01
1.79380e-03,3.04247e+01
1.82919e-03,2.89963e+01
1.86528e-03,2.76332e+01
1.90209e-03,2.63324e+01
1.93961e-03,2.50910e+01
1.97788e-03,2.39065e+01
2.01691e-03,2.27762e+01
2.05670e-03,2.16978e+01
2.09728e-03,2.06689e+01
2.13866e-03,1.96872e+01
2.18085e-03,1.87507e+01
2.22388e-03,1.78574e+01
2.26776e-03,1.70051e+01
2.31250e-03,1.61922e+01
2.35813e-03,1.54169e+01
2.40465e-03,1.46774e+01
2.45209e-03,1.39721e+01
2.50047e-03,1.32996e+01
2.54981e-03,1.26582e+01
2.60012e-03,1.20466e+01
2.65142e-03,1.14635e+01
2.70373e-03,1.09075e+01
2.75707e-03,1.03775e+01
2.81147e-03,9.87222e+00
2.86694e-03,9.39057e+00
2.92350e-03,8.93148e+00
2.98118e-03,8.49393e+00
3.04000e-03,8.07692e+00
3.09998e-03,7.67954e+00
3.16114e-03,7.30087e+00
3.22351e-03,6.94008e+00
3.28711e-03,6.59634e+00
3.35197e-03,6.26888e+00
3.41810e-03,5.95695e+00
3.48554e-03,5.65984e+00
3.55431e-03,5.37687e+00
3.62444e-03,5.10739e+00
3.69595e-03,4.85078e+00
3.76887e-03,4.60646e+00
3.84323e-03,4.37385e+00
3.91905e-03,4.15242e+00
3.99638e-03,3.94165e+00
4.07522e-03,3.74104e+00
4.15563e-03,3.55014e+00
4.23762e-03,3.36848e+00
4.32123e-03,3.19565e+00
4.40648e-03,3.03122e+00
4.49342e-03,2.87482e+00
4.58208e-03,2.72606e+00
4.67248e-03,2.58459e+00
4.76467e-03,2.45007e+00
4.85868e-03,2.32218e+00
4.95454e-03,2.20059e+00
5.05229e-03,2.08503e+00
5.15197e-03,1.97519e+00
5.25362e-03,1.87083e+00
5.35727e-03,1.77167e+00
5.46297e-03,1.67746e+00
5.57076e-03,1.58799e+00
5.68067e-03,1.50301e+00
5.79275e-03,1.42232e+00
5.90704e-03,1.34571e+00
6.02358e-03,1.27299e+00
6.14243e-03,1.20397e+00
6.26362e-03,1.13848e+00
6.38720e-03,1.07634e+00
6.51322e-03,1.01739e+00
6.64172e-03,9.61473e-01
6.77276e-03,9.08451e-01
6.90639e-03,8.58179e-01
7.04265e-03,8.10523e-01
7.18160e-03,7.65355e-01
7.32330e-03,7.22554e-01
7.46778e-03,6.82003e-01
7.61512e-03,6.43591e-01
7.76537e-03,6.07213e-01
7.91858e-03,5.72767e-01
8.07481e-03,5.40159e-01
8.23413e-03,5.09295e-01
8.39659e-03,4.80089e-01
8.56225e-03,4.52457e-01
8.73118e-03,4.26321e-01
8.90345e-03,4.01604e-01
9.07911e-03,3.78235e-01
9.25824e-03,3.56144e-01
9.44091e-03,3.35268e-01
9.62718e-03,3.15543e-01
9.81712e-03,2.96910e-01
1.00108e-02,2.79312e-01
1.02083e-02,2.62697e-01
1.04097e-02,2.47013e-01
1.06151e-02,2.32211e-01
1.08246e-02,2.18245e-01
1.10381e-02,2.05070e-01
1.12559e-02,1.92646e-01
1.14780e-02,1.80932e-01
1.17044e-02,1.69890e-01
1.19354e-02,1.59485e-01
1.21709e-02,1.49681e-01
1.24110e-02,1.40447e-01
1.26558e-02,1.31752e-01
1.29055e-02,1.23566e-01
1.31602e-02,1.15861e-01
1.34198e-02,1.08611e-01
1.36846e-02,1.01791e-01
1.39546e-02,9.53764e-02
1.42299e-02,8.93454e-02
1.45107e-02,8.36762e-02
1.47970e-02,7.83485e-02
1.50889e-02,7.33429e-02
1.53866e-02,6.86412e-02
1.56902e-02,6.42261e-02
1.59998e-02,6.00812e-02
1.63154e-02,5.61908e-02
1.66373e-02,5.25403e-02
1.69656e-02,4.91157e-02
1.73003e-02,4.59040e-02
1.76416e-02,4.28925e-02
1.79897e-02,4.00696e-02
1.83447e-02,3.74240e-02
1.87066e-02,3.49452e-02
1.90757e-02,3.26233e-02
1.94520e-02,3.04489e-02
1.98358e-02,2.84131e-02
2.02272e-02,2.65075e-02
2.06263e-02,2.47242e-02
2.10332e-02,2.30558e-02
2.14482e-02,2.14952e-02
2.18714e-02,2.00358e-02
2.23029e-02,1.86713e-02
2.27429e-02,1.73959e-02
2.31916e-02,1.62040e-02
2.36492e-02,1.50904e-02
2.41158e-02,1.40501e-02
2.45916e-02,1.30786e-02
2.50768e-02,1.21714e-02
2.55716e-02,1.13246e-02
2.60761e-02,1.05343e-02
2.65906e-02,9.79676e-03
2.71152e-02,9.10870e-03
2.76502e-02,8.46691e-03
2.81957e-02,7.86838e-03
2.87520e-02,7.31031e-03
2.93193e-02,6.79006e-03
2.98978e-02,6.30516e-03
3.04876e-02,5.85330e-03
3.10892e-02,5.43229e-03
3.17025e-02,5.04009e-03
3.23280e-02,4.67481e-03
3.29659e-02,4.33465e-03
3.36163e-02,4.01793e-03
3.42795e-02,3.72309e-03
3.49559e-02,3.44866e-03
3.56455e-02,3.19328e-03
3.63488e-02,2.95564e-03
3.70660e-02,2.73456e-03
3.77973e-02,2.52891e-03
3.85430e-02,2.33764e-03
3.93035e-02,2.15977e-03
4.00789e-02,1.99439e-03
4.08697e-02,1.84064e-03
4.16760e-02,1.69772e-03
4.24983e-02,1.56488e-03
4.33368e-02,1.44144e-03
4.41918e-02,1.32673e-03
4.50637e-02,1.22016e-03
4.59528e-02,1.12116e-03
4.68595e-02,1.02919e-03
4.77840e-02,9.43784e-04
4.87268e-02,8.64466e-04
4.96882e-02,7.90815e-04
5.06685e-02,7.22432e-04
5.16682e-02,6.58948e-04
5.26876e-02,6.00016e-04
5.37271e-02,5.45317e-04
5.47872e-02,4.94551e-04
5.58681e-02,4.47439e-04
5.69704e-02,4.03723e-04
5.80944e-02,3.63160e-04
5.92406e-02,3.25528e-04
6.04094e-02,2.90617e-04
6.16013e-02,2.58233e-04
6.28167e-02,2.28195e-04
6.40561e-02,2.00336e-04
6.53199e-02,1.74499e-04
6.66086e-02,1.50540e-04
6.79228e-02,1.28323e-04
6.92629e-02,1.07724e-04
7.06295e-02,8.86249e-05
7.20230e-02,7.09188e-05
7.34440e-02,5.45049e-05
7.48930e-02,3.92897e-05
7.63707e-02,2.51865e-05
7.78775e-02,1.21149e-05
7.94140e-02,0.00000e+00
