m1=88908.302, m2=6.715, gsp=2.452, rhosp=169.905
fGW[Hz],dPh[rad]
3.60938e-03,2.99351e+05
3.65717e-03,2.86474e+05
3.70559e-03,2.74129e+05
3.75465e-03,2.62296e+05
3.80437e-03,2.50956e+05
3.85474e-03,2.40088e+05
3.90578e-03,2.29674e+05
3.95749e-03,2.19696e+05
4.00989e-03,2.10137e+05
4.06299e-03,2.00980e+05
4.11678e-03,1.92208e+05
4.17129e-03,1.83806e+05
4.22652e-03,1.75760e+05
4.28248e-03,1.68055e+05
4.33918e-03,1.60677e+05
4.39664e-03,1.53612e+05
4.45485e-03,1.46849e+05
4.51384e-03,1.40375e+05
4.57360e-03,1.34178e+05
4.63416e-03,1.28246e+05
4.69552e-03,1.22570e+05
4.75769e-03,1.17137e+05
4.82068e-03,1.11938e+05
4.88451e-03,1.06964e+05
4.94919e-03,1.02206e+05
5.01472e-03,9.76527e+04
5.08112e-03,9.32975e+04
5.14839e-03,8.91316e+04
5.21656e-03,8.51470e+04
5.28563e-03,8.13362e+04
5.35562e-03,7.76918e+04
5.42653e-03,7.42068e+04
5.49838e-03,7.08744e+04
5.57118e-03,6.76883e+04
5.64494e-03,6.46421e+04
5.71969e-03,6.17300e+04
5.79542e-03,5.89462e+04
5.87215e-03,5.62852e+04
5.94990e-03,5.37418e+04
6.02868e-03,5.13110e+04
6.10851e-03,4.89878e+04
6.18939e-03,4.67677e+04
6.27134e-03,4.46463e+04
6.35438e-03,4.26192e+04
6.43851e-03,4.06823e+04
6.52376e-03,3.88318e+04
6.61014e-03,3.70640e+04
6.69766e-03,3.53751e+04
6.78634e-03,3.37619e+04
6.87620e-03,3.22209e+04
6.96724e-03,3.07490e+04
7.05949e-03,2.93432e+04
7.15296e-03,2.80006e+04
7.24767e-03,2.67184e+04
7.34364e-03,2.54940e+04
7.44087e-03,2.43248e+04
7.53939e-03,2.32083e+04
7.63922e-03,2.21424e+04
7.74037e-03,2.11246e+04
7.84285e-03,2.01529e+04
7.94670e-03,1.92252e+04
8.05192e-03,1.83396e+04
8.15853e-03,1.74942e+04
8.26655e-03,1.66872e+04
8.37601e-03,1.59170e+04
8.48691e-03,1.51818e+04
8.59928e-03,1.44800e+04
8.71314e-03,1.38103e+04
8.82851e-03,1.31712e+04
8.94540e-03,1.25612e+04
9.06384e-03,1.19791e+04
9.18385e-03,1.14236e+04
9.30545e-03,1.08936e+04
9.42866e-03,1.03878e+04
9.55350e-03,9.90524e+03
9.68000e-03,9.44480e+03
9.80817e-03,9.00551e+03
9.93803e-03,8.58639e+03
1.00696e-02,8.18653e+03
1.02029e-02,7.80508e+03
1.03380e-02,7.44118e+03
1.04749e-02,7.09404e+03
1.06136e-02,6.76290e+03
1.07541e-02,6.44703e+03
1.08965e-02,6.14574e+03
1.10408e-02,5.85836e+03
1.11870e-02,5.58425e+03
1.13351e-02,5.32282e+03
1.14852e-02,5.07348e+03
1.16373e-02,4.83567e+03
1.17914e-02,4.60888e+03
1.19475e-02,4.39259e+03
1.21057e-02,4.18633e+03
1.22660e-02,3.98963e+03
1.24284e-02,3.80206e+03
1.25929e-02,3.62319e+03
1.27597e-02,3.45264e+03
1.29286e-02,3.29000e+03
1.30998e-02,3.13493e+03
1.32732e-02,2.98706e+03
1.34490e-02,2.84608e+03
1.36271e-02,2.71165e+03
1.38075e-02,2.58349e+03
1.39903e-02,2.46130e+03
1.41756e-02,2.34480e+03
1.43632e-02,2.23373e+03
1.45534e-02,2.12784e+03
1.47461e-02,2.02689e+03
1.49414e-02,1.93065e+03
1.51392e-02,1.83891e+03
1.53396e-02,1.75145e+03
1.55428e-02,1.66808e+03
1.57486e-02,1.58860e+03
1.59571e-02,1.51284e+03
1.61684e-02,1.44062e+03
1.63824e-02,1.37178e+03
1.65993e-02,1.30617e+03
1.68191e-02,1.24362e+03
1.70418e-02,1.18400e+03
1.72675e-02,1.12718e+03
1.74961e-02,1.07302e+03
1.77278e-02,1.02140e+03
1.79625e-02,9.72193e+02
1.82003e-02,9.25297e+02
1.84413e-02,8.80601e+02
1.86855e-02,8.38001e+02
1.89329e-02,7.97401e+02
1.91836e-02,7.58707e+02
1.94376e-02,7.21830e+02
1.96949e-02,6.86685e+02
1.99557e-02,6.53190e+02
2.02199e-02,6.21270e+02
2.04876e-02,5.90849e+02
2.07589e-02,5.61859e+02
2.10338e-02,5.34231e+02
2.13123e-02,5.07903e+02
2.15945e-02,4.82813e+02
2.18804e-02,4.58904e+02
2.21701e-02,4.36119e+02
2.24636e-02,4.14407e+02
2.27611e-02,3.93717e+02
2.30624e-02,3.74002e+02
2.33678e-02,3.55214e+02
2.36772e-02,3.37312e+02
2.39907e-02,3.20253e+02
2.43084e-02,3.03997e+02
2.46302e-02,2.88508e+02
2.49563e-02,2.73749e+02
2.52868e-02,2.59685e+02
2.56216e-02,2.46284e+02
2.59608e-02,2.33516e+02
2.63046e-02,2.21349e+02
2.66528e-02,2.09757e+02
2.70057e-02,1.98711e+02
2.73633e-02,1.88186e+02
2.77256e-02,1.78158e+02
2.80927e-02,1.68604e+02
2.84647e-02,1.59500e+02
2.88416e-02,1.50826e+02
2.92235e-02,1.42562e+02
2.96104e-02,1.34687e+02
3.00025e-02,1.27185e+02
3.03997e-02,1.20037e+02
3.08022e-02,1.13227e+02
3.12101e-02,1.06738e+02
3.16233e-02,1.00556e+02
3.20420e-02,9.46659e+01
3.24663e-02,8.90542e+01
3.28961e-02,8.37078e+01
3.33317e-02,7.86140e+01
3.37730e-02,7.37611e+01
3.42202e-02,6.91376e+01
3.46733e-02,6.47326e+01
3.51324e-02,6.05360e+01
3.55976e-02,5.65378e+01
3.60689e-02,5.27287e+01
3.65465e-02,4.90997e+01
3.70304e-02,4.56424e+01
3.75207e-02,4.23486e+01
3.80175e-02,3.92107e+01
3.85208e-02,3.62212e+01
3.90309e-02,3.33732e+01
3.95477e-02,3.06600e+01
4.00713e-02,2.80751e+01
4.06019e-02,2.56126e+01
4.11395e-02,2.32666e+01
4.16842e-02,2.10317e+01
4.22361e-02,1.89026e+01
4.27953e-02,1.68742e+01
4.33620e-02,1.49419e+01
4.39361e-02,1.31011e+01
4.45178e-02,1.13474e+01
4.51073e-02,9.67682e+00
4.57045e-02,8.08531e+00
4.63097e-02,6.56918e+00
4.69228e-02,5.12485e+00
4.75441e-02,3.74892e+00
4.81736e-02,2.43817e+00
4.88115e-02,1.18951e+00
4.94578e-02,0.00000e+00
